11:29:59,-0.00
11:29:59.015625,-0.00
11:29:59.031250,-0.00
11:29:59.046875,-0.00
11:29:59.062500,-0.00
11:29:59.078125,-0.00
11:29:59.093750,-0.00
11:29:59.109375,-0.00
11:29:59.125000,-0.00
11:29:59.140625,-0.00
11:29:59.156250,0.00
11:29:59.171875,0.01
11:29:59.187500,0.01
11:29:59.203125,-0.00
11:29:59.218750,-0.03
11:29:59.234375,-0.05
11:29:59.250000,-0.05
11:29:59.265625,0.00
11:29:59.281250,0.13
11:29:59.296875,0.36
11:29:59.312500,0.66
11:29:59.328125,1.01
11:29:59.343750,1.37
11:29:59.359375,1.72
11:29:59.375000,2.06
11:29:59.390625,2.40
11:29:59.406250,2.79
11:29:59.421875,3.24
11:29:59.437500,3.80
11:29:59.453125,4.42
11:29:59.468750,5.06
11:29:59.484375,5.66
11:29:59.500000,6.20
11:29:59.515625,6.68
11:29:59.531250,7.15
11:29:59.546875,7.68
11:29:59.562500,8.31
11:29:59.578125,9.14
11:29:59.593750,10.09
11:29:59.609375,11.04
11:29:59.625000,11.88
11:29:59.640625,12.56
11:29:59.656250,13.14
11:29:59.671875,13.76
11:29:59.687500,14.65
11:29:59.703125,15.96
11:29:59.718750,17.91
11:29:59.734375,20.32
11:29:59.750000,22.90
11:29:59.765625,25.38
11:29:59.781250,27.58
11:29:59.796875,29.57
11:29:59.812500,31.68
11:29:59.828125,34.32
11:29:59.843750,37.81
11:29:59.859375,42.54
11:29:59.875000,48.15
11:29:59.890625,54.10
11:29:59.906250,59.83
11:29:59.921875,64.97
11:29:59.937500,69.58
11:29:59.953125,74.14
11:29:59.968750,79.34
11:29:59.984375,85.71
11:30:00,93.76
11:30:00.015625,103.00
11:30:00.031250,112.62
11:30:00.046875,121.73
11:30:00.062500,129.77
11:30:00.078125,136.75
11:30:00.093750,143.30
11:30:00.109375,150.75
11:30:00.125000,157.77
11:30:00.140625,166.64
11:30:00.156250,177.95
11:30:00.171875,191.79
11:30:00.187500,206.97
11:30:00.203125,220.57
11:30:00.218750,228.25
11:30:00.234375,225.36
11:30:00.250000,208.53
11:30:00.265625,176.87
11:30:00.281250,132.76
11:30:00.296875,80.05
11:30:00.312500,23.07
11:30:00.328125,-34.94
11:30:00.343750,-92.44
11:30:00.359375,-149.16
11:30:00.375000,-205.23
11:30:00.390625,-260.37
11:30:00.406250,-313.74
11:30:00.421875,-363.87
11:30:00.437500,-409.83
11:30:00.453125,-450.91
11:30:00.468750,-486.50
11:30:00.484375,-515.74
11:30:00.500000,-537.23
11:30:00.515625,-549.22
11:30:00.531250,-549.96
11:30:00.546875,-538.37
11:30:00.562500,-514.21
11:30:00.578125,-478.67
11:30:00.593750,-433.88
11:30:00.609375,-382.45
11:30:00.625000,-327.02
11:30:00.640625,-269.84
11:30:00.656250,-212.63
11:30:00.671875,-156.66
11:30:00.687500,-102.95
11:30:00.703125,-52.37
11:30:00.718750,-5.90
11:30:00.734375,35.58
11:30:00.750000,71.43
11:30:00.765625,101.35
11:30:00.781250,125.50
11:30:00.796875,144.38
11:30:00.812500,158.69
11:30:00.828125,169.15
11:30:00.843750,176.37
11:30:00.859375,180.75
11:30:00.875000,182.57
11:30:00.890625,182.07
11:30:00.906250,179.51
11:30:00.921875,175.23
11:30:00.937500,169.65
11:30:00.953125,163.18
11:30:00.968750,156.15
11:30:00.984375,148.81
11:30:01,141.30
11:30:01.015625,133.69
11:30:01.031250,126.02
11:30:01.046875,118.33
11:30:01.062500,110.69
11:30:01.078125,103.16
11:30:01.093750,95.80
11:30:01.109375,88.68
11:30:01.125000,81.83
11:30:01.140625,75.25
11:30:01.156250,68.95
11:30:01.171875,62.95
11:30:01.187500,57.25
11:30:01.203125,51.86
11:30:01.218750,46.78
11:30:01.234375,42.03
11:30:01.250000,37.59
11:30:01.265625,33.45
11:30:01.281250,29.61
11:30:01.296875,26.07
11:30:01.312500,22.81
11:30:01.328125,19.83
11:30:01.343750,17.11
11:30:01.359375,14.67
11:30:01.375000,12.48
11:30:01.390625,10.54
11:30:01.406250,8.83
11:30:01.421875,7.35
11:30:01.437500,6.07
11:30:01.453125,4.97
11:30:01.468750,4.05
11:30:01.484375,3.27
11:30:01.500000,2.62
11:30:01.515625,2.09
11:30:01.531250,1.65
11:30:01.546875,1.30
11:30:01.562500,1.01
11:30:01.578125,0.79
11:30:01.593750,0.61
11:30:01.609375,0.48
11:30:01.625000,0.37
11:30:01.640625,0.29
11:30:01.656250,0.24
11:30:01.671875,0.20
11:30:01.687500,0.18
11:30:01.703125,0.17
11:30:01.718750,0.18
11:30:01.734375,0.19
11:30:01.750000,0.21
11:30:01.765625,0.24
11:30:01.781250,0.27
11:30:01.796875,0.31
11:30:01.812500,0.35
11:30:01.828125,0.40
11:30:01.843750,0.44
11:30:01.859375,0.49
11:30:01.875000,0.54
11:30:01.890625,0.58
11:30:01.906250,0.64
11:30:01.921875,0.69
11:30:01.937500,0.75
11:30:01.953125,0.81
11:30:01.968750,0.88
11:30:01.984375,0.96
11:30:02,1.04
11:30:02.015625,1.13
11:30:02.031250,1.24
11:30:02.046875,1.35
11:30:02.062500,1.48
11:30:02.078125,1.62
11:30:02.093750,1.79
11:30:02.109375,1.97
11:30:02.125000,2.17
11:30:02.140625,2.39
11:30:02.156250,2.64
11:30:02.171875,2.91
11:30:02.187500,3.21
11:30:02.203125,3.54
11:30:02.218750,3.91
11:30:02.234375,4.30
11:30:02.250000,4.74
11:30:02.265625,5.20
11:30:02.281250,5.71
11:30:02.296875,6.25
11:30:02.312500,6.83
11:30:02.328125,7.46
11:30:02.343750,8.13
11:30:02.359375,8.84
11:30:02.375000,9.60
11:30:02.390625,10.40
11:30:02.406250,11.25
11:30:02.421875,12.14
11:30:02.437500,13.08
11:30:02.453125,14.07
11:30:02.468750,15.13
11:30:02.484375,16.24
11:30:02.500000,17.42
11:30:02.515625,18.65
11:30:02.531250,19.93
11:30:02.546875,21.21
11:30:02.562500,22.45
11:30:02.578125,23.56
11:30:02.593750,24.43
11:30:02.609375,24.93
11:30:02.625000,24.90
11:30:02.640625,24.24
11:30:02.656250,22.86
11:30:02.671875,20.73
11:30:02.687500,17.88
11:30:02.703125,14.39
11:30:02.718750,10.33
11:30:02.734375,5.87
11:30:02.750000,1.16
11:30:02.765625,-3.59
11:30:02.781250,-8.19
11:30:02.796875,-12.41
11:30:02.812500,-16.08
11:30:02.828125,-19.04
11:30:02.843750,-21.20
11:30:02.859375,-22.56
11:30:02.875000,-23.20
11:30:02.890625,-23.27
11:30:02.906250,-22.92
11:30:02.921875,-22.30
11:30:02.937500,-21.51
11:30:02.953125,-20.56
11:30:02.968750,-19.45
11:30:02.984375,-18.19
11:30:03,-16.81
11:30:03.015625,-15.44
11:30:03.031250,-14.24
11:30:03.046875,-13.36
11:30:03.062500,-12.87
11:30:03.078125,-12.68
11:30:03.093750,-12.61
11:30:03.109375,-12.40
11:30:03.125000,-11.90
11:30:03.140625,-11.11
11:30:03.156250,-10.21
11:30:03.171875,-9.55
11:30:03.187500,-9.42
11:30:03.203125,-9.97
11:30:03.218750,-11.08
11:30:03.234375,-12.38
11:30:03.250000,-13.44
11:30:03.265625,-13.94
11:30:03.281250,-13.88
11:30:03.296875,-13.59
11:30:03.312500,-13.65
11:30:03.328125,-14.57
11:30:03.343750,-16.59
11:30:03.359375,-19.50
11:30:03.375000,-22.74
11:30:03.390625,-25.69
11:30:03.406250,-27.89
11:30:03.421875,-29.29
11:30:03.437500,-30.24
11:30:03.453125,-31.35
11:30:03.468750,-33.25
11:30:03.484375,-36.48
11:30:03.500000,-41.49
11:30:03.515625,-48.43
11:30:03.531250,-56.90
11:30:03.546875,-65.54
11:30:03.562500,-72.15
11:30:03.578125,-74.16
11:30:03.593750,-69.68
11:30:03.609375,-58.33
11:30:03.625000,-41.61
11:30:03.640625,-22.45
11:30:03.656250,-4.01
11:30:03.671875,11.46
11:30:03.687500,23.25
11:30:03.703125,31.97
11:30:03.718750,39.09
11:30:03.734375,45.32
11:30:03.750000,50.71
11:30:03.765625,54.84
11:30:03.781250,57.26
11:30:03.796875,57.89
11:30:03.812500,57.18
11:30:03.828125,55.83
11:30:03.843750,54.33
11:30:03.859375,52.76
11:30:03.875000,50.73
11:30:03.890625,47.76
11:30:03.906250,43.59
11:30:03.921875,38.43
11:30:03.937500,32.91
11:30:03.953125,27.91
11:30:03.968750,24.16
11:30:03.984375,21.92
11:30:04,20.91
11:30:04.015625,20.39
11:30:04.031250,19.61
11:30:04.046875,18.13
11:30:04.062500,15.91
11:30:04.078125,13.34
11:30:04.093750,10.92
11:30:04.109375,8.95
11:30:04.125000,7.38
11:30:04.140625,5.86
11:30:04.156250,3.93
11:30:04.171875,1.36
11:30:04.187500,-1.73
11:30:04.203125,-4.95
11:30:04.218750,-7.81
11:30:04.234375,-10.01
11:30:04.250000,-11.55
11:30:04.265625,-12.77
11:30:04.281250,-14.09
11:30:04.296875,-15.90
11:30:04.312500,-18.32
11:30:04.328125,-21.18
11:30:04.343750,-24.03
11:30:04.359375,-26.26
11:30:04.375000,-27.26
11:30:04.390625,-26.56
11:30:04.406250,-23.96
11:30:04.421875,-19.58
11:30:04.437500,-13.85
11:30:04.453125,-7.37
11:30:04.468750,-0.76
11:30:04.484375,5.43
11:30:04.500000,10.84
11:30:04.515625,15.26
11:30:04.531250,18.61
11:30:04.546875,20.88
11:30:04.562500,22.09
11:30:04.578125,22.31
11:30:04.593750,21.67
11:30:04.609375,20.37
11:30:04.625000,18.70
11:30:04.640625,16.99
11:30:04.656250,15.54
11:30:04.671875,14.51
11:30:04.687500,13.89
11:30:04.703125,13.48
11:30:04.718750,13.05
11:30:04.734375,12.39
11:30:04.750000,11.46
11:30:04.765625,10.37
11:30:04.781250,9.28
11:30:04.796875,8.34
11:30:04.812500,7.57
11:30:04.828125,6.86
11:30:04.843750,6.07
11:30:04.859375,5.06
11:30:04.875000,3.74
11:30:04.890625,2.08
11:30:04.906250,0.10
11:30:04.921875,-2.18
11:30:04.937500,-4.64
11:30:04.953125,-7.15
11:30:04.968750,-9.51
11:30:04.984375,-11.64
11:30:05,-13.49
11:30:05.015625,-15.20
11:30:05.031250,-16.95
11:30:05.046875,-18.91
11:30:05.062500,-21.11
11:30:05.078125,-23.29
11:30:05.093750,-25.01
11:30:05.109375,-25.69
11:30:05.125000,-24.83
11:30:05.140625,-22.18
11:30:05.156250,-17.84
11:30:05.171875,-12.21
11:30:05.187500,-5.88
11:30:05.203125,0.48
11:30:05.218750,6.32
11:30:05.234375,11.29
11:30:05.250000,15.18
11:30:05.265625,17.97
11:30:05.281250,19.72
11:30:05.296875,20.54
11:30:05.312500,20.54
11:30:05.328125,19.83
11:30:05.343750,18.53
11:30:05.359375,16.84
11:30:05.375000,15.01
11:30:05.390625,13.31
11:30:05.406250,11.93
11:30:05.421875,10.84
11:30:05.437500,9.93
11:30:05.453125,9.05
11:30:05.468750,8.12
11:30:05.484375,7.22
11:30:05.500000,6.47
11:30:05.515625,5.95
11:30:05.531250,5.53
11:30:05.546875,5.02
11:30:05.562500,4.20
11:30:05.578125,3.02
11:30:05.593750,1.56
11:30:05.609375,-0.04
11:30:05.625000,-1.66
11:30:05.640625,-3.30
11:30:05.656250,-4.98
11:30:05.671875,-6.68
11:30:05.687500,-8.32
11:30:05.703125,-9.77
11:30:05.718750,-10.98
11:30:05.734375,-12.01
11:30:05.750000,-13.10
11:30:05.765625,-14.48
11:30:05.781250,-16.26
11:30:05.796875,-18.36
11:30:05.812500,-20.45
11:30:05.828125,-22.03
11:30:05.843750,-22.56
11:30:05.859375,-21.60
11:30:05.875000,-18.93
11:30:05.890625,-14.62
11:30:05.906250,-9.07
11:30:05.921875,-2.89
11:30:05.937500,3.21
11:30:05.953125,8.61
11:30:05.968750,12.89
11:30:05.984375,15.93
11:30:06,17.86
11:30:06.015625,18.94
11:30:06.031250,19.44
11:30:06.046875,19.54
11:30:06.062500,19.30
11:30:06.078125,18.70
11:30:06.093750,17.68
11:30:06.109375,16.33
11:30:06.125000,14.81
11:30:06.140625,13.35
11:30:06.156250,12.18
11:30:06.171875,11.47
11:30:06.187500,11.24
11:30:06.203125,11.40
11:30:06.218750,11.75
11:30:06.234375,12.04
11:30:06.250000,12.11
11:30:06.265625,11.81
11:30:06.281250,11.16
11:30:06.296875,10.16
11:30:06.312500,8.85
11:30:06.328125,7.27
11:30:06.343750,5.46
11:30:06.359375,3.52
11:30:06.375000,1.66
11:30:06.390625,0.08
11:30:06.406250,-1.10
11:30:06.421875,-1.96
11:30:06.437500,-2.74
11:30:06.453125,-3.78
11:30:06.468750,-5.39
11:30:06.484375,-7.63
11:30:06.500000,-10.38
11:30:06.515625,-13.28
11:30:06.531250,-15.88
11:30:06.546875,-17.81
11:30:06.562500,-18.76
11:30:06.578125,-18.53
11:30:06.593750,-17.06
11:30:06.609375,-14.35
11:30:06.625000,-10.52
11:30:06.640625,-5.84
11:30:06.656250,-0.69
11:30:06.671875,4.51
11:30:06.687500,9.31
11:30:06.703125,13.37
11:30:06.718750,16.46
11:30:06.734375,18.39
11:30:06.750000,19.10
11:30:06.765625,18.62
11:30:06.781250,17.13
11:30:06.796875,14.96
11:30:06.812500,12.58
11:30:06.828125,10.43
11:30:06.843750,8.76
11:30:06.859375,7.61
11:30:06.875000,6.73
11:30:06.890625,5.89
11:30:06.906250,4.94
11:30:06.921875,3.92
11:30:06.937500,2.98
11:30:06.953125,2.27
11:30:06.968750,1.75
11:30:06.984375,1.23
11:30:07,0.40
11:30:07.015625,-0.93
11:30:07.031250,-2.73
11:30:07.046875,-4.80
11:30:07.062500,-6.81
11:30:07.078125,-8.50
11:30:07.093750,-9.80
11:30:07.109375,-10.84
11:30:07.125000,-11.88
11:30:07.140625,-13.18
11:30:07.156250,-14.91
11:30:07.171875,-17.06
11:30:07.187500,-19.46
11:30:07.203125,-21.83
11:30:07.218750,-23.90
11:30:07.234375,-25.41
11:30:07.250000,-26.16
11:30:07.265625,-25.98
11:30:07.281250,-24.72
11:30:07.296875,-22.35
11:30:07.312500,-18.93
11:30:07.328125,-14.73
11:30:07.343750,-10.11
11:30:07.359375,-5.55
11:30:07.375000,-1.46
11:30:07.390625,1.93
11:30:07.406250,4.52
11:30:07.421875,6.38
11:30:07.437500,7.58
11:30:07.453125,8.19
11:30:07.468750,8.20
11:30:07.484375,7.60
11:30:07.500000,6.43
11:30:07.515625,4.87
11:30:07.531250,3.21
11:30:07.546875,1.73
11:30:07.562500,0.65
11:30:07.578125,0.01
11:30:07.593750,-0.32
11:30:07.609375,-0.51
11:30:07.625000,-0.69
11:30:07.640625,-0.95
11:30:07.656250,-1.23
11:30:07.671875,-1.53
11:30:07.687500,-1.85
11:30:07.703125,-2.28
11:30:07.718750,-2.92
11:30:07.734375,-3.91
11:30:07.750000,-5.30
11:30:07.765625,-7.06
11:30:07.781250,-9.06
11:30:07.796875,-11.13
11:30:07.812500,-13.14
11:30:07.828125,-15.00
11:30:07.843750,-16.80
11:30:07.859375,-18.65
11:30:07.875000,-20.68
11:30:07.890625,-22.83
11:30:07.906250,-24.88
11:30:07.921875,-26.43
11:30:07.937500,-27.00
11:30:07.953125,-26.22
11:30:07.968750,-23.89
11:30:07.984375,-20.12
11:30:08,-15.28
11:30:08.015625,-9.90
11:30:08.031250,-4.52
11:30:08.046875,0.43
11:30:08.062500,4.71
11:30:08.078125,8.21
11:30:08.093750,10.89
11:30:08.109375,12.74
11:30:08.125000,13.71
11:30:08.140625,13.82
11:30:08.156250,13.27
11:30:08.171875,12.36
11:30:08.187500,11.45
11:30:08.203125,10.77
11:30:08.218750,10.29
11:30:08.234375,9.83
11:30:08.250000,9.15
11:30:08.265625,8.15
11:30:08.281250,6.92
11:30:08.296875,5.71
11:30:08.312500,4.71
11:30:08.328125,4.03
11:30:08.343750,3.59
11:30:08.359375,3.22
11:30:08.375000,2.78
11:30:08.390625,2.14
11:30:08.406250,1.22
11:30:08.421875,-0.04
11:30:08.437500,-1.69
11:30:08.453125,-3.73
11:30:08.468750,-6.04
11:30:08.484375,-8.35
11:30:08.500000,-10.39
11:30:08.515625,-11.99
11:30:08.531250,-13.24
11:30:08.546875,-14.43
11:30:08.562500,-15.97
11:30:08.578125,-18.08
11:30:08.593750,-20.65
11:30:08.609375,-23.22
11:30:08.625000,-25.07
11:30:08.640625,-25.56
11:30:08.656250,-24.29
11:30:08.671875,-21.25
11:30:08.687500,-16.77
11:30:08.703125,-11.32
11:30:08.718750,-5.47
11:30:08.734375,0.30
11:30:08.750000,5.55
11:30:08.765625,9.90
11:30:08.781250,13.09
11:30:08.796875,15.00
11:30:08.812500,15.73
11:30:08.828125,15.58
11:30:08.843750,14.92
11:30:08.859375,14.10
11:30:08.875000,13.33
11:30:08.890625,12.65
11:30:08.906250,12.00
11:30:08.921875,11.33
11:30:08.937500,10.65
11:30:08.953125,10.05
11:30:08.968750,9.59
11:30:08.984375,9.25
11:30:09,8.93
11:30:09.015625,8.51
11:30:09.031250,7.94
11:30:09.046875,7.20
11:30:09.062500,6.35
11:30:09.078125,5.38
11:30:09.093750,4.16
11:30:09.109375,2.55
11:30:09.125000,0.46
11:30:09.140625,-1.97
11:30:09.156250,-4.41
11:30:09.171875,-6.45
11:30:09.187500,-7.86
11:30:09.203125,-8.69
11:30:09.218750,-9.26
11:30:09.234375,-10.01
11:30:09.250000,-11.28
11:30:09.265625,-13.22
11:30:09.281250,-15.70
11:30:09.296875,-18.41
11:30:09.312500,-20.90
11:30:09.328125,-22.69
11:30:09.343750,-23.27
11:30:09.359375,-22.31
11:30:09.375000,-19.62
11:30:09.390625,-15.30
11:30:09.406250,-9.80
11:30:09.421875,-3.73
11:30:09.437500,2.22
11:30:09.453125,7.57
11:30:09.468750,12.10
11:30:09.484375,15.84
11:30:09.500000,18.86
11:30:09.515625,21.13
11:30:09.531250,22.46
11:30:09.546875,22.59
11:30:09.562500,21.44
11:30:09.578125,19.29
11:30:09.593750,16.82
11:30:09.609375,14.82
11:30:09.625000,13.86
11:30:09.640625,13.97
11:30:09.656250,14.63
11:30:09.671875,15.08
11:30:09.687500,14.78
11:30:09.703125,13.69
11:30:09.718750,12.32
11:30:09.734375,11.35
11:30:09.750000,11.21
11:30:09.765625,11.83
11:30:09.781250,12.70
11:30:09.796875,13.17
11:30:09.812500,12.84
11:30:09.828125,11.71
11:30:09.843750,10.17
11:30:09.859375,8.66
11:30:09.875000,7.42
11:30:09.890625,6.36
11:30:09.906250,5.18
11:30:09.921875,3.51
11:30:09.937500,1.17
11:30:09.953125,-1.77
11:30:09.968750,-5.05
11:30:09.984375,-8.27
11:30:10,-11.05
11:30:10.015625,-13.02
11:30:10.031250,-13.95
11:30:10.046875,-13.64
11:30:10.062500,-12.01
11:30:10.078125,-9.08
11:30:10.093750,-5.07
11:30:10.109375,-0.31
11:30:10.125000,4.68
11:30:10.140625,9.40
11:30:10.156250,13.42
11:30:10.171875,16.53
11:30:10.187500,18.76
11:30:10.203125,20.28
11:30:10.218750,21.31
11:30:10.234375,21.91
11:30:10.250000,22.01
11:30:10.265625,21.48
11:30:10.281250,20.30
11:30:10.296875,18.64
11:30:10.312500,16.82
11:30:10.328125,15.22
11:30:10.343750,14.02
11:30:10.359375,13.22
11:30:10.375000,12.62
11:30:10.390625,12.01
11:30:10.406250,11.24
11:30:10.421875,10.24
11:30:10.437500,9.05
11:30:10.453125,7.69
11:30:10.468750,6.25
11:30:10.484375,4.80
11:30:10.500000,3.47
11:30:10.515625,2.33
11:30:10.531250,1.40
11:30:10.546875,0.53
11:30:10.562500,-0.48
11:30:10.578125,-1.82
11:30:10.593750,-3.55
11:30:10.609375,-5.54
11:30:10.625000,-7.56
11:30:10.640625,-9.44
11:30:10.656250,-11.17
11:30:10.671875,-12.95
11:30:10.687500,-15.05
11:30:10.703125,-17.61
11:30:10.718750,-20.52
11:30:10.734375,-23.32
11:30:10.750000,-25.35
11:30:10.765625,-25.93
11:30:10.781250,-24.65
11:30:10.796875,-21.49
11:30:10.812500,-16.88
11:30:10.828125,-11.53
11:30:10.843750,-6.27
11:30:10.859375,-1.73
11:30:10.875000,1.73
11:30:10.890625,4.10
11:30:10.906250,5.62
11:30:10.921875,6.60
11:30:10.937500,7.26
11:30:10.953125,7.63
11:30:10.968750,7.62
11:30:10.984375,7.15
11:30:11,6.16
11:30:11.015625,4.80
11:30:11.031250,3.28
11:30:11.046875,1.80
11:30:11.062500,0.46
11:30:11.078125,-0.76
11:30:11.093750,-1.94
11:30:11.109375,-3.13
11:30:11.125000,-4.20
11:30:11.140625,-4.98
11:30:11.156250,-5.31
11:30:11.171875,-5.21
11:30:11.187500,-4.89
11:30:11.203125,-4.72
11:30:11.218750,-5.03
11:30:11.234375,-5.99
11:30:11.250000,-7.54
11:30:11.265625,-9.40
11:30:11.281250,-11.21
11:30:11.296875,-12.74
11:30:11.312500,-13.91
11:30:11.328125,-14.87
11:30:11.343750,-15.89
11:30:11.359375,-17.17
11:30:11.375000,-18.76
11:30:11.390625,-20.53
11:30:11.406250,-22.23
11:30:11.421875,-23.54
11:30:11.437500,-24.16
11:30:11.453125,-23.79
11:30:11.468750,-22.19
11:30:11.484375,-19.21
11:30:11.500000,-14.91
11:30:11.515625,-9.62
11:30:11.531250,-3.95
11:30:11.546875,1.42
11:30:11.562500,5.87
11:30:11.578125,9.08
11:30:11.593750,11.09
11:30:11.609375,12.17
11:30:11.625000,12.65
11:30:11.640625,12.74
11:30:11.656250,12.49
11:30:11.671875,11.91
11:30:11.687500,11.09
11:30:11.703125,10.20
11:30:11.718750,9.49
11:30:11.734375,9.16
11:30:11.750000,9.26
11:30:11.765625,9.67
11:30:11.781250,10.17
11:30:11.796875,10.55
11:30:11.812500,10.74
11:30:11.828125,10.79
11:30:11.843750,10.82
11:30:11.859375,10.90
11:30:11.875000,10.99
11:30:11.890625,10.99
11:30:11.906250,10.76
11:30:11.921875,10.25
11:30:11.937500,9.45
11:30:11.953125,8.40
11:30:11.968750,7.11
11:30:11.984375,5.60
11:30:12,3.89
11:30:12.015625,2.09
11:30:12.031250,0.33
11:30:12.046875,-1.35
11:30:12.062500,-2.89
11:30:12.078125,-4.32
11:30:12.093750,-5.54
11:30:12.109375,-6.25
11:30:12.125000,-5.98
11:30:12.140625,-4.27
11:30:12.156250,-0.94
11:30:12.171875,3.78
11:30:12.187500,9.28
11:30:12.203125,14.84
11:30:12.218750,19.88
11:30:12.234375,24.05
11:30:12.250000,27.25
11:30:12.265625,29.43
11:30:12.281250,30.56
11:30:12.296875,30.65
11:30:12.312500,29.86
11:30:12.328125,28.50
11:30:12.343750,26.95
11:30:12.359375,25.52
11:30:12.375000,24.27
11:30:12.390625,23.09
11:30:12.406250,21.80
11:30:12.421875,20.33
11:30:12.437500,18.80
11:30:12.453125,17.43
11:30:12.468750,16.42
11:30:12.484375,15.83
11:30:12.500000,15.54
11:30:12.515625,15.29
11:30:12.531250,14.82
11:30:12.546875,13.87
11:30:12.562500,12.30
11:30:12.578125,10.08
11:30:12.593750,7.36
11:30:12.609375,4.36
11:30:12.625000,1.35
11:30:12.640625,-1.49
11:30:12.656250,-4.20
11:30:12.671875,-7.03
11:30:12.687500,-10.29
11:30:12.703125,-14.24
11:30:12.718750,-18.93
11:30:12.734375,-24.31
11:30:12.750000,-30.15
11:30:12.765625,-36.14
11:30:12.781250,-41.91
11:30:12.796875,-46.96
11:30:12.812500,-50.71
11:30:12.828125,-52.59
11:30:12.843750,-52.32
11:30:12.859375,-49.99
11:30:12.875000,-46.09
11:30:12.890625,-41.34
11:30:12.906250,-36.39
11:30:12.921875,-31.66
11:30:12.937500,-27.27
11:30:12.953125,-23.20
11:30:12.968750,-19.42
11:30:12.984375,-16.04
11:30:13,-13.19
11:30:13.015625,-11.02
11:30:13.031250,-9.47
11:30:13.046875,-8.37
11:30:13.062500,-7.44
11:30:13.078125,-6.40
11:30:13.093750,-5.12
11:30:13.109375,-3.60
11:30:13.125000,-2.01
11:30:13.140625,-0.58
11:30:13.156250,0.53
11:30:13.171875,1.27
11:30:13.187500,1.80
11:30:13.203125,2.34
11:30:13.218750,3.12
11:30:13.234375,4.12
11:30:13.250000,5.18
11:30:13.265625,5.97
11:30:13.281250,6.17
11:30:13.296875,5.66
11:30:13.312500,4.52
11:30:13.328125,3.02
11:30:13.343750,1.40
11:30:13.359375,-0.18
11:30:13.375000,-1.74
11:30:13.390625,-3.37
11:30:13.406250,-5.17
11:30:13.421875,-7.17
11:30:13.437500,-9.33
11:30:13.453125,-11.59
11:30:13.468750,-13.83
11:30:13.484375,-15.83
11:30:13.500000,-17.28
11:30:13.515625,-17.79
11:30:13.531250,-17.03
11:30:13.546875,-14.85
11:30:13.562500,-11.40
11:30:13.578125,-7.11
11:30:13.593750,-2.54
11:30:13.609375,1.81
11:30:13.625000,5.61
11:30:13.640625,8.74
11:30:13.656250,11.20
11:30:13.671875,12.94
11:30:13.687500,13.88
11:30:13.703125,13.90
11:30:13.718750,13.04
11:30:13.734375,11.49
11:30:13.750000,9.62
11:30:13.765625,7.85
11:30:13.781250,6.42
11:30:13.796875,5.37
11:30:13.812500,4.55
11:30:13.828125,3.71
11:30:13.843750,2.65
11:30:13.859375,1.40
11:30:13.875000,0.14
11:30:13.890625,-0.89
11:30:13.906250,-1.54
11:30:13.921875,-1.82
11:30:13.937500,-1.96
11:30:13.953125,-2.25
11:30:13.968750,-2.95
11:30:13.984375,-4.14
11:30:14,-5.73
11:30:14.015625,-7.46
11:30:14.031250,-9.13
11:30:14.046875,-10.61
11:30:14.062500,-11.98
11:30:14.078125,-13.41
11:30:14.093750,-15.11
11:30:14.109375,-17.21
11:30:14.125000,-19.68
11:30:14.140625,-22.44
11:30:14.156250,-25.24
11:30:14.171875,-27.81
11:30:14.187500,-29.78
11:30:14.203125,-30.78
11:30:14.218750,-30.49
11:30:14.234375,-28.73
11:30:14.250000,-25.56
11:30:14.265625,-21.20
11:30:14.281250,-16.05
11:30:14.296875,-10.52
11:30:14.312500,-5.00
11:30:14.328125,0.20
11:30:14.343750,4.77
11:30:14.359375,8.44
11:30:14.375000,10.98
11:30:14.390625,12.29
11:30:14.406250,12.47
11:30:14.421875,11.83
11:30:14.437500,10.83
11:30:14.453125,9.95
11:30:14.468750,9.56
11:30:14.484375,9.84
11:30:14.500000,10.69
11:30:14.515625,11.83
11:30:14.531250,12.91
11:30:14.546875,13.66
11:30:14.562500,13.99
11:30:14.578125,14.01
11:30:14.593750,13.92
11:30:14.609375,13.83
11:30:14.625000,13.75
11:30:14.640625,13.48
11:30:14.656250,12.82
11:30:14.671875,11.66
11:30:14.687500,10.09
11:30:14.703125,8.35
11:30:14.718750,6.67
11:30:14.734375,5.17
11:30:14.750000,3.77
11:30:14.765625,2.29
11:30:14.781250,0.57
11:30:14.796875,-1.45
11:30:14.812500,-3.68
11:30:14.828125,-5.97
11:30:14.843750,-8.09
11:30:14.859375,-9.75
11:30:14.875000,-10.58
11:30:14.890625,-10.15
11:30:14.906250,-8.08
11:30:14.921875,-4.23
11:30:14.937500,1.20
11:30:14.953125,7.68
11:30:14.968750,14.47
11:30:14.984375,20.79
11:30:15,26.13
11:30:15.015625,30.27
11:30:15.031250,33.26
11:30:15.046875,35.27
11:30:15.062500,36.51
11:30:15.078125,37.02
11:30:15.093750,36.80
11:30:15.109375,35.72
11:30:15.125000,33.67
11:30:15.140625,30.59
11:30:15.156250,26.49
11:30:15.171875,21.52
11:30:15.187500,16.02
11:30:15.203125,10.42
11:30:15.218750,5.23
11:30:15.234375,0.87
11:30:15.250000,-2.40
11:30:15.265625,-4.58
11:30:15.281250,-5.84
11:30:15.296875,-6.45
11:30:15.312500,-6.73
11:30:15.328125,-6.94
11:30:15.343750,-7.30
11:30:15.359375,-8.08
11:30:15.375000,-9.48
11:30:15.390625,-11.61
11:30:15.406250,-14.43
11:30:15.421875,-17.61
11:30:15.437500,-20.78
11:30:15.453125,-23.53
11:30:15.468750,-25.68
11:30:15.484375,-27.23
11:30:15.500000,-28.34
11:30:15.515625,-29.13
11:30:15.531250,-29.53
11:30:15.546875,-29.33
11:30:15.562500,-28.21
11:30:15.578125,-25.90
11:30:15.593750,-22.32
11:30:15.609375,-17.66
11:30:15.625000,-12.41
11:30:15.640625,-7.18
11:30:15.656250,-2.59
11:30:15.671875,0.92
11:30:15.687500,3.14
11:30:15.703125,4.09
11:30:15.718750,3.96
11:30:15.734375,3.01
11:30:15.750000,1.43
11:30:15.765625,-0.64
11:30:15.781250,-3.12
11:30:15.796875,-5.85
11:30:15.812500,-8.64
11:30:15.828125,-11.18
11:30:15.843750,-13.26
11:30:15.859375,-14.76
11:30:15.875000,-15.71
11:30:15.890625,-16.26
11:30:15.906250,-16.56
11:30:15.921875,-16.64
11:30:15.937500,-16.37
11:30:15.953125,-15.52
11:30:15.968750,-13.80
11:30:15.984375,-11.08
11:30:16,-7.43
11:30:16.015625,-3.20
11:30:16.031250,1.06
11:30:16.046875,4.74
11:30:16.062500,7.36
11:30:16.078125,8.75
11:30:16.093750,9.03
11:30:16.109375,8.55
11:30:16.125000,7.72
11:30:16.140625,6.83
11:30:16.156250,5.90
11:30:16.171875,4.71
11:30:16.187500,2.89
11:30:16.203125,0.11
11:30:16.218750,-3.75
11:30:16.234375,-8.47
11:30:16.250000,-13.49
11:30:16.265625,-18.04
11:30:16.281250,-21.34
11:30:16.296875,-22.77
11:30:16.312500,-22.09
11:30:16.328125,-19.45
11:30:16.343750,-15.40
11:30:16.359375,-10.70
11:30:16.375000,-6.20
11:30:16.390625,-2.62
11:30:16.406250,-0.38
11:30:16.421875,0.45
11:30:16.437500,0.21
11:30:16.453125,-0.48
11:30:16.468750,-0.98
11:30:16.484375,-0.83
11:30:16.500000,0.09
11:30:16.515625,1.55
11:30:16.531250,3.11
11:30:16.546875,4.36
11:30:16.562500,5.05
11:30:16.578125,5.17
11:30:16.593750,4.79
11:30:16.609375,4.07
11:30:16.625000,3.11
11:30:16.640625,2.05
11:30:16.656250,1.12
11:30:16.671875,0.56
11:30:16.687500,0.66
11:30:16.703125,1.53
11:30:16.718750,3.06
11:30:16.734375,4.92
11:30:16.750000,6.59
11:30:16.765625,7.59
11:30:16.781250,7.60
11:30:16.796875,6.53
11:30:16.812500,4.57
11:30:16.828125,2.11
11:30:16.843750,-0.42
11:30:16.859375,-2.58
11:30:16.875000,-4.02
11:30:16.890625,-4.52
11:30:16.906250,-3.96
11:30:16.921875,-2.37
11:30:16.937500,0.07
11:30:16.953125,3.00
11:30:16.968750,5.94
11:30:16.984375,8.39
11:30:17,9.98
11:30:17.015625,10.57
11:30:17.031250,10.32
11:30:17.046875,9.62
11:30:17.062500,9.02
11:30:17.078125,9.07
11:30:17.093750,10.15
11:30:17.109375,12.39
11:30:17.125000,15.54
11:30:17.140625,19.04
11:30:17.156250,22.17
11:30:17.171875,24.23
11:30:17.187500,24.75
11:30:17.203125,23.72
11:30:17.218750,21.49
11:30:17.234375,18.73
11:30:17.250000,16.23
11:30:17.265625,14.73
11:30:17.281250,14.75
11:30:17.296875,16.47
11:30:17.312500,19.61
11:30:17.328125,23.50
11:30:17.343750,27.20
11:30:17.359375,29.70
11:30:17.375000,30.22
11:30:17.390625,28.39
11:30:17.406250,24.29
11:30:17.421875,18.36
11:30:17.437500,11.31
11:30:17.453125,3.90
11:30:17.468750,-3.12
11:30:17.484375,-9.10
11:30:17.500000,-13.58
11:30:17.515625,-16.28
11:30:17.531250,-17.14
11:30:17.546875,-16.31
11:30:17.562500,-14.09
11:30:17.578125,-10.86
11:30:17.593750,-7.10
11:30:17.609375,-3.36
11:30:17.625000,-0.24
11:30:17.640625,1.65
11:30:17.656250,1.93
11:30:17.671875,0.60
11:30:17.687500,-1.83
11:30:17.703125,-4.42
11:30:17.718750,-6.10
11:30:17.734375,-5.98
11:30:17.750000,-3.75
11:30:17.765625,0.29
11:30:17.781250,5.33
11:30:17.796875,10.38
11:30:17.812500,14.60
11:30:17.828125,17.42
11:30:17.843750,18.65
11:30:17.859375,18.19
11:30:17.875000,16.04
11:30:17.890625,12.30
11:30:17.906250,7.23
11:30:17.921875,1.42
11:30:17.937500,-4.34
11:30:17.953125,-9.27
11:30:17.968750,-12.86
11:30:17.984375,-15.11
11:30:18,-16.50
11:30:18.015625,-17.67
11:30:18.031250,-19.08
11:30:18.046875,-20.68
11:30:18.062500,-22.00
11:30:18.078125,-22.32
11:30:18.093750,-21.10
11:30:18.109375,-18.30
11:30:18.125000,-14.37
11:30:18.140625,-10.16
11:30:18.156250,-6.57
11:30:18.171875,-4.35
11:30:18.187500,-3.90
11:30:18.203125,-5.23
11:30:18.218750,-7.97
11:30:18.234375,-11.48
11:30:18.250000,-14.93
11:30:18.265625,-17.45
11:30:18.281250,-18.32
11:30:18.296875,-17.14
11:30:18.312500,-13.94
11:30:18.328125,-9.17
11:30:18.343750,-3.51
11:30:18.359375,2.34
11:30:18.375000,7.87
11:30:18.390625,12.74
11:30:18.406250,16.80
11:30:18.421875,19.95
11:30:18.437500,22.05
11:30:18.453125,23.03
11:30:18.468750,22.85
11:30:18.484375,21.64
11:30:18.500000,19.64
11:30:18.515625,17.19
11:30:18.531250,14.59
11:30:18.546875,12.07
11:30:18.562500,9.83
11:30:18.578125,7.99
11:30:18.593750,6.65
11:30:18.609375,5.81
11:30:18.625000,5.32
11:30:18.640625,4.97
11:30:18.656250,4.46
11:30:18.671875,3.49
11:30:18.687500,1.88
11:30:18.703125,-0.46
11:30:18.718750,-3.50
11:30:18.734375,-7.11
11:30:18.750000,-11.07
11:30:18.765625,-15.05
11:30:18.781250,-18.67
11:30:18.796875,-21.63
11:30:18.812500,-23.73
11:30:18.828125,-24.95
11:30:18.843750,-25.49
11:30:18.859375,-25.63
11:30:18.875000,-25.60
11:30:18.890625,-25.43
11:30:18.906250,-24.93
11:30:18.921875,-23.74
11:30:18.937500,-21.52
11:30:18.953125,-18.12
11:30:18.968750,-13.74
11:30:18.984375,-8.85
11:30:19,-4.01
11:30:19.015625,0.23
11:30:19.031250,3.56
11:30:19.046875,5.90
11:30:19.062500,7.34
11:30:19.078125,8.11
11:30:19.093750,8.50
11:30:19.109375,8.82
11:30:19.125000,9.37
11:30:19.140625,10.36
11:30:19.156250,11.85
11:30:19.171875,13.68
11:30:19.187500,15.57
11:30:19.203125,17.20
11:30:19.218750,18.33
11:30:19.234375,18.78
11:30:19.250000,18.45
11:30:19.265625,17.25
11:30:19.281250,15.11
11:30:19.296875,12.06
11:30:19.312500,8.38
11:30:19.328125,4.55
11:30:19.343750,1.24
11:30:19.359375,-1.04
11:30:19.375000,-2.08
11:30:19.390625,-2.08
11:30:19.406250,-1.57
11:30:19.421875,-1.12
11:30:19.437500,-1.17
11:30:19.453125,-1.84
11:30:19.468750,-3.08
11:30:19.484375,-4.78
11:30:19.500000,-6.94
11:30:19.515625,-9.67
11:30:19.531250,-13.01
11:30:19.546875,-16.81
11:30:19.562500,-20.55
11:30:19.578125,-23.53
11:30:19.593750,-25.07
11:30:19.609375,-24.76
11:30:19.625000,-22.60
11:30:19.640625,-19.01
11:30:19.656250,-14.60
11:30:19.671875,-9.90
11:30:19.687500,-5.23
11:30:19.703125,-0.73
11:30:19.718750,3.64
11:30:19.734375,7.83
11:30:19.750000,11.65
11:30:19.765625,14.85
11:30:19.781250,17.16
11:30:19.796875,18.41
11:30:19.812500,18.60
11:30:19.828125,17.90
11:30:19.843750,16.63
11:30:19.859375,15.16
11:30:19.875000,13.86
11:30:19.890625,12.99
11:30:19.906250,12.65
11:30:19.921875,12.77
11:30:19.937500,13.14
11:30:19.953125,13.49
11:30:19.968750,13.60
11:30:19.984375,13.30
11:30:20,12.48
11:30:20.015625,11.06
11:30:20.031250,9.01
11:30:20.046875,6.35
11:30:20.062500,3.25
11:30:20.078125,-0.02
11:30:20.093750,-3.13
11:30:20.109375,-5.83
11:30:20.125000,-7.99
11:30:20.140625,-9.62
11:30:20.156250,-10.70
11:30:20.171875,-11.07
11:30:20.187500,-10.51
11:30:20.203125,-8.78
11:30:20.218750,-5.80
11:30:20.234375,-1.79
11:30:20.250000,2.79
11:30:20.265625,7.27
11:30:20.281250,11.07
11:30:20.296875,13.73
11:30:20.312500,15.04
11:30:20.328125,15.03
11:30:20.343750,13.86
11:30:20.359375,11.86
11:30:20.375000,9.40
11:30:20.390625,6.87
11:30:20.406250,4.66
11:30:20.421875,3.07
11:30:20.437500,2.33
11:30:20.453125,2.50
11:30:20.468750,3.52
11:30:20.484375,5.17
11:30:20.500000,7.14
11:30:20.515625,9.03
11:30:20.531250,10.48
11:30:20.546875,11.17
11:30:20.562500,10.92
11:30:20.578125,9.66
11:30:20.593750,7.41
11:30:20.609375,4.34
11:30:20.625000,0.67
11:30:20.640625,-3.27
11:30:20.656250,-7.18
11:30:20.671875,-10.74
11:30:20.687500,-13.66
11:30:20.703125,-15.73
11:30:20.718750,-16.76
11:30:20.734375,-16.72
11:30:20.750000,-15.70
11:30:20.765625,-13.99
11:30:20.781250,-11.97
11:30:20.796875,-9.96
11:30:20.812500,-8.11
11:30:20.828125,-6.28
11:30:20.843750,-4.18
11:30:20.859375,-1.49
11:30:20.875000,1.87
11:30:20.890625,5.74
11:30:20.906250,9.73
11:30:20.921875,13.45
11:30:20.937500,16.71
11:30:20.953125,19.59
11:30:20.968750,22.33
11:30:20.984375,25.22
11:30:21,28.45
11:30:21.015625,32.12
11:30:21.031250,36.27
11:30:21.046875,40.88
11:30:21.062500,45.89
11:30:21.078125,51.16
11:30:21.093750,56.36
11:30:21.109375,61.06
11:30:21.125000,64.79
11:30:21.140625,67.19
11:30:21.156250,68.07
11:30:21.171875,67.43
11:30:21.187500,65.49
11:30:21.203125,62.57
11:30:21.218750,58.98
11:30:21.234375,55.08
11:30:21.250000,51.12
11:30:21.265625,47.29
11:30:21.281250,43.69
11:30:21.296875,40.37
11:30:21.312500,37.34
11:30:21.328125,34.62
11:30:21.343750,32.21
11:30:21.359375,30.05
11:30:21.375000,28.02
11:30:21.390625,25.93
11:30:21.406250,23.60
11:30:21.421875,20.98
11:30:21.437500,18.21
11:30:21.453125,15.61
11:30:21.468750,13.55
11:30:21.484375,12.35
11:30:21.500000,12.16
11:30:21.515625,12.88
11:30:21.531250,14.20
11:30:21.546875,15.57
11:30:21.562500,16.41
11:30:21.578125,16.14
11:30:21.593750,14.37
11:30:21.609375,10.90
11:30:21.625000,5.71
11:30:21.640625,-1.05
11:30:21.656250,-9.13
11:30:21.671875,-18.22
11:30:21.687500,-27.99
11:30:21.703125,-38.16
11:30:21.718750,-48.60
11:30:21.734375,-59.35
11:30:21.750000,-70.50
11:30:21.765625,-82.04
11:30:21.781250,-93.56
11:30:21.796875,-104.19
11:30:21.812500,-112.84
11:30:21.828125,-118.47
11:30:21.843750,-120.52
11:30:21.859375,-119.15
11:30:21.875000,-115.12
11:30:21.890625,-109.48
11:30:21.906250,-103.20
11:30:21.921875,-96.92
11:30:21.937500,-90.96
11:30:21.953125,-85.42
11:30:21.968750,-80.47
11:30:21.984375,-76.32
11:30:22,-73.23
11:30:22.015625,-71.17
11:30:22.031250,-69.79
11:30:22.046875,-68.41
11:30:22.062500,-66.16
11:30:22.078125,-62.32
11:30:22.093750,-56.56
11:30:22.109375,-49.05
11:30:22.125000,-40.36
11:30:22.140625,-31.23
11:30:22.156250,-22.30
11:30:22.171875,-14.00
11:30:22.187500,-6.50
11:30:22.203125,0.17
11:30:22.218750,5.97
11:30:22.234375,10.89
11:30:22.250000,14.85
11:30:22.265625,17.84
11:30:22.281250,19.92
11:30:22.296875,21.24
11:30:22.312500,22.06
11:30:22.328125,22.64
11:30:22.343750,23.26
11:30:22.359375,24.12
11:30:22.375000,25.36
11:30:22.390625,27.03
11:30:22.406250,29.03
11:30:22.421875,31.18
11:30:22.437500,33.20
11:30:22.453125,34.89
11:30:22.468750,36.11
11:30:22.484375,36.90
11:30:22.500000,37.31
11:30:22.515625,37.49
11:30:22.531250,37.48
11:30:22.546875,37.28
11:30:22.562500,36.84
11:30:22.578125,36.04
11:30:22.593750,34.70
11:30:22.609375,32.60
11:30:22.625000,29.57
11:30:22.640625,25.58
11:30:22.656250,20.88
11:30:22.671875,16.08
11:30:22.687500,12.03
11:30:22.703125,9.58
11:30:22.718750,9.24
11:30:22.734375,11.02
11:30:22.750000,14.41
11:30:22.765625,18.58
11:30:22.781250,22.69
11:30:22.796875,26.09
11:30:22.812500,28.44
11:30:22.828125,29.66
11:30:22.843750,29.85
11:30:22.859375,29.21
11:30:22.875000,28.00
11:30:22.890625,26.47
11:30:22.906250,24.87
11:30:22.921875,23.32
11:30:22.937500,21.78
11:30:22.953125,20.13
11:30:22.968750,18.18
11:30:22.984375,15.83
11:30:23,13.04
11:30:23.015625,9.80
11:30:23.031250,6.05
11:30:23.046875,1.71
11:30:23.062500,-3.33
11:30:23.078125,-9.09
11:30:23.093750,-15.42
11:30:23.109375,-22.08
11:30:23.125000,-28.88
11:30:23.140625,-35.72
11:30:23.156250,-42.68
11:30:23.171875,-49.81
11:30:23.187500,-57.06
11:30:23.203125,-64.15
11:30:23.218750,-70.60
11:30:23.234375,-75.86
11:30:23.250000,-79.49
11:30:23.265625,-81.25
11:30:23.281250,-81.05
11:30:23.296875,-78.88
11:30:23.312500,-74.77
11:30:23.328125,-68.71
11:30:23.343750,-60.83
11:30:23.359375,-51.41
11:30:23.375000,-40.99
11:30:23.390625,-30.24
11:30:23.406250,-19.87
11:30:23.421875,-10.40
11:30:23.437500,-2.15
11:30:23.453125,4.81
11:30:23.468750,10.54
11:30:23.484375,15.14
11:30:23.500000,18.70
11:30:23.515625,21.22
11:30:23.531250,22.74
11:30:23.546875,23.30
11:30:23.562500,23.07
11:30:23.578125,22.27
11:30:23.593750,21.18
11:30:23.609375,20.12
11:30:23.625000,19.23
11:30:23.640625,18.65
11:30:23.656250,18.34
11:30:23.671875,18.20
11:30:23.687500,18.08
11:30:23.703125,17.77
11:30:23.718750,17.10
11:30:23.734375,15.92
11:30:23.750000,14.18
11:30:23.765625,11.92
11:30:23.781250,9.31
11:30:23.796875,6.52
11:30:23.812500,3.69
11:30:23.828125,0.77
11:30:23.843750,-2.44
11:30:23.859375,-6.21
11:30:23.875000,-10.72
11:30:23.890625,-15.88
11:30:23.906250,-21.26
11:30:23.921875,-26.15
11:30:23.937500,-29.71
11:30:23.953125,-31.23
11:30:23.968750,-30.38
11:30:23.984375,-27.26
11:30:24,-22.41
11:30:24.015625,-16.62
11:30:24.031250,-10.66
11:30:24.046875,-5.16
11:30:24.062500,-0.52
11:30:24.078125,3.07
11:30:24.093750,5.53
11:30:24.109375,6.91
11:30:24.125000,7.29
11:30:24.140625,6.95
11:30:24.156250,6.24
11:30:24.171875,5.51
11:30:24.187500,5.06
11:30:24.203125,5.02
11:30:24.218750,5.37
11:30:24.234375,5.96
11:30:24.250000,6.69
11:30:24.265625,7.49
11:30:24.281250,8.31
11:30:24.296875,9.10
11:30:24.312500,9.69
11:30:24.328125,9.90
11:30:24.343750,9.52
11:30:24.359375,8.47
11:30:24.375000,6.80
11:30:24.390625,4.71
11:30:24.406250,2.36
11:30:24.421875,-0.14
11:30:24.437500,-2.77
11:30:24.453125,-5.62
11:30:24.468750,-8.76
11:30:24.484375,-12.16
11:30:24.500000,-15.57
11:30:24.515625,-18.61
11:30:24.531250,-20.80
11:30:24.546875,-21.70
11:30:24.562500,-21.05
11:30:24.578125,-18.87
11:30:24.593750,-15.40
11:30:24.609375,-11.03
11:30:24.625000,-6.19
11:30:24.640625,-1.16
11:30:24.656250,3.87
11:30:24.671875,8.73
11:30:24.687500,13.22
11:30:24.703125,17.09
11:30:24.718750,20.06
11:30:24.734375,21.95
11:30:24.750000,22.76
11:30:24.765625,22.67
11:30:24.781250,21.90
11:30:24.796875,20.67
11:30:24.812500,19.07
11:30:24.828125,17.18
11:30:24.843750,15.06
11:30:24.859375,12.90
11:30:24.875000,10.90
11:30:24.890625,9.20
11:30:24.906250,7.84
11:30:24.921875,6.69
11:30:24.937500,5.58
11:30:24.953125,4.34
11:30:24.968750,2.92
11:30:24.984375,1.31
11:30:25,-0.41
11:30:25.015625,-2.23
11:30:25.031250,-4.17
11:30:25.046875,-6.29
11:30:25.062500,-8.66
11:30:25.078125,-11.31
11:30:25.093750,-14.20
11:30:25.109375,-17.24
11:30:25.125000,-20.31
11:30:25.140625,-23.35
11:30:25.156250,-26.26
11:30:25.171875,-28.91
11:30:25.187500,-30.91
11:30:25.203125,-31.66
11:30:25.218750,-30.45
11:30:25.234375,-26.77
11:30:25.250000,-20.62
11:30:25.265625,-12.62
11:30:25.281250,-3.86
11:30:25.296875,4.48
11:30:25.312500,11.49
11:30:25.328125,16.76
11:30:25.343750,20.39
11:30:25.359375,22.79
11:30:25.375000,24.44
11:30:25.390625,25.68
11:30:25.406250,26.69
11:30:25.421875,27.48
11:30:25.437500,27.96
11:30:25.453125,28.02
11:30:25.468750,27.58
11:30:25.484375,26.64
11:30:25.500000,25.33
11:30:25.515625,23.82
11:30:25.531250,22.30
11:30:25.546875,20.84
11:30:25.562500,19.41
11:30:25.578125,17.91
11:30:25.593750,16.26
11:30:25.609375,14.37
11:30:25.625000,12.21
11:30:25.640625,9.72
11:30:25.656250,6.92
11:30:25.671875,3.82
11:30:25.687500,0.47
11:30:25.703125,-3.03
11:30:25.718750,-6.63
11:30:25.734375,-10.32
11:30:25.750000,-14.16
11:30:25.765625,-18.16
11:30:25.781250,-22.24
11:30:25.796875,-26.16
11:30:25.812500,-29.56
11:30:25.828125,-31.93
11:30:25.843750,-32.75
11:30:25.859375,-31.63
11:30:25.875000,-28.36
11:30:25.890625,-23.04
11:30:25.906250,-16.08
11:30:25.921875,-8.15
11:30:25.937500,-0.01
11:30:25.953125,7.61
11:30:25.968750,14.17
11:30:25.984375,19.38
11:30:26,23.14
11:30:26.015625,25.54
11:30:26.031250,26.75
11:30:26.046875,27.03
11:30:26.062500,26.65
11:30:26.078125,25.88
11:30:26.093750,24.90
11:30:26.109375,23.84
11:30:26.125000,22.70
11:30:26.140625,21.45
11:30:26.156250,20.05
11:30:26.171875,18.51
11:30:26.187500,16.87
11:30:26.203125,15.21
11:30:26.218750,13.63
11:30:26.234375,12.19
11:30:26.250000,10.89
11:30:26.265625,9.72
11:30:26.281250,8.60
11:30:26.296875,7.39
11:30:26.312500,5.93
11:30:26.328125,4.05
11:30:26.343750,1.68
11:30:26.359375,-1.16
11:30:26.375000,-4.34
11:30:26.390625,-7.66
11:30:26.406250,-11.01
11:30:26.421875,-14.35
11:30:26.437500,-17.78
11:30:26.453125,-21.37
11:30:26.468750,-25.08
11:30:26.484375,-28.56
11:30:26.500000,-31.27
11:30:26.515625,-32.53
11:30:26.531250,-31.76
11:30:26.546875,-28.68
11:30:26.562500,-23.39
11:30:26.578125,-16.36
11:30:26.593750,-8.33
11:30:26.609375,-0.12
11:30:26.625000,7.58
11:30:26.640625,14.24
11:30:26.656250,19.60
11:30:26.671875,23.57
11:30:26.687500,26.23
11:30:26.703125,27.74
11:30:26.718750,28.32
11:30:26.734375,28.24
11:30:26.750000,27.74
11:30:26.765625,27.05
11:30:26.781250,26.27
11:30:26.796875,25.42
11:30:26.812500,24.44
11:30:26.828125,23.27
11:30:26.843750,21.97
11:30:26.859375,20.69
11:30:26.875000,19.62
11:30:26.890625,18.88
11:30:26.906250,18.45
11:30:26.921875,18.13
11:30:26.937500,17.59
11:30:26.953125,16.55
11:30:26.968750,14.83
11:30:26.984375,12.41
11:30:27,9.45
11:30:27.015625,6.13
11:30:27.031250,2.69
11:30:27.046875,-0.77
11:30:27.062500,-4.17
11:30:27.078125,-7.56
11:30:27.093750,-10.98
11:30:27.109375,-14.53
11:30:27.125000,-18.32
11:30:27.140625,-22.37
11:30:27.156250,-26.63
11:30:27.171875,-30.76
11:30:27.187500,-34.21
11:30:27.203125,-36.27
11:30:27.218750,-36.26
11:30:27.234375,-33.88
11:30:27.250000,-29.27
11:30:27.265625,-23.01
11:30:27.281250,-15.92
11:30:27.296875,-8.76
11:30:27.312500,-2.08
11:30:27.328125,3.89
11:30:27.343750,9.04
11:30:27.359375,13.31
11:30:27.375000,16.61
11:30:27.390625,18.84
11:30:27.406250,20.03
11:30:27.421875,20.41
11:30:27.437500,20.32
11:30:27.453125,20.11
11:30:27.468750,19.99
11:30:27.484375,19.96
11:30:27.500000,19.89
11:30:27.515625,19.63
11:30:27.531250,19.11
11:30:27.546875,18.42
11:30:27.562500,17.68
11:30:27.578125,16.97
11:30:27.593750,16.29
11:30:27.609375,15.59
11:30:27.625000,14.73
11:30:27.640625,13.68
11:30:27.656250,12.40
11:30:27.671875,10.86
11:30:27.687500,9.04
11:30:27.703125,6.89
11:30:27.718750,4.45
11:30:27.734375,1.84
11:30:27.750000,-0.73
11:30:27.765625,-3.07
11:30:27.781250,-5.14
11:30:27.796875,-7.10
11:30:27.812500,-9.23
11:30:27.828125,-11.78
11:30:27.843750,-14.77
11:30:27.859375,-17.94
11:30:27.875000,-20.79
11:30:27.890625,-22.68
11:30:27.906250,-23.00
11:30:27.921875,-21.30
11:30:27.937500,-17.40
11:30:27.953125,-11.42
11:30:27.968750,-3.85
11:30:27.984375,4.53
11:30:28,12.83
11:30:28.015625,20.21
11:30:28.031250,26.15
11:30:28.046875,30.50
11:30:28.062500,33.42
11:30:28.078125,35.14
11:30:28.093750,35.88
11:30:28.109375,35.73
11:30:28.125000,34.73
11:30:28.140625,33.02
11:30:28.156250,30.91
11:30:28.171875,28.78
11:30:28.187500,26.98
11:30:28.203125,25.64
11:30:28.218750,24.70
11:30:28.234375,23.92
11:30:28.250000,23.11
11:30:28.265625,22.13
11:30:28.281250,21.01
11:30:28.296875,19.78
11:30:28.312500,18.45
11:30:28.328125,16.94
11:30:28.343750,15.09
11:30:28.359375,12.77
11:30:28.375000,9.98
11:30:28.390625,6.82
11:30:28.406250,3.45
11:30:28.421875,0.03
11:30:28.437500,-3.33
11:30:28.453125,-6.63
11:30:28.468750,-9.90
11:30:28.484375,-13.23
11:30:28.500000,-16.71
11:30:28.515625,-20.33
11:30:28.531250,-24.04
11:30:28.546875,-27.60
11:30:28.562500,-30.65
11:30:28.578125,-32.68
11:30:28.593750,-33.16
11:30:28.609375,-31.68
11:30:28.625000,-28.08
11:30:28.640625,-22.61
11:30:28.656250,-15.88
11:30:28.671875,-8.73
11:30:28.687500,-1.94
11:30:28.703125,3.92
11:30:28.718750,8.61
11:30:28.734375,12.12
11:30:28.750000,14.59
11:30:28.765625,16.15
11:30:28.781250,16.89
11:30:28.796875,16.86
11:30:28.812500,16.14
11:30:28.828125,14.96
11:30:28.843750,13.56
11:30:28.859375,12.22
11:30:28.875000,11.08
11:30:28.890625,10.20
11:30:28.906250,9.52
11:30:28.921875,8.95
11:30:28.937500,8.44
11:30:28.953125,7.93
11:30:28.968750,7.36
11:30:28.984375,6.64
11:30:29,5.65
11:30:29.015625,4.27
11:30:29.031250,2.40
11:30:29.046875,0.05
11:30:29.062500,-2.67
11:30:29.078125,-5.58
11:30:29.093750,-8.42
11:30:29.109375,-11.06
11:30:29.125000,-13.44
11:30:29.140625,-15.68
11:30:29.156250,-18.05
11:30:29.171875,-20.80
11:30:29.187500,-23.98
11:30:29.203125,-27.30
11:30:29.218750,-30.16
11:30:29.234375,-31.82
11:30:29.250000,-31.65
11:30:29.265625,-29.34
11:30:29.281250,-24.99
11:30:29.296875,-19.04
11:30:29.312500,-12.09
11:30:29.328125,-4.78
11:30:29.343750,2.29
11:30:29.359375,8.58
11:30:29.375000,13.70
11:30:29.390625,17.38
11:30:29.406250,19.57
11:30:29.421875,20.48
11:30:29.437500,20.49
11:30:29.453125,20.00
11:30:29.468750,19.29
11:30:29.484375,18.48
11:30:29.500000,17.48
11:30:29.515625,16.18
11:30:29.531250,14.52
11:30:29.546875,12.58
11:30:29.562500,10.54
11:30:29.578125,8.63
11:30:29.593750,6.99
11:30:29.609375,5.62
11:30:29.625000,4.37
11:30:29.640625,3.02
11:30:29.656250,1.39
11:30:29.671875,-0.57
11:30:29.687500,-2.74
11:30:29.703125,-4.92
11:30:29.718750,-6.96
11:30:29.734375,-8.76
11:30:29.750000,-10.39
11:30:29.765625,-12.00
11:30:29.781250,-13.78
11:30:29.796875,-15.99
11:30:29.812500,-18.90
11:30:29.828125,-22.68
11:30:29.843750,-27.31
11:30:29.859375,-32.49
11:30:29.875000,-37.55
11:30:29.890625,-41.61
11:30:29.906250,-43.78
11:30:29.921875,-43.45
11:30:29.937500,-40.43
11:30:29.953125,-34.99
11:30:29.968750,-27.77
11:30:29.984375,-19.58
11:30:30,-11.25
11:30:30.015625,-3.48
11:30:30.031250,3.17
11:30:30.046875,8.43
11:30:30.062500,12.22
11:30:30.078125,14.66
11:30:30.093750,16.03
11:30:30.109375,16.62
11:30:30.125000,16.68
11:30:30.140625,16.40
11:30:30.156250,15.81
11:30:30.171875,14.92
11:30:30.187500,13.72
11:30:30.203125,12.28
11:30:30.218750,10.69
11:30:30.234375,9.11
11:30:30.250000,7.67
11:30:30.265625,6.42
11:30:30.281250,5.36
11:30:30.296875,4.40
11:30:30.312500,3.40
11:30:30.328125,2.23
11:30:30.343750,0.74
11:30:30.359375,-1.19
11:30:30.375000,-3.58
11:30:30.390625,-6.39
11:30:30.406250,-9.46
11:30:30.421875,-12.61
11:30:30.437500,-15.65
11:30:30.453125,-18.50
11:30:30.468750,-21.23
11:30:30.484375,-23.98
11:30:30.500000,-26.96
11:30:30.515625,-30.26
11:30:30.531250,-33.71
11:30:30.546875,-36.88
11:30:30.562500,-39.05
11:30:30.578125,-39.45
11:30:30.593750,-37.42
11:30:30.609375,-32.72
11:30:30.625000,-25.59
11:30:30.640625,-16.70
11:30:30.656250,-7.04
11:30:30.671875,2.43
11:30:30.687500,10.97
11:30:30.703125,18.16
11:30:30.718750,23.83
11:30:30.734375,27.99
11:30:30.750000,30.73
11:30:30.765625,32.17
11:30:30.781250,32.53
11:30:30.796875,32.07
11:30:30.812500,31.13
11:30:30.828125,30.00
11:30:30.843750,28.87
11:30:30.859375,27.79
11:30:30.875000,26.70
11:30:30.890625,25.51
11:30:30.906250,24.19
11:30:30.921875,22.74
11:30:30.937500,21.20
11:30:30.953125,19.60
11:30:30.968750,17.93
11:30:30.984375,16.19
11:30:31,14.36
11:30:31.015625,12.44
11:30:31.031250,10.44
11:30:31.046875,8.35
11:30:31.062500,6.21
11:30:31.078125,4.09
11:30:31.093750,2.15
11:30:31.109375,0.51
11:30:31.125000,-0.83
11:30:31.140625,-2.08
11:30:31.156250,-3.67
11:30:31.171875,-6.06
11:30:31.187500,-9.55
11:30:31.203125,-14.01
11:30:31.218750,-18.91
11:30:31.234375,-23.35
11:30:31.250000,-26.43
11:30:31.265625,-27.46
11:30:31.281250,-26.16
11:30:31.296875,-22.71
11:30:31.312500,-17.66
11:30:31.328125,-11.78
11:30:31.343750,-5.80
11:30:31.359375,-0.29
11:30:31.375000,4.43
11:30:31.390625,8.32
11:30:31.406250,11.51
11:30:31.421875,14.16
11:30:31.437500,16.41
11:30:31.453125,18.27
11:30:31.468750,19.74
11:30:31.484375,20.75
11:30:31.500000,21.34
11:30:31.515625,21.52
11:30:31.531250,21.30
11:30:31.546875,20.63
11:30:31.562500,19.38
11:30:31.578125,17.45
11:30:31.593750,14.83
11:30:31.609375,11.69
11:30:31.625000,8.33
11:30:31.640625,5.16
11:30:31.656250,2.56
11:30:31.671875,0.79
11:30:31.687500,-0.13
11:30:31.703125,-0.38
11:30:31.718750,-0.26
11:30:31.734375,-0.05
11:30:31.750000,0.02
11:30:31.765625,-0.15
11:30:31.781250,-0.67
11:30:31.796875,-1.63
11:30:31.812500,-3.24
11:30:31.828125,-5.62
11:30:31.843750,-8.81
11:30:31.859375,-12.69
11:30:31.875000,-17.01
11:30:31.890625,-21.53
11:30:31.906250,-26.06
11:30:31.921875,-30.41
11:30:31.937500,-34.27
11:30:31.953125,-37.13
11:30:31.968750,-38.32
11:30:31.984375,-37.19
11:30:32,-33.45
11:30:32.015625,-27.30
11:30:32.031250,-19.38
11:30:32.046875,-10.58
11:30:32.062500,-1.71
11:30:32.078125,6.63
11:30:32.093750,14.07
11:30:32.109375,20.35
11:30:32.125000,25.16
11:30:32.140625,28.21
11:30:32.156250,29.22
11:30:32.171875,28.24
11:30:32.187500,25.61
11:30:32.203125,22.01
11:30:32.218750,18.23
11:30:32.234375,14.97
11:30:32.250000,12.66
11:30:32.265625,11.44
11:30:32.281250,11.18
11:30:32.296875,11.58
11:30:32.312500,12.27
11:30:32.328125,12.85
11:30:32.343750,12.93
11:30:32.359375,12.20
11:30:32.375000,10.50
11:30:32.390625,7.95
11:30:32.406250,4.87
11:30:32.421875,1.73
11:30:32.437500,-0.95
11:30:32.453125,-2.86
11:30:32.468750,-3.85
11:30:32.484375,-4.06
11:30:32.500000,-3.77
11:30:32.515625,-3.42
11:30:32.531250,-3.43
11:30:32.546875,-4.19
11:30:32.562500,-5.98
11:30:32.578125,-8.82
11:30:32.593750,-12.54
11:30:32.609375,-16.73
11:30:32.625000,-20.84
11:30:32.640625,-24.28
11:30:32.656250,-26.48
11:30:32.671875,-27.03
11:30:32.687500,-25.69
11:30:32.703125,-22.51
11:30:32.718750,-17.77
11:30:32.734375,-12.02
11:30:32.750000,-5.97
11:30:32.765625,-0.35
11:30:32.781250,4.27
11:30:32.796875,7.53
11:30:32.812500,9.37
11:30:32.828125,10.03
11:30:32.843750,9.97
11:30:32.859375,9.67
11:30:32.875000,9.52
11:30:32.890625,9.68
11:30:32.906250,10.09
11:30:32.921875,10.55
11:30:32.937500,10.86
11:30:32.953125,11.02
11:30:32.968750,11.16
11:30:32.984375,11.47
11:30:33,12.03
11:30:33.015625,12.70
11:30:33.031250,13.16
11:30:33.046875,12.99
11:30:33.062500,11.84
11:30:33.078125,9.60
11:30:33.093750,6.43
11:30:33.109375,2.65
11:30:33.125000,-1.27
11:30:33.140625,-4.91
11:30:33.156250,-7.94
11:30:33.171875,-10.18
11:30:33.187500,-11.61
11:30:33.203125,-12.37
11:30:33.218750,-12.72
11:30:33.234375,-13.09
11:30:33.250000,-13.96
11:30:33.265625,-15.72
11:30:33.281250,-18.57
11:30:33.296875,-22.32
11:30:33.312500,-26.41
11:30:33.328125,-29.92
11:30:33.343750,-31.86
11:30:33.359375,-31.48
11:30:33.375000,-28.51
11:30:33.390625,-23.28
11:30:33.406250,-16.54
11:30:33.421875,-9.26
11:30:33.437500,-2.26
11:30:33.453125,3.86
11:30:33.468750,8.77
11:30:33.484375,12.27
11:30:33.500000,14.21
11:30:33.515625,14.52
11:30:33.531250,13.27
11:30:33.546875,10.83
11:30:33.562500,7.86
11:30:33.578125,5.16
11:30:33.593750,3.37
11:30:33.609375,2.76
11:30:33.625000,3.14
11:30:33.640625,3.96
11:30:33.656250,4.63
11:30:33.671875,4.75
11:30:33.687500,4.22
11:30:33.703125,3.21
11:30:33.718750,2.02
11:30:33.734375,0.86
11:30:33.750000,-0.23
11:30:33.765625,-1.34
11:30:33.781250,-2.55
11:30:33.796875,-3.86
11:30:33.812500,-5.14
11:30:33.828125,-6.22
11:30:33.843750,-6.99
11:30:33.859375,-7.49
11:30:33.875000,-7.98
11:30:33.890625,-8.79
11:30:33.906250,-10.23
11:30:33.921875,-12.48
11:30:33.937500,-15.47
11:30:33.953125,-18.88
11:30:33.968750,-22.26
11:30:33.984375,-24.94
11:30:34,-26.29
11:30:34.015625,-25.74
11:30:34.031250,-22.97
11:30:34.046875,-18.09
11:30:34.062500,-11.59
11:30:34.078125,-4.33
11:30:34.093750,2.80
11:30:34.109375,9.01
11:30:34.125000,13.85
11:30:34.140625,17.24
11:30:34.156250,19.31
11:30:34.171875,20.36
11:30:34.187500,20.70
11:30:34.203125,20.70
11:30:34.218750,20.75
11:30:34.234375,21.22
11:30:34.250000,22.40
11:30:34.265625,24.30
11:30:34.281250,26.64
11:30:34.296875,28.93
11:30:34.312500,30.66
11:30:34.328125,31.56
11:30:34.343750,31.68
11:30:34.359375,31.30
11:30:34.375000,30.75
11:30:34.390625,30.11
11:30:34.406250,29.19
11:30:34.421875,27.67
11:30:34.437500,25.30
11:30:34.453125,22.10
11:30:34.468750,18.37
11:30:34.484375,14.56
11:30:34.500000,11.05
11:30:34.515625,7.95
11:30:34.531250,5.13
11:30:34.546875,2.29
11:30:34.562500,-0.87
11:30:34.578125,-4.50
11:30:34.593750,-8.53
11:30:34.609375,-12.68
11:30:34.625000,-16.53
11:30:34.640625,-19.55
11:30:34.656250,-21.27
11:30:34.671875,-21.29
11:30:34.687500,-19.41
11:30:34.703125,-15.61
11:30:34.718750,-10.14
11:30:34.734375,-3.45
11:30:34.750000,3.81
11:30:34.765625,10.91
11:30:34.781250,17.17
11:30:34.796875,22.10
11:30:34.812500,25.49
11:30:34.828125,27.47
11:30:34.843750,28.34
11:30:34.859375,28.48
11:30:34.875000,28.22
11:30:34.890625,27.69
11:30:34.906250,26.88
11:30:34.921875,25.69
11:30:34.937500,24.04
11:30:34.953125,22.02
11:30:34.968750,19.84
11:30:34.984375,17.83
11:30:35,16.30
11:30:35.015625,15.35
11:30:35.031250,14.85
11:30:35.046875,14.46
11:30:35.062500,13.81
11:30:35.078125,12.65
11:30:35.093750,10.99
11:30:35.109375,9.03
11:30:35.125000,7.08
11:30:35.140625,5.37
11:30:35.156250,3.94
11:30:35.171875,2.70
11:30:35.187500,1.48
11:30:35.203125,0.12
11:30:35.218750,-1.47
11:30:35.234375,-3.38
11:30:35.250000,-5.62
11:30:35.265625,-8.22
11:30:35.281250,-11.04
11:30:35.296875,-13.80
11:30:35.312500,-16.06
11:30:35.328125,-17.27
11:30:35.343750,-16.95
11:30:35.359375,-14.87
11:30:35.375000,-11.11
11:30:35.390625,-6.03
11:30:35.406250,-0.30
11:30:35.421875,5.39
11:30:35.437500,10.45
11:30:35.453125,14.51
11:30:35.468750,17.45
11:30:35.484375,19.31
11:30:35.500000,20.24
11:30:35.515625,20.31
11:30:35.531250,19.60
11:30:35.546875,18.16
11:30:35.562500,16.20
11:30:35.578125,14.02
11:30:35.593750,11.95
11:30:35.609375,10.31
11:30:35.625000,9.16
11:30:35.640625,8.38
11:30:35.656250,7.71
11:30:35.671875,6.93
11:30:35.687500,5.93
11:30:35.703125,4.75
11:30:35.718750,3.52
11:30:35.734375,2.32
11:30:35.750000,1.14
11:30:35.765625,-0.14
11:30:35.781250,-1.66
11:30:35.796875,-3.48
11:30:35.812500,-5.60
11:30:35.828125,-7.89
11:30:35.843750,-10.25
11:30:35.859375,-12.64
11:30:35.875000,-15.09
11:30:35.890625,-17.70
11:30:35.906250,-20.57
11:30:35.921875,-23.63
11:30:35.937500,-26.64
11:30:35.953125,-29.10
11:30:35.968750,-30.41
11:30:35.984375,-30.07
11:30:36,-27.82
11:30:36.015625,-23.83
11:30:36.031250,-18.61
11:30:36.046875,-12.88
11:30:36.062500,-7.33
11:30:36.078125,-2.43
11:30:36.093750,1.53
11:30:36.109375,4.48
11:30:36.125000,6.39
11:30:36.140625,7.29
11:30:36.156250,7.29
11:30:36.171875,6.55
11:30:36.187500,5.38
11:30:36.203125,4.07
11:30:36.218750,2.83
11:30:36.234375,1.71
11:30:36.250000,0.67
11:30:36.265625,-0.36
11:30:36.281250,-1.39
11:30:36.296875,-2.33
11:30:36.312500,-3.14
11:30:36.328125,-3.77
11:30:36.343750,-4.30
11:30:36.359375,-4.81
11:30:36.375000,-5.42
11:30:36.390625,-6.21
11:30:36.406250,-7.22
11:30:36.421875,-8.51
11:30:36.437500,-10.08
11:30:36.453125,-11.91
11:30:36.468750,-13.91
11:30:36.484375,-15.97
11:30:36.500000,-18.04
11:30:36.515625,-20.17
11:30:36.531250,-22.47
11:30:36.546875,-25.03
11:30:36.562500,-27.75
11:30:36.578125,-30.28
11:30:36.593750,-32.10
11:30:36.609375,-32.62
11:30:36.625000,-31.43
11:30:36.640625,-28.43
11:30:36.656250,-23.80
11:30:36.671875,-18.02
11:30:36.687500,-11.67
11:30:36.703125,-5.31
11:30:36.718750,0.59
11:30:36.734375,5.70
11:30:36.750000,9.82
11:30:36.765625,12.86
11:30:36.781250,14.78
11:30:36.796875,15.63
11:30:36.812500,15.47
11:30:36.828125,14.52
11:30:36.843750,13.04
11:30:36.859375,11.32
11:30:36.875000,9.63
11:30:36.890625,8.13
11:30:36.906250,6.83
11:30:36.921875,5.69
11:30:36.937500,4.65
11:30:36.953125,3.65
11:30:36.968750,2.71
11:30:36.984375,1.80
11:30:37,0.82
11:30:37.015625,-0.37
11:30:37.031250,-1.95
11:30:37.046875,-4.02
11:30:37.062500,-6.51
11:30:37.078125,-9.18
11:30:37.093750,-11.72
11:30:37.109375,-13.91
11:30:37.125000,-15.73
11:30:37.140625,-17.38
11:30:37.156250,-19.27
11:30:37.171875,-21.74
11:30:37.187500,-24.89
11:30:37.203125,-28.40
11:30:37.218750,-31.61
11:30:37.234375,-33.67
11:30:37.250000,-33.89
11:30:37.265625,-31.93
11:30:37.281250,-27.96
11:30:37.296875,-22.47
11:30:37.312500,-16.12
11:30:37.328125,-9.55
11:30:37.343750,-3.24
11:30:37.359375,2.48
11:30:37.375000,7.38
11:30:37.390625,11.29
11:30:37.406250,14.12
11:30:37.421875,15.83
11:30:37.437500,16.54
11:30:37.453125,16.42
11:30:37.468750,15.73
11:30:37.484375,14.74
11:30:37.500000,13.63
11:30:37.515625,12.54
11:30:37.531250,11.47
11:30:37.546875,10.37
11:30:37.562500,9.14
11:30:37.578125,7.69
11:30:37.593750,5.98
11:30:37.609375,4.01
11:30:37.625000,1.84
11:30:37.640625,-0.41
11:30:37.656250,-2.62
11:30:37.671875,-4.72
11:30:37.687500,-6.71
11:30:37.703125,-8.66
11:30:37.718750,-10.71
11:30:37.734375,-13.01
11:30:37.750000,-15.69
11:30:37.765625,-18.80
11:30:37.781250,-22.35
11:30:37.796875,-26.32
11:30:37.812500,-30.66
11:30:37.828125,-35.31
11:30:37.843750,-40.08
11:30:37.859375,-44.60
11:30:37.875000,-48.25
11:30:37.890625,-50.26
11:30:37.906250,-49.89
11:30:37.921875,-46.68
11:30:37.937500,-40.68
11:30:37.953125,-32.44
11:30:37.968750,-22.96
11:30:37.984375,-13.31
11:30:38,-4.47
11:30:38.015625,2.93
11:30:38.031250,8.62
11:30:38.046875,12.63
11:30:38.062500,15.14
11:30:38.078125,16.40
11:30:38.093750,16.75
11:30:38.109375,16.54
11:30:38.125000,16.13
11:30:38.140625,15.85
11:30:38.156250,15.88
11:30:38.171875,16.22
11:30:38.187500,16.71
11:30:38.203125,17.15
11:30:38.218750,17.37
11:30:38.234375,17.28
11:30:38.250000,16.90
11:30:38.265625,16.31
11:30:38.281250,15.54
11:30:38.296875,14.55
11:30:38.312500,13.28
11:30:38.328125,11.69
11:30:38.343750,9.77
11:30:38.359375,7.61
11:30:38.375000,5.39
11:30:38.390625,3.27
11:30:38.406250,1.33
11:30:38.421875,-0.49
11:30:38.437500,-2.36
11:30:38.453125,-4.55
11:30:38.468750,-7.29
11:30:38.484375,-10.75
11:30:38.500000,-14.90
11:30:38.515625,-19.51
11:30:38.531250,-24.11
11:30:38.546875,-28.08
11:30:38.562500,-30.68
11:30:38.578125,-31.27
11:30:38.593750,-29.46
11:30:38.609375,-25.29
11:30:38.625000,-19.25
11:30:38.640625,-12.14
11:30:38.656250,-4.88
11:30:38.671875,1.82
11:30:38.687500,7.59
11:30:38.703125,12.37
11:30:38.718750,16.29
11:30:38.734375,19.51
11:30:38.750000,22.03
11:30:38.765625,23.75
11:30:38.781250,24.60
11:30:38.796875,24.58
11:30:38.812500,23.92
11:30:38.828125,22.94
11:30:38.843750,21.91
11:30:38.859375,21.00
11:30:38.875000,20.17
11:30:38.890625,19.22
11:30:38.906250,18.03
11:30:38.921875,16.58
11:30:38.937500,15.01
11:30:38.953125,13.57
11:30:38.968750,12.44
11:30:38.984375,11.60
11:30:39,10.87
11:30:39.015625,9.92
11:30:39.031250,8.50
11:30:39.046875,6.51
11:30:39.062500,4.06
11:30:39.078125,1.39
11:30:39.093750,-1.26
11:30:39.109375,-3.73
11:30:39.125000,-6.08
11:30:39.140625,-8.44
11:30:39.156250,-11.04
11:30:39.171875,-14.03
11:30:39.187500,-17.40
11:30:39.203125,-21.02
11:30:39.218750,-24.61
11:30:39.234375,-27.81
11:30:39.250000,-30.17
11:30:39.265625,-31.26
11:30:39.281250,-30.70
11:30:39.296875,-28.22
11:30:39.312500,-23.88
11:30:39.328125,-18.00
11:30:39.343750,-11.20
11:30:39.359375,-4.24
11:30:39.375000,2.18
11:30:39.390625,7.57
11:30:39.406250,11.69
11:30:39.421875,14.54
11:30:39.437500,16.22
11:30:39.453125,16.86
11:30:39.468750,16.62
11:30:39.484375,15.71
11:30:39.500000,14.38
11:30:39.515625,12.94
11:30:39.531250,11.63
11:30:39.546875,10.54
11:30:39.562500,9.58
11:30:39.578125,8.54
11:30:39.593750,7.25
11:30:39.609375,5.67
11:30:39.625000,3.91
11:30:39.640625,2.19
11:30:39.656250,0.71
11:30:39.671875,-0.51
11:30:39.687500,-1.55
11:30:39.703125,-2.62
11:30:39.718750,-3.86
11:30:39.734375,-5.36
11:30:39.750000,-7.03
11:30:39.765625,-8.70
11:30:39.781250,-10.18
11:30:39.796875,-11.36
11:30:39.812500,-12.26
11:30:39.828125,-13.04
11:30:39.843750,-13.87
11:30:39.859375,-14.91
11:30:39.875000,-16.23
11:30:39.890625,-17.86
11:30:39.906250,-19.75
11:30:39.921875,-21.86
11:30:39.937500,-24.05
11:30:39.953125,-25.98
11:30:39.968750,-27.10
11:30:39.984375,-26.75
11:30:40,-24.36
11:30:40.015625,-19.77
11:30:40.031250,-13.32
11:30:40.046875,-5.79
11:30:40.062500,1.85
11:30:40.078125,8.79
11:30:40.093750,14.63
11:30:40.109375,19.32
11:30:40.125000,23.10
11:30:40.140625,26.21
11:30:40.156250,28.72
11:30:40.171875,30.50
11:30:40.187500,31.39
11:30:40.203125,31.36
11:30:40.218750,30.60
11:30:40.234375,29.54
11:30:40.250000,28.53
11:30:40.265625,27.83
11:30:40.281250,27.40
11:30:40.296875,27.11
11:30:40.312500,26.82
11:30:40.328125,26.53
11:30:40.343750,26.39
11:30:40.359375,26.55
11:30:40.375000,27.07
11:30:40.390625,27.77
11:30:40.406250,28.38
11:30:40.421875,28.57
11:30:40.437500,28.17
11:30:40.453125,27.18
11:30:40.468750,25.75
11:30:40.484375,24.10
11:30:40.500000,22.33
11:30:40.515625,20.50
11:30:40.531250,18.51
11:30:40.546875,16.26
11:30:40.562500,13.63
11:30:40.578125,10.67
11:30:40.593750,7.48
11:30:40.609375,4.22
11:30:40.625000,1.06
11:30:40.640625,-1.87
11:30:40.656250,-4.45
11:30:40.671875,-6.42
11:30:40.687500,-7.37
11:30:40.703125,-6.88
11:30:40.718750,-4.61
11:30:40.734375,-0.55
11:30:40.750000,4.90
11:30:40.765625,11.08
11:30:40.781250,17.23
11:30:40.796875,22.75
11:30:40.812500,27.32
11:30:40.828125,30.84
11:30:40.843750,33.35
11:30:40.859375,34.89
11:30:40.875000,35.48
11:30:40.890625,35.16
11:30:40.906250,34.05
11:30:40.921875,32.36
11:30:40.937500,30.34
11:30:40.953125,28.21
11:30:40.968750,26.07
11:30:40.984375,23.92
11:30:41,21.67
11:30:41.015625,19.30
11:30:41.031250,16.90
11:30:41.046875,14.65
11:30:41.062500,12.77
11:30:41.078125,11.38
11:30:41.093750,10.43
11:30:41.109375,9.65
11:30:41.125000,8.68
11:30:41.140625,7.18
11:30:41.156250,4.95
11:30:41.171875,2.09
11:30:41.187500,-1.12
11:30:41.203125,-4.26
11:30:41.218750,-7.02
11:30:41.234375,-9.24
11:30:41.250000,-11.05
11:30:41.265625,-12.74
11:30:41.281250,-14.69
11:30:41.296875,-17.17
11:30:41.312500,-20.25
11:30:41.328125,-23.67
11:30:41.343750,-26.91
11:30:41.359375,-29.36
11:30:41.375000,-30.41
11:30:41.390625,-29.74
11:30:41.406250,-27.27
11:30:41.421875,-23.21
11:30:41.437500,-17.96
11:30:41.453125,-11.97
11:30:41.468750,-5.75
11:30:41.484375,0.26
11:30:41.500000,5.66
11:30:41.515625,10.17
11:30:41.531250,13.67
11:30:41.546875,16.20
11:30:41.562500,17.95
11:30:41.578125,19.13
11:30:41.593750,19.87
11:30:41.609375,20.18
11:30:41.625000,20.02
11:30:41.640625,19.32
11:30:41.656250,18.15
11:30:41.671875,16.71
11:30:41.687500,15.26
11:30:41.703125,13.98
11:30:41.718750,12.92
11:30:41.734375,12.00
11:30:41.750000,11.05
11:30:41.765625,9.92
11:30:41.781250,8.59
11:30:41.796875,7.10
11:30:41.812500,5.49
11:30:41.828125,3.77
11:30:41.843750,1.91
11:30:41.859375,-0.17
11:30:41.875000,-2.44
11:30:41.890625,-4.83
11:30:41.906250,-7.17
11:30:41.921875,-9.29
11:30:41.937500,-11.15
11:30:41.953125,-12.81
11:30:41.968750,-14.47
11:30:41.984375,-16.33
11:30:42,-18.58
11:30:42.015625,-21.25
11:30:42.031250,-24.20
11:30:42.046875,-27.09
11:30:42.062500,-29.38
11:30:42.078125,-30.55
11:30:42.093750,-30.13
11:30:42.109375,-27.98
11:30:42.125000,-24.31
11:30:42.140625,-19.63
11:30:42.156250,-14.56
11:30:42.171875,-9.71
11:30:42.187500,-5.45
11:30:42.203125,-1.97
11:30:42.218750,0.72
11:30:42.234375,2.66
11:30:42.250000,3.87
11:30:42.265625,4.40
11:30:42.281250,4.26
11:30:42.296875,3.56
11:30:42.312500,2.43
11:30:42.328125,1.04
11:30:42.343750,-0.42
11:30:42.359375,-1.80
11:30:42.375000,-2.96
11:30:42.390625,-3.80
11:30:42.406250,-4.25
11:30:42.421875,-4.32
11:30:42.437500,-4.09
11:30:42.453125,-3.74
11:30:42.468750,-3.50
11:30:42.484375,-3.61
11:30:42.500000,-4.18
11:30:42.515625,-5.22
11:30:42.531250,-6.58
11:30:42.546875,-8.05
11:30:42.562500,-9.46
11:30:42.578125,-10.77
11:30:42.593750,-12.00
11:30:42.609375,-13.28
11:30:42.625000,-14.74
11:30:42.640625,-16.45
11:30:42.656250,-18.45
11:30:42.671875,-20.80
11:30:42.687500,-23.45
11:30:42.703125,-26.20
11:30:42.718750,-28.71
11:30:42.734375,-30.47
11:30:42.750000,-30.99
11:30:42.765625,-29.93
11:30:42.781250,-27.21
11:30:42.796875,-23.08
11:30:42.812500,-17.93
11:30:42.828125,-12.20
11:30:42.843750,-6.32
11:30:42.859375,-0.63
11:30:42.875000,4.55
11:30:42.890625,8.93
11:30:42.906250,12.24
11:30:42.921875,14.36
11:30:42.937500,15.33
11:30:42.953125,15.39
11:30:42.968750,14.89
11:30:42.984375,14.14
11:30:43,13.33
11:30:43.015625,12.47
11:30:43.031250,11.52
11:30:43.046875,10.39
11:30:43.062500,9.13
11:30:43.078125,7.85
11:30:43.093750,6.69
11:30:43.109375,5.75
11:30:43.125000,5.03
11:30:43.140625,4.40
11:30:43.156250,3.65
11:30:43.171875,2.60
11:30:43.187500,1.19
11:30:43.203125,-0.54
11:30:43.218750,-2.46
11:30:43.234375,-4.41
11:30:43.250000,-6.28
11:30:43.265625,-8.06
11:30:43.281250,-9.79
11:30:43.296875,-11.62
11:30:43.312500,-13.70
11:30:43.328125,-16.14
11:30:43.343750,-18.98
11:30:43.359375,-22.12
11:30:43.375000,-25.37
11:30:43.390625,-28.43
11:30:43.406250,-30.92
11:30:43.421875,-32.36
11:30:43.437500,-32.39
11:30:43.453125,-30.75
11:30:43.468750,-27.51
11:30:43.484375,-23.06
11:30:43.500000,-17.97
11:30:43.515625,-12.89
11:30:43.531250,-8.27
11:30:43.546875,-4.34
11:30:43.562500,-1.10
11:30:43.578125,1.51
11:30:43.593750,3.48
11:30:43.609375,4.72
11:30:43.625000,5.09
11:30:43.640625,4.56
11:30:43.656250,3.30
11:30:43.671875,1.64
11:30:43.687500,-0.06
11:30:43.703125,-1.54
11:30:43.718750,-2.75
11:30:43.734375,-3.78
11:30:43.750000,-4.79
11:30:43.765625,-5.94
11:30:43.781250,-7.23
11:30:43.796875,-8.67
11:30:43.812500,-10.18
11:30:43.828125,-11.69
11:30:43.843750,-13.13
11:30:43.859375,-14.43
11:30:43.875000,-15.53
11:30:43.890625,-16.36
11:30:43.906250,-16.95
11:30:43.921875,-17.34
11:30:43.937500,-17.67
11:30:43.953125,-18.17
11:30:43.968750,-19.11
11:30:43.984375,-20.82
11:30:44,-23.54
11:30:44.015625,-27.34
11:30:44.031250,-31.97
11:30:44.046875,-36.87
11:30:44.062500,-41.21
11:30:44.078125,-44.13
11:30:44.093750,-44.90
11:30:44.109375,-43.16
11:30:44.125000,-39.02
11:30:44.140625,-32.96
11:30:44.156250,-25.72
11:30:44.171875,-18.05
11:30:44.187500,-10.56
11:30:44.203125,-3.67
11:30:44.218750,2.41
11:30:44.234375,7.58
11:30:44.250000,11.74
11:30:44.265625,14.82
11:30:44.281250,16.81
11:30:44.296875,17.76
11:30:44.312500,17.82
11:30:44.328125,17.28
11:30:44.343750,16.46
11:30:44.359375,15.66
11:30:44.375000,15.10
11:30:44.390625,14.92
11:30:44.406250,15.12
11:30:44.421875,15.69
11:30:44.437500,16.52
11:30:44.453125,17.55
11:30:44.468750,18.69
11:30:44.484375,19.86
11:30:44.500000,20.91
11:30:44.515625,21.64
11:30:44.531250,21.82
11:30:44.546875,21.29
11:30:44.562500,20.02
11:30:44.578125,18.20
11:30:44.593750,16.10
11:30:44.609375,13.98
11:30:44.625000,12.00
11:30:44.640625,10.11
11:30:44.656250,8.17
11:30:44.671875,5.94
11:30:44.687500,3.25
11:30:44.703125,0.01
11:30:44.718750,-3.77
11:30:44.734375,-7.90
11:30:44.750000,-11.99
11:30:44.765625,-15.48
11:30:44.781250,-17.75
11:30:44.796875,-18.32
11:30:44.812500,-17.06
11:30:44.828125,-14.24
11:30:44.843750,-10.47
11:30:44.859375,-6.39
11:30:44.875000,-2.47
11:30:44.890625,1.13
11:30:44.906250,4.40
11:30:44.921875,7.36
11:30:44.937500,9.93
11:30:44.953125,11.89
11:30:44.968750,13.06
11:30:44.984375,13.45
11:30:45,13.27
11:30:45.015625,12.80
11:30:45.031250,12.26
11:30:45.046875,11.65
11:30:45.062500,10.78
11:30:45.078125,9.49
11:30:45.093750,7.72
11:30:45.109375,5.70
11:30:45.125000,3.82
11:30:45.140625,2.51
11:30:45.156250,2.01
11:30:45.171875,2.29
11:30:45.187500,3.10
11:30:45.203125,3.95
11:30:45.218750,4.45
11:30:45.234375,4.26
11:30:45.250000,3.30
11:30:45.265625,1.66
11:30:45.281250,-0.49
11:30:45.296875,-2.90
11:30:45.312500,-5.37
11:30:45.328125,-7.70
11:30:45.343750,-9.82
11:30:45.359375,-11.69
11:30:45.375000,-13.41
11:30:45.390625,-15.18
11:30:45.406250,-17.21
11:30:45.421875,-19.62
11:30:45.437500,-22.24
11:30:45.453125,-24.63
11:30:45.468750,-26.09
11:30:45.484375,-26.00
11:30:45.500000,-24.02
11:30:45.515625,-20.26
11:30:45.531250,-15.19
11:30:45.546875,-9.51
11:30:45.562500,-3.84
11:30:45.578125,1.43
11:30:45.593750,6.11
11:30:45.609375,10.16
11:30:45.625000,13.54
11:30:45.640625,16.19
11:30:45.656250,18.05
11:30:45.671875,19.07
11:30:45.687500,19.32
11:30:45.703125,18.98
11:30:45.718750,18.31
11:30:45.734375,17.59
11:30:45.750000,17.07
11:30:45.765625,16.82
11:30:45.781250,16.81
11:30:45.796875,16.85
11:30:45.812500,16.75
11:30:45.828125,16.39
11:30:45.843750,15.80
11:30:45.859375,15.09
11:30:45.875000,14.40
11:30:45.890625,13.76
11:30:45.906250,13.10
11:30:45.921875,12.28
11:30:45.937500,11.24
11:30:45.953125,10.00
11:30:45.968750,8.61
11:30:45.984375,7.19
11:30:46,5.72
11:30:46.015625,4.13
11:30:46.031250,2.30
11:30:46.046875,0.15
11:30:46.062500,-2.31
11:30:46.078125,-5.01
11:30:46.093750,-7.88
11:30:46.109375,-10.86
11:30:46.125000,-13.92
11:30:46.140625,-16.92
11:30:46.156250,-19.59
11:30:46.171875,-21.49
11:30:46.187500,-22.07
11:30:46.203125,-20.91
11:30:46.218750,-17.88
11:30:46.234375,-13.24
11:30:46.250000,-7.59
11:30:46.265625,-1.74
11:30:46.281250,3.63
11:30:46.296875,8.09
11:30:46.312500,11.53
11:30:46.328125,14.04
11:30:46.343750,15.82
11:30:46.359375,16.97
11:30:46.375000,17.49
11:30:46.390625,17.36
11:30:46.406250,16.61
11:30:46.421875,15.41
11:30:46.437500,14.08
11:30:46.453125,12.93
11:30:46.468750,12.17
11:30:46.484375,11.83
11:30:46.500000,11.73
11:30:46.515625,11.65
11:30:46.531250,11.43
11:30:46.546875,11.05
11:30:46.562500,10.56
11:30:46.578125,10.05
11:30:46.593750,9.53
11:30:46.609375,8.86
11:30:46.625000,7.91
11:30:46.640625,6.66
11:30:46.656250,5.17
11:30:46.671875,3.66
11:30:46.687500,2.30
11:30:46.703125,1.15
11:30:46.718750,0.10
11:30:46.734375,-1.00
11:30:46.750000,-2.36
11:30:46.765625,-4.09
11:30:46.781250,-6.23
11:30:46.796875,-8.76
11:30:46.812500,-11.58
11:30:46.828125,-14.48
11:30:46.843750,-17.12
11:30:46.859375,-19.06
11:30:46.875000,-19.83
11:30:46.890625,-19.15
11:30:46.906250,-16.97
11:30:46.921875,-13.54
11:30:46.937500,-9.23
11:30:46.953125,-4.44
11:30:46.968750,0.46
11:30:46.984375,5.17
11:30:47,9.41
11:30:47.015625,12.88
11:30:47.031250,15.42
11:30:47.046875,17.01
11:30:47.062500,17.82
11:30:47.078125,18.16
11:30:47.093750,18.26
11:30:47.109375,18.20
11:30:47.125000,17.95
11:30:47.140625,17.42
11:30:47.156250,16.65
11:30:47.171875,15.83
11:30:47.187500,15.22
11:30:47.203125,14.96
11:30:47.218750,14.98
11:30:47.234375,15.07
11:30:47.250000,14.95
11:30:47.265625,14.50
11:30:47.281250,13.73
11:30:47.296875,12.80
11:30:47.312500,11.79
11:30:47.328125,10.75
11:30:47.343750,9.62
11:30:47.359375,8.32
11:30:47.375000,6.90
11:30:47.390625,5.45
11:30:47.406250,4.07
11:30:47.421875,2.80
11:30:47.437500,1.60
11:30:47.453125,0.32
11:30:47.468750,-1.14
11:30:47.484375,-2.88
11:30:47.500000,-4.95
11:30:47.515625,-7.31
11:30:47.531250,-9.92
11:30:47.546875,-12.60
11:30:47.562500,-15.04
11:30:47.578125,-16.82
11:30:47.593750,-17.50
11:30:47.609375,-16.76
11:30:47.625000,-14.53
11:30:47.640625,-11.04
11:30:47.656250,-6.72
11:30:47.671875,-2.10
11:30:47.687500,2.24
11:30:47.703125,5.88
11:30:47.718750,8.50
11:30:47.734375,10.00
11:30:47.750000,10.44
11:30:47.765625,10.05
11:30:47.781250,9.19
11:30:47.796875,8.17
11:30:47.812500,7.23
11:30:47.828125,6.44
11:30:47.843750,5.79
11:30:47.859375,5.21
11:30:47.875000,4.64
11:30:47.890625,4.05
11:30:47.906250,3.39
11:30:47.921875,2.64
11:30:47.937500,1.78
11:30:47.953125,0.87
11:30:47.968750,0.06
11:30:47.984375,-0.50
11:30:48,-0.75
11:30:48.015625,-0.79
11:30:48.031250,-0.92
11:30:48.046875,-1.48
11:30:48.062500,-2.72
11:30:48.078125,-4.68
11:30:48.093750,-7.20
11:30:48.109375,-10.01
11:30:48.125000,-12.90
11:30:48.140625,-15.81
11:30:48.156250,-18.85
11:30:48.171875,-22.17
11:30:48.187500,-25.92
11:30:48.203125,-30.04
11:30:48.218750,-34.26
11:30:48.234375,-38.06
11:30:48.250000,-40.84
11:30:48.265625,-41.98
11:30:48.281250,-41.04
11:30:48.296875,-37.84
11:30:48.312500,-32.45
11:30:48.328125,-25.29
11:30:48.343750,-16.96
11:30:48.359375,-8.22
11:30:48.375000,0.15
11:30:48.390625,7.41
11:30:48.406250,13.04
11:30:48.421875,16.78
11:30:48.437500,18.67
11:30:48.453125,19.04
11:30:48.468750,18.41
11:30:48.484375,17.31
11:30:48.500000,16.20
11:30:48.515625,15.38
11:30:48.531250,15.00
11:30:48.546875,15.05
11:30:48.562500,15.49
11:30:48.578125,16.25
11:30:48.593750,17.29
11:30:48.609375,18.59
11:30:48.625000,20.11
11:30:48.640625,21.76
11:30:48.656250,23.35
11:30:48.671875,24.56
11:30:48.687500,25.07
11:30:48.703125,24.64
11:30:48.718750,23.25
11:30:48.734375,21.14
11:30:48.750000,18.67
11:30:48.765625,16.23
11:30:48.781250,14.03
11:30:48.796875,12.05
11:30:48.812500,10.07
11:30:48.828125,7.82
11:30:48.843750,5.09
11:30:48.859375,1.79
11:30:48.875000,-2.02
11:30:48.890625,-6.19
11:30:48.906250,-10.47
11:30:48.921875,-14.53
11:30:48.937500,-17.93
11:30:48.953125,-20.18
11:30:48.968750,-20.86
11:30:48.984375,-19.76
11:30:49,-16.95
11:30:49.015625,-12.78
11:30:49.031250,-7.77
11:30:49.046875,-2.51
11:30:49.062500,2.50
11:30:49.078125,6.84
11:30:49.093750,10.24
11:30:49.109375,12.54
11:30:49.125000,13.69
11:30:49.140625,13.76
11:30:49.156250,12.91
11:30:49.171875,11.38
11:30:49.187500,9.44
11:30:49.203125,7.35
11:30:49.218750,5.33
11:30:49.234375,3.53
11:30:49.250000,2.07
11:30:49.265625,0.99
11:30:49.281250,0.31
11:30:49.296875,-0.05
11:30:49.312500,-0.20
11:30:49.328125,-0.35
11:30:49.343750,-0.74
11:30:49.359375,-1.53
11:30:49.375000,-2.75
11:30:49.390625,-4.28
11:30:49.406250,-5.89
11:30:49.421875,-7.35
11:30:49.437500,-8.52
11:30:49.453125,-9.47
11:30:49.468750,-10.39
11:30:49.484375,-11.50
11:30:49.500000,-12.98
11:30:49.515625,-14.86
11:30:49.531250,-17.11
11:30:49.546875,-19.68
11:30:49.562500,-22.49
11:30:49.578125,-25.45
11:30:49.593750,-28.30
11:30:49.609375,-30.67
11:30:49.625000,-32.08
11:30:49.640625,-32.04
11:30:49.656250,-30.30
11:30:49.671875,-26.89
11:30:49.687500,-22.17
11:30:49.703125,-16.72
11:30:49.718750,-11.12
11:30:49.734375,-5.87
11:30:49.750000,-1.24
11:30:49.765625,2.62
11:30:49.781250,5.71
11:30:49.796875,8.02
11:30:49.812500,9.49
11:30:49.828125,10.15
11:30:49.843750,10.03
11:30:49.859375,9.35
11:30:49.875000,8.38
11:30:49.890625,7.39
11:30:49.906250,6.50
11:30:49.921875,5.66
11:30:49.937500,4.64
11:30:49.953125,3.22
11:30:49.968750,1.37
11:30:49.984375,-0.70
11:30:50,-2.58
11:30:50.015625,-3.89
11:30:50.031250,-4.50
11:30:50.046875,-4.58
11:30:50.062500,-4.63
11:30:50.078125,-5.18
11:30:50.093750,-6.65
11:30:50.109375,-9.06
11:30:50.125000,-12.16
11:30:50.140625,-15.42
11:30:50.156250,-18.32
11:30:50.171875,-20.51
11:30:50.187500,-21.89
11:30:50.203125,-22.76
11:30:50.218750,-23.64
11:30:50.234375,-25.32
11:30:50.250000,-28.47
11:30:50.265625,-33.30
11:30:50.281250,-39.09
11:30:50.296875,-43.97
11:30:50.312500,-45.17
11:30:50.328125,-39.65
11:30:50.343750,-25.30
11:30:50.359375,-1.88
11:30:50.375000,28.57
11:30:50.390625,61.96
11:30:50.406250,93.22
11:30:50.421875,117.66
11:30:50.437500,132.02
11:30:50.453125,135.15
11:30:50.468750,128.08
11:30:50.484375,113.54
11:30:50.500000,95.35
11:30:50.515625,77.48
11:30:50.531250,63.11
11:30:50.546875,53.91
11:30:50.562500,49.65
11:30:50.578125,48.48
11:30:50.593750,47.69
11:30:50.609375,44.82
11:30:50.625000,38.37
11:30:50.640625,28.07
11:30:50.656250,14.50
11:30:50.671875,-1.49
11:30:50.687500,-19.09
11:30:50.703125,-37.65
11:30:50.718750,-56.32
11:30:50.734375,-74.06
11:30:50.750000,-89.77
11:30:50.765625,-102.61
11:30:50.781250,-112.37
11:30:50.796875,-119.35
11:30:50.812500,-124.04
11:30:50.828125,-126.67
11:30:50.843750,-127.12
11:30:50.859375,-125.03
11:30:50.875000,-120.33
11:30:50.890625,-113.52
11:30:50.906250,-105.70
11:30:50.921875,-98.20
11:30:50.937500,-91.92
11:30:50.953125,-86.95
11:30:50.968750,-82.53
11:30:50.984375,-77.43
11:30:51,-70.59
11:30:51.015625,-61.62
11:30:51.031250,-51.03
11:30:51.046875,-39.91
11:30:51.062500,-29.46
11:30:51.078125,-20.26
11:30:51.093750,-12.05
11:30:51.109375,-3.85
11:30:51.125000,5.37
11:30:51.140625,15.92
11:30:51.156250,26.93
11:30:51.171875,36.52
11:30:51.187500,42.57
11:30:51.203125,43.74
11:30:51.218750,40.24
11:30:51.234375,33.99
11:30:51.250000,28.14
11:30:51.265625,26.32
11:30:51.281250,31.64
11:30:51.296875,46.12
11:30:51.312500,69.96
11:30:51.328125,101.15
11:30:51.343750,135.19
11:30:51.359375,165.66
11:30:51.375000,185.53
11:30:51.390625,189.31
11:30:51.406250,175.01
11:30:51.421875,145.00
11:30:51.437500,105.10
11:30:51.453125,62.30
11:30:51.468750,22.21
11:30:51.484375,-12.41
11:30:51.500000,-41.44
11:30:51.515625,-66.04
11:30:51.531250,-87.14
11:30:51.546875,-104.55
11:30:51.562500,-117.05
11:30:51.578125,-123.03
11:30:51.593750,-121.02
11:30:51.609375,-110.27
11:30:51.625000,-90.63
11:30:51.640625,-62.82
11:30:51.656250,-28.62
11:30:51.671875,9.11
11:30:51.687500,46.89
11:30:51.703125,81.43
11:30:51.718750,110.48
11:30:51.734375,133.03
11:30:51.750000,148.74
11:30:51.765625,157.68
11:30:51.781250,160.16
11:30:51.796875,156.83
11:30:51.812500,149.06
11:30:51.828125,139.01
11:30:51.843750,129.24
11:30:51.859375,121.86
11:30:51.875000,117.78
11:30:51.890625,115.93
11:30:51.906250,114.52
11:30:51.921875,111.89
11:30:51.937500,106.83
11:30:51.953125,98.34
11:30:51.968750,85.64
11:30:51.984375,68.44
11:30:52,47.55
11:30:52.015625,25.10
11:30:52.031250,3.27
11:30:52.046875,-14.92
11:30:52.062500,-26.31
11:30:52.078125,-28.73
11:30:52.093750,-22.08
11:30:52.109375,-8.23
11:30:52.125000,10.02
11:30:52.140625,29.85
11:30:52.156250,48.83
11:30:52.171875,63.24
11:30:52.187500,70.57
11:30:52.203125,70.14
11:30:52.218750,62.68
11:30:52.234375,49.21
11:30:52.250000,30.45
11:30:52.265625,6.67
11:30:52.281250,-22.30
11:30:52.296875,-57.44
11:30:52.312500,-101.95
11:30:52.328125,-156.76
11:30:52.343750,-218.30
11:30:52.359375,-278.96
11:30:52.375000,-329.71
11:30:52.390625,-363.35
11:30:52.406250,-376.63
11:30:52.421875,-371.00
11:30:52.437500,-338.03
11:30:52.453125,-279.97
11:30:52.468750,-209.47
11:30:52.484375,-142.26
11:30:52.500000,-87.51
11:30:52.515625,-46.35
11:30:52.531250,-16.77
11:30:52.546875,2.18
11:30:52.562500,12.83
11:30:52.578125,16.86
11:30:52.593750,14.33
11:30:52.609375,6.88
11:30:52.625000,-2.23
11:30:52.640625,-9.69
11:30:52.656250,-13.70
11:30:52.671875,-14.49
11:30:52.687500,-13.16
11:30:52.703125,-10.29
11:30:52.718750,-5.99
11:30:52.734375,-1.49
11:30:52.750000,2.77
11:30:52.765625,7.34
11:30:52.781250,13.07
11:30:52.796875,20.02
11:30:52.812500,27.40
11:30:52.828125,34.20
11:30:52.843750,39.99
11:30:52.859375,44.46
11:30:52.875000,46.39
11:30:52.890625,44.84
11:30:52.906250,39.48
11:30:52.921875,30.36
11:30:52.937500,17.55
11:30:52.953125,1.28
11:30:52.968750,-17.41
11:30:52.984375,-36.05
11:30:53,-51.20
11:30:53.015625,-59.48
11:30:53.031250,-58.04
11:30:53.046875,-45.52
11:30:53.062500,-22.92
11:30:53.078125,6.18
11:30:53.093750,36.38
11:30:53.109375,62.04
11:30:53.125000,78.91
11:30:53.140625,84.86
11:30:53.156250,80.16
11:30:53.171875,67.29
11:30:53.187500,50.30
11:30:53.203125,33.77
11:30:53.218750,21.64
11:30:53.234375,16.38
11:30:53.250000,18.51
11:30:53.265625,26.73
11:30:53.281250,38.44
11:30:53.296875,50.53
11:30:53.312500,60.06
11:30:53.328125,64.79
11:30:53.343750,63.48
11:30:53.359375,56.04
11:30:53.375000,43.62
11:30:53.390625,28.44
11:30:53.406250,13.29
11:30:53.421875,0.76
11:30:53.437500,-7.48
11:30:53.453125,-10.98
11:30:53.468750,-10.38
11:30:53.484375,-6.94
11:30:53.500000,-1.91
11:30:53.515625,3.58
11:30:53.531250,8.57
11:30:53.546875,12.16
11:30:53.562500,13.50
11:30:53.578125,12.15
11:30:53.593750,8.30
11:30:53.609375,2.95
11:30:53.625000,-2.22
11:30:53.640625,-5.21
11:30:53.656250,-4.18
11:30:53.671875,2.35
11:30:53.687500,15.33
11:30:53.703125,35.23
11:30:53.718750,62.10
11:30:53.734375,95.56
11:30:53.750000,134.63
11:30:53.765625,177.40
11:30:53.781250,220.91
11:30:53.796875,261.32
11:30:53.812500,294.63
11:30:53.828125,317.74
11:30:53.843750,329.30
11:30:53.859375,330.12
11:30:53.875000,322.71
11:30:53.890625,310.18
11:30:53.906250,295.08
11:30:53.921875,278.70
11:30:53.937500,260.99
11:30:53.953125,241.30
11:30:53.968750,218.96
11:30:53.984375,193.82
11:30:54,166.15
11:30:54.015625,136.24
11:30:54.031250,103.95
11:30:54.046875,68.56
11:30:54.062500,29.37
11:30:54.078125,-13.45
11:30:54.093750,-58.08
11:30:54.109375,-100.92
11:30:54.125000,-137.48
11:30:54.140625,-164.16
11:30:54.156250,-179.76
11:30:54.171875,-186.20
11:30:54.187500,-187.79
11:30:54.203125,-189.47
11:30:54.218750,-195.00
11:30:54.234375,-205.93
11:30:54.250000,-221.88
11:30:54.265625,-241.59
11:30:54.281250,-263.88
11:30:54.296875,-287.70
11:30:54.312500,-311.56
11:30:54.328125,-332.79
11:30:54.343750,-347.58
11:30:54.359375,-352.21
11:30:54.375000,-344.69
11:30:54.390625,-326.00
11:30:54.406250,-300.07
11:30:54.421875,-272.29
11:30:54.437500,-247.43
11:30:54.453125,-227.84
11:30:54.468750,-213.10
11:30:54.484375,-200.93
11:30:54.500000,-188.98
11:30:54.515625,-176.34
11:30:54.531250,-163.83
11:30:54.546875,-153.23
11:30:54.562500,-145.66
11:30:54.578125,-140.50
11:30:54.593750,-135.34
11:30:54.609375,-126.87
11:30:54.625000,-112.43
11:30:54.640625,-91.06
11:30:54.656250,-63.40
11:30:54.671875,-30.90
11:30:54.687500,5.12
11:30:54.703125,43.62
11:30:54.718750,83.05
11:30:54.734375,120.46
11:30:54.750000,151.37
11:30:54.765625,170.80
11:30:54.781250,175.50
11:30:54.796875,165.74
11:30:54.812500,145.58
11:30:54.828125,121.42
11:30:54.843750,99.31
11:30:54.859375,82.75
11:30:54.875000,71.91
11:30:54.890625,64.57
11:30:54.906250,57.99
11:30:54.921875,50.58
11:30:54.937500,42.45
11:30:54.953125,34.86
11:30:54.968750,29.14
11:30:54.984375,25.83
11:30:55,24.48
11:30:55.015625,24.03
11:30:55.031250,23.51
11:30:55.046875,22.41
11:30:55.062500,20.80
11:30:55.078125,18.90
11:30:55.093750,16.61
11:30:55.109375,13.37
11:30:55.125000,8.25
11:30:55.140625,0.52
11:30:55.156250,-9.78
11:30:55.171875,-21.61
11:30:55.187500,-33.05
11:30:55.203125,-42.01
11:30:55.218750,-46.94
11:30:55.234375,-47.47
11:30:55.250000,-44.42
11:30:55.265625,-39.51
11:30:55.281250,-34.64
11:30:55.296875,-31.21
11:30:55.312500,-29.59
11:30:55.328125,-28.93
11:30:55.343750,-27.48
11:30:55.359375,-23.26
11:30:55.375000,-14.89
11:30:55.390625,-2.17
11:30:55.406250,13.76
11:30:55.421875,30.91
11:30:55.437500,47.18
11:30:55.453125,61.04
11:30:55.468750,71.81
11:30:55.484375,79.42
11:30:55.500000,84.10
11:30:55.515625,85.90
11:30:55.531250,84.76
11:30:55.546875,80.64
11:30:55.562500,73.88
11:30:55.578125,65.30
11:30:55.593750,56.01
11:30:55.609375,47.08
11:30:55.625000,39.05
11:30:55.640625,31.93
11:30:55.656250,25.27
11:30:55.671875,18.57
11:30:55.687500,11.59
11:30:55.703125,4.48
11:30:55.718750,-2.36
11:30:55.734375,-8.50
11:30:55.750000,-13.61
11:30:55.765625,-17.47
11:30:55.781250,-19.88
11:30:55.796875,-20.68
11:30:55.812500,-19.80
11:30:55.828125,-17.41
11:30:55.843750,-14.04
11:30:55.859375,-10.39
11:30:55.875000,-7.06
11:30:55.890625,-4.32
11:30:55.906250,-2.06
11:30:55.921875,0.01
11:30:55.937500,2.02
11:30:55.953125,3.75
11:30:55.968750,4.77
11:30:55.984375,4.67
11:30:56,3.46
11:30:56.015625,1.67
11:30:56.031250,0.06
11:30:56.046875,-0.67
11:30:56.062500,-0.30
11:30:56.078125,0.85
11:30:56.093750,2.08
11:30:56.109375,2.66
11:30:56.125000,2.22
11:30:56.140625,0.89
11:30:56.156250,-0.80
11:30:56.171875,-2.16
11:30:56.187500,-2.68
11:30:56.203125,-2.16
11:30:56.218750,-0.75
11:30:56.234375,1.17
11:30:56.250000,3.22
11:30:56.265625,5.11
11:30:56.281250,6.68
11:30:56.296875,7.84
11:30:56.312500,8.46
11:30:56.328125,8.36
11:30:56.343750,7.38
11:30:56.359375,5.45
11:30:56.375000,2.79
11:30:56.390625,-0.00
11:30:56.406250,-2.08
11:30:56.421875,-2.64
11:30:56.437500,-1.33
11:30:56.453125,1.46
11:30:56.468750,4.67
11:30:56.484375,6.95
11:30:56.500000,7.25
11:30:56.515625,5.26
11:30:56.531250,1.51
11:30:56.546875,-2.94
11:30:56.562500,-7.04
11:30:56.578125,-10.10
11:30:56.593750,-11.97
11:30:56.609375,-12.95
11:30:56.625000,-13.56
11:30:56.640625,-14.34
11:30:56.656250,-15.80
11:30:56.671875,-18.31
11:30:56.687500,-21.92
11:30:56.703125,-26.16
11:30:56.718750,-29.97
11:30:56.734375,-31.88
11:30:56.750000,-30.47
11:30:56.765625,-24.91
11:30:56.781250,-15.30
11:30:56.796875,-2.66
11:30:56.812500,11.48
11:30:56.828125,25.50
11:30:56.843750,38.01
11:30:56.859375,48.04
11:30:56.875000,55.04
11:30:56.890625,58.90
11:30:56.906250,60.03
11:30:56.921875,59.43
11:30:56.937500,58.52
11:30:56.953125,58.78
11:30:56.968750,61.23
11:30:56.984375,66.27
11:30:57,73.70
11:30:57.015625,82.96
11:30:57.031250,93.42
11:30:57.046875,104.38
11:30:57.062500,114.97
11:30:57.078125,124.23
11:30:57.093750,131.38
11:30:57.109375,136.04
11:30:57.125000,138.48
11:30:57.140625,139.29
11:30:57.156250,138.83
11:30:57.171875,136.71
11:30:57.187500,131.87
11:30:57.203125,123.26
11:30:57.218750,110.76
11:30:57.234375,95.77
11:30:57.250000,81.06
11:30:57.265625,69.85
11:30:57.281250,64.62
11:30:57.296875,66.28
11:30:57.312500,74.07
11:30:57.328125,86.11
11:30:57.343750,100.04
11:30:57.359375,113.56
11:30:57.375000,124.85
11:30:57.390625,132.62
11:30:57.406250,136.50
11:30:57.421875,137.23
11:30:57.437500,136.92
11:30:57.453125,138.49
11:30:57.468750,144.64
11:30:57.484375,156.58
11:30:57.500000,173.23
11:30:57.515625,191.51
11:30:57.531250,207.48
11:30:57.546875,217.86
11:30:57.562500,221.15
11:30:57.578125,217.82
11:30:57.593750,209.54
11:30:57.609375,198.21
11:30:57.625000,185.26
11:30:57.640625,171.49
11:30:57.656250,157.45
11:30:57.671875,143.78
11:30:57.687500,131.29
11:30:57.703125,120.67
11:30:57.718750,112.24
11:30:57.734375,105.74
11:30:57.750000,100.56
11:30:57.765625,95.89
11:30:57.781250,90.92
11:30:57.796875,84.92
11:30:57.812500,77.22
11:30:57.828125,67.29
11:30:57.843750,54.83
11:30:57.859375,39.78
11:30:57.875000,22.32
11:30:57.890625,2.77
11:30:57.906250,-18.58
11:30:57.921875,-41.62
11:30:57.937500,-66.35
11:30:57.953125,-92.98
11:30:57.968750,-121.85
11:30:57.984375,-153.51
11:30:58,-188.57
11:30:58.015625,-227.17
11:30:58.031250,-268.37
11:30:58.046875,-309.70
11:30:58.062500,-347.29
11:30:58.078125,-376.84
11:30:58.093750,-394.93
11:30:58.109375,-400.24
11:30:58.125000,-393.91
11:30:58.140625,-379.10
11:30:58.156250,-359.76
11:30:58.171875,-339.42
11:30:58.187500,-320.39
11:30:58.203125,-303.50
11:30:58.218750,-288.56
11:30:58.234375,-274.76
11:30:58.250000,-261.14
11:30:58.265625,-246.94
11:30:58.281250,-231.77
11:30:58.296875,-215.81
11:30:58.312500,-199.98
11:30:58.328125,-185.91
11:30:58.343750,-175.66
11:30:58.359375,-171.16
11:30:58.375000,-173.53
11:30:58.390625,-182.32
11:30:58.406250,-195.09
11:30:58.421875,-207.63
11:30:58.437500,-214.81
11:30:58.453125,-212.08
11:30:58.468750,-196.92
11:30:58.484375,-169.66
11:30:58.500000,-133.43
11:30:58.515625,-93.13
11:30:58.531250,-54.00
11:30:58.546875,-20.33
11:30:58.562500,5.24
11:30:58.578125,21.76
11:30:58.593750,29.69
11:30:58.609375,30.39
11:30:58.625000,25.82
11:30:58.640625,18.29
11:30:58.656250,10.12
11:30:58.671875,3.33
11:30:58.687500,-0.76
11:30:58.703125,-1.62
11:30:58.718750,0.71
11:30:58.734375,5.89
11:30:58.750000,13.40
11:30:58.765625,22.24
11:30:58.781250,30.56
11:30:58.796875,35.77
11:30:58.812500,35.47
11:30:58.828125,28.97
11:30:58.843750,18.56
11:30:58.859375,9.75
11:30:58.875000,9.81
11:30:58.890625,24.98
11:30:58.906250,57.31
11:30:58.921875,102.80
11:30:58.937500,151.67
11:30:58.953125,191.16
11:30:58.968750,209.58
11:30:58.984375,200.17
11:30:59,163.19
11:30:59.015625,105.64
11:30:59.031250,38.55
11:30:59.046875,-26.72
11:30:59.062500,-81.93
11:30:59.078125,-123.76
11:30:59.093750,-153.52
11:30:59.109375,-175.05
11:30:59.125000,-192.17
11:30:59.140625,-206.83
11:30:59.156250,-218.78
11:30:59.171875,-226.60
11:30:59.187500,-229.24
11:30:59.203125,-226.94
11:30:59.218750,-221.16
11:30:59.234375,-213.60
11:30:59.250000,-204.87
11:30:59.265625,-193.83
11:30:59.281250,-178.11
11:30:59.296875,-155.36
11:30:59.312500,-124.57
11:30:59.328125,-86.61
11:30:59.343750,-43.75
11:30:59.359375,1.71
11:30:59.375000,48.69
11:30:59.390625,97.59
11:30:59.406250,149.35
11:30:59.421875,203.68
11:30:59.437500,257.72
11:30:59.453125,306.00
11:30:59.468750,342.21
11:30:59.484375,361.69
11:30:59.500000,363.73
11:30:59.515625,351.89
11:30:59.531250,332.51
11:30:59.546875,311.58
11:30:59.562500,292.12
11:30:59.578125,272.99
11:30:59.593750,250.08
11:30:59.609375,218.98
11:30:59.625000,177.98
11:30:59.640625,129.53
11:30:59.656250,79.90
11:30:59.671875,37.06
11:30:59.687500,7.97
11:30:59.703125,-3.69
11:30:59.718750,1.48
11:30:59.734375,18.99
11:30:59.750000,42.02
11:30:59.765625,63.77
11:30:59.781250,79.41
11:30:59.796875,87.14
11:30:59.812500,87.91
11:30:59.828125,83.94
11:30:59.843750,77.02
11:30:59.859375,67.56
11:30:59.875000,54.88
11:30:59.890625,38.51
11:30:59.906250,19.47
11:30:59.921875,0.46
11:30:59.937500,-15.25
11:30:59.953125,-25.64
11:30:59.968750,-31.30
11:30:59.984375,-35.26
11:31:00,-41.20
11:31:00.015625,-51.32
11:31:00.031250,-64.96
11:31:00.046875,-79.04
11:31:00.062500,-89.88
11:31:00.078125,-95.33
11:31:00.093750,-95.85
11:31:00.109375,-94.11
11:31:00.125000,-93.25
11:31:00.140625,-95.12
11:31:00.156250,-99.40
11:31:00.171875,-104.04
11:31:00.187500,-106.56
11:31:00.203125,-105.63
11:31:00.218750,-101.69
11:31:00.234375,-96.66
11:31:00.250000,-92.81
11:31:00.265625,-91.61
11:31:00.281250,-93.03
11:31:00.296875,-95.85
11:31:00.312500,-98.39
11:31:00.328125,-99.32
11:31:00.343750,-98.18
11:31:00.359375,-95.26
11:31:00.375000,-91.14
11:31:00.390625,-86.27
11:31:00.406250,-80.80
11:31:00.421875,-74.66
11:31:00.437500,-67.85
11:31:00.453125,-60.57
11:31:00.468750,-53.24
11:31:00.484375,-46.31
11:31:00.500000,-40.08
11:31:00.515625,-34.59
11:31:00.531250,-29.63
11:31:00.546875,-24.97
11:31:00.562500,-20.38
11:31:00.578125,-15.74
11:31:00.593750,-11.05
11:31:00.609375,-6.39
11:31:00.625000,-1.82
11:31:00.640625,2.57
11:31:00.656250,6.72
11:31:00.671875,10.53
11:31:00.687500,13.91
11:31:00.703125,16.67
11:31:00.718750,18.69
11:31:00.734375,19.89
11:31:00.750000,20.31
11:31:00.765625,20.10
11:31:00.781250,19.39
11:31:00.796875,18.17
11:31:00.812500,16.27
11:31:00.828125,13.36
11:31:00.843750,9.18
11:31:00.859375,3.73
11:31:00.875000,-2.59
11:31:00.890625,-9.03
11:31:00.906250,-14.63
11:31:00.921875,-18.59
11:31:00.937500,-20.41
11:31:00.953125,-20.06
11:31:00.968750,-17.91
11:31:00.984375,-14.49
11:31:01,-10.32
11:31:01.015625,-5.61
11:31:01.031250,-0.31
11:31:01.046875,5.95
11:31:01.062500,13.58
11:31:01.078125,22.87
11:31:01.093750,33.79
11:31:01.109375,46.11
11:31:01.125000,59.53
11:31:01.140625,74.00
11:31:01.156250,89.88
11:31:01.171875,108.04
11:31:01.187500,129.59
11:31:01.203125,155.48
11:31:01.218750,185.88
11:31:01.234375,219.52
11:31:01.250000,253.50
11:31:01.265625,283.39
11:31:01.281250,304.11
11:31:01.296875,311.19
11:31:01.312500,302.06
11:31:01.328125,277.21
11:31:01.343750,240.39
11:31:01.359375,197.94
11:31:01.375000,157.24
11:31:01.390625,124.67
11:31:01.406250,103.97
11:31:01.421875,95.31
11:31:01.437500,95.73
11:31:01.453125,100.38
11:31:01.468750,104.30
11:31:01.484375,103.78
11:31:01.500000,97.06
11:31:01.515625,84.35
11:31:01.531250,67.19
11:31:01.546875,47.76
11:31:01.562500,28.14
11:31:01.578125,9.70
11:31:01.593750,-7.38
11:31:01.609375,-24.21
11:31:01.625000,-42.69
11:31:01.640625,-64.51
11:31:01.656250,-89.92
11:31:01.671875,-117.04
11:31:01.687500,-142.30
11:31:01.703125,-161.67
11:31:01.718750,-172.30
11:31:01.734375,-173.67
11:31:01.750000,-167.48
11:31:01.765625,-156.61
11:31:01.781250,-143.81
11:31:01.796875,-130.87
11:31:01.812500,-118.55
11:31:01.828125,-107.17
11:31:01.843750,-97.21
11:31:01.859375,-89.41
11:31:01.875000,-84.38
11:31:01.890625,-82.05
11:31:01.906250,-81.46
11:31:01.921875,-81.01
11:31:01.937500,-79.26
11:31:01.953125,-75.67
11:31:01.968750,-70.90
11:31:01.984375,-66.53
11:31:02,-64.26
11:31:02.015625,-65.12
11:31:02.031250,-68.99
11:31:02.046875,-74.64
11:31:02.062500,-80.34
11:31:02.078125,-84.54
11:31:02.093750,-86.40
11:31:02.109375,-85.89
11:31:02.125000,-83.57
11:31:02.140625,-80.26
11:31:02.156250,-76.60
11:31:02.171875,-72.89
11:31:02.187500,-69.10
11:31:02.203125,-64.99
11:31:02.218750,-60.31
11:31:02.234375,-54.88
11:31:02.250000,-48.76
11:31:02.265625,-42.17
11:31:02.281250,-35.46
11:31:02.296875,-29.03
11:31:02.312500,-23.14
11:31:02.328125,-17.90
11:31:02.343750,-13.21
11:31:02.359375,-8.88
11:31:02.375000,-4.69
11:31:02.390625,-0.57
11:31:02.406250,3.43
11:31:02.421875,7.08
11:31:02.437500,10.10
11:31:02.453125,12.20
11:31:02.468750,13.26
11:31:02.484375,13.34
11:31:02.500000,12.65
11:31:02.515625,11.51
11:31:02.531250,10.28
11:31:02.546875,9.18
11:31:02.562500,8.33
11:31:02.578125,7.76
11:31:02.593750,7.38
11:31:02.609375,7.13
11:31:02.625000,6.90
11:31:02.640625,6.60
11:31:02.656250,6.10
11:31:02.671875,5.36
11:31:02.687500,4.37
11:31:02.703125,3.18
11:31:02.718750,1.87
11:31:02.734375,0.49
11:31:02.750000,-0.99
11:31:02.765625,-2.66
11:31:02.781250,-4.60
11:31:02.796875,-6.89
11:31:02.812500,-9.50
11:31:02.828125,-12.35
11:31:02.843750,-15.25
11:31:02.859375,-17.92
11:31:02.875000,-20.04
11:31:02.890625,-21.26
11:31:02.906250,-21.26
11:31:02.921875,-19.86
11:31:02.937500,-17.06
11:31:02.953125,-13.08
11:31:02.968750,-8.26
11:31:02.984375,-3.02
11:31:03,2.23
11:31:03.015625,7.13
11:31:03.031250,11.38
11:31:03.046875,14.79
11:31:03.062500,17.26
11:31:03.078125,18.80
11:31:03.093750,19.44
11:31:03.109375,19.20
11:31:03.125000,18.08
11:31:03.140625,16.19
11:31:03.156250,13.80
11:31:03.171875,11.33
11:31:03.187500,9.27
11:31:03.203125,7.97
11:31:03.218750,7.45
11:31:03.234375,7.38
11:31:03.250000,7.17
11:31:03.265625,6.18
11:31:03.281250,3.97
11:31:03.296875,0.42
11:31:03.312500,-4.20
11:31:03.328125,-9.31
11:31:03.343750,-14.13
11:31:03.359375,-17.80
11:31:03.375000,-19.55
11:31:03.390625,-18.93
11:31:03.406250,-15.95
11:31:03.421875,-11.07
11:31:03.437500,-5.11
11:31:03.453125,1.04
11:31:03.468750,6.66
11:31:03.484375,11.44
11:31:03.500000,15.41
11:31:03.515625,18.76
11:31:03.531250,21.63
11:31:03.546875,23.84
11:31:03.562500,24.92
11:31:03.578125,24.30
11:31:03.593750,21.54
11:31:03.609375,16.62
11:31:03.625000,10.05
11:31:03.640625,2.72
11:31:03.656250,-4.29
11:31:03.671875,-10.02
11:31:03.687500,-13.80
11:31:03.703125,-15.32
11:31:03.718750,-14.63
11:31:03.734375,-12.05
11:31:03.750000,-8.11
11:31:03.765625,-3.54
11:31:03.781250,0.92
11:31:03.796875,4.61
11:31:03.812500,7.20
11:31:03.828125,8.79
11:31:03.843750,9.92
11:31:03.859375,11.46
11:31:03.875000,14.29
11:31:03.890625,18.93
11:31:03.906250,25.28
11:31:03.921875,32.44
11:31:03.937500,38.97
11:31:03.953125,43.30
11:31:03.968750,44.28
11:31:03.984375,41.56
11:31:04,35.70
11:31:04.015625,27.92
11:31:04.031250,19.62
11:31:04.046875,11.92
11:31:04.062500,5.43
11:31:04.078125,0.24
11:31:04.093750,-3.99
11:31:04.109375,-7.70
11:31:04.125000,-11.33
11:31:04.140625,-15.03
11:31:04.156250,-18.69
11:31:04.171875,-21.86
11:31:04.187500,-23.87
11:31:04.203125,-24.08
11:31:04.218750,-22.05
11:31:04.234375,-17.79
11:31:04.250000,-11.69
11:31:04.265625,-4.45
11:31:04.281250,3.20
11:31:04.296875,10.61
11:31:04.312500,17.30
11:31:04.328125,22.94
11:31:04.343750,27.30
11:31:04.359375,30.25
11:31:04.375000,31.70
11:31:04.390625,31.76
11:31:04.406250,30.64
11:31:04.421875,28.71
11:31:04.437500,26.34
11:31:04.453125,23.83
11:31:04.468750,21.33
11:31:04.484375,18.93
11:31:04.500000,16.70
11:31:04.515625,14.87
11:31:04.531250,13.78
11:31:04.546875,13.76
11:31:04.562500,14.87
11:31:04.578125,16.81
11:31:04.593750,18.97
11:31:04.609375,20.61
11:31:04.625000,21.18
11:31:04.640625,20.42
11:31:04.656250,18.47
11:31:04.671875,15.67
11:31:04.687500,12.44
11:31:04.703125,9.11
11:31:04.718750,5.96
11:31:04.734375,3.17
11:31:04.750000,0.86
11:31:04.765625,-0.94
11:31:04.781250,-2.34
11:31:04.796875,-3.57
11:31:04.812500,-4.96
11:31:04.828125,-6.72
11:31:04.843750,-8.91
11:31:04.859375,-11.24
11:31:04.875000,-13.23
11:31:04.890625,-14.24
11:31:04.906250,-13.78
11:31:04.921875,-11.63
11:31:04.937500,-7.92
11:31:04.953125,-3.11
11:31:04.968750,2.15
11:31:04.984375,7.27
11:31:05,11.80
11:31:05.015625,15.56
11:31:05.031250,18.48
11:31:05.046875,20.61
11:31:05.062500,21.92
11:31:05.078125,22.36
11:31:05.093750,21.83
11:31:05.109375,20.33
11:31:05.125000,18.00
11:31:05.140625,15.19
11:31:05.156250,12.35
11:31:05.171875,9.89
11:31:05.187500,8.06
11:31:05.203125,6.90
11:31:05.218750,6.26
11:31:05.234375,5.89
11:31:05.250000,5.56
11:31:05.265625,5.14
11:31:05.281250,4.60
11:31:05.296875,3.92
11:31:05.312500,3.09
11:31:05.328125,2.06
11:31:05.343750,0.73
11:31:05.359375,-0.99
11:31:05.375000,-3.20
11:31:05.390625,-5.92
11:31:05.406250,-9.12
11:31:05.421875,-12.66
11:31:05.437500,-16.26
11:31:05.453125,-19.58
11:31:05.468750,-22.20
11:31:05.484375,-23.77
11:31:05.500000,-23.99
11:31:05.515625,-22.71
11:31:05.531250,-20.00
11:31:05.546875,-16.05
11:31:05.562500,-11.26
11:31:05.578125,-6.03
11:31:05.593750,-0.79
11:31:05.609375,4.15
11:31:05.625000,8.54
11:31:05.640625,12.20
11:31:05.656250,14.98
11:31:05.671875,16.77
11:31:05.687500,17.52
11:31:05.703125,17.30
11:31:05.718750,16.34
11:31:05.734375,14.95
11:31:05.750000,13.44
11:31:05.765625,12.02
11:31:05.781250,10.75
11:31:05.796875,9.55
11:31:05.812500,8.36
11:31:05.828125,7.14
11:31:05.843750,5.99
11:31:05.859375,5.04
11:31:05.875000,4.37
11:31:05.890625,3.93
11:31:05.906250,3.53
11:31:05.921875,2.91
11:31:05.937500,1.89
11:31:05.953125,0.45
11:31:05.968750,-1.30
11:31:05.984375,-3.19
11:31:06,-5.09
11:31:06.015625,-7.04
11:31:06.031250,-9.16
11:31:06.046875,-11.60
11:31:06.062500,-14.33
11:31:06.078125,-17.12
11:31:06.093750,-19.52
11:31:06.109375,-21.05
11:31:06.125000,-21.33
11:31:06.140625,-20.19
11:31:06.156250,-17.65
11:31:06.171875,-13.88
11:31:06.187500,-9.12
11:31:06.203125,-3.66
11:31:06.218750,2.09
11:31:06.234375,7.61
11:31:06.250000,12.31
11:31:06.265625,15.68
11:31:06.281250,17.48
11:31:06.296875,17.80
11:31:06.312500,17.06
11:31:06.328125,15.78
11:31:06.343750,14.41
11:31:06.359375,13.19
11:31:06.375000,12.17
11:31:06.390625,11.30
11:31:06.406250,10.59
11:31:06.421875,10.05
11:31:06.437500,9.71
11:31:06.453125,9.48
11:31:06.468750,9.17
11:31:06.484375,8.53
11:31:06.500000,7.38
11:31:06.515625,5.67
11:31:06.531250,3.53
11:31:06.546875,1.20
11:31:06.562500,-1.08
11:31:06.578125,-3.17
11:31:06.593750,-5.06
11:31:06.609375,-6.87
11:31:06.625000,-8.73
11:31:06.640625,-10.71
11:31:06.656250,-12.73
11:31:06.671875,-14.62
11:31:06.687500,-16.13
11:31:06.703125,-17.03
11:31:06.718750,-17.25
11:31:06.734375,-16.76
11:31:06.750000,-15.63
11:31:06.765625,-13.85
11:31:06.781250,-11.34
11:31:06.796875,-7.99
11:31:06.812500,-3.77
11:31:06.828125,1.17
11:31:06.843750,6.43
11:31:06.859375,11.48
11:31:06.875000,15.80
11:31:06.890625,19.06
11:31:06.906250,21.18
11:31:06.921875,22.25
11:31:06.937500,22.49
11:31:06.953125,22.07
11:31:06.968750,21.18
11:31:06.984375,20.05
11:31:07,18.95
11:31:07.015625,18.23
11:31:07.031250,18.14
11:31:07.046875,18.74
11:31:07.062500,19.82
11:31:07.078125,21.03
11:31:07.093750,21.99
11:31:07.109375,22.50
11:31:07.125000,22.59
11:31:07.140625,22.47
11:31:07.156250,22.36
11:31:07.171875,22.33
11:31:07.187500,22.19
11:31:07.203125,21.64
11:31:07.218750,20.38
11:31:07.234375,18.30
11:31:07.250000,15.55
11:31:07.265625,12.48
11:31:07.281250,9.51
11:31:07.296875,6.96
11:31:07.312500,5.00
11:31:07.328125,3.66
11:31:07.343750,2.94
11:31:07.359375,2.81
11:31:07.375000,3.28
11:31:07.390625,4.31
11:31:07.406250,5.73
11:31:07.421875,7.25
11:31:07.437500,8.48
11:31:07.453125,9.15
11:31:07.468750,9.15
11:31:07.484375,8.53
11:31:07.500000,7.53
11:31:07.515625,6.34
11:31:07.531250,5.18
11:31:07.546875,4.13
11:31:07.562500,3.27
11:31:07.578125,2.65
11:31:07.593750,2.29
11:31:07.609375,2.18
11:31:07.625000,2.29
11:31:07.640625,2.59
11:31:07.656250,3.06
11:31:07.671875,3.65
11:31:07.687500,4.30
11:31:07.703125,4.82
11:31:07.718750,5.01
11:31:07.734375,4.63
11:31:07.750000,3.53
11:31:07.765625,1.65
11:31:07.781250,-0.90
11:31:07.796875,-3.90
11:31:07.812500,-7.11
11:31:07.828125,-10.27
11:31:07.843750,-13.16
11:31:07.859375,-15.64
11:31:07.875000,-17.67
11:31:07.890625,-19.31
11:31:07.906250,-20.67
11:31:07.921875,-21.88
11:31:07.937500,-22.99
11:31:07.953125,-23.89
11:31:07.968750,-24.31
11:31:07.984375,-23.93
11:31:08,-22.46
11:31:08.015625,-19.84
11:31:08.031250,-16.27
11:31:08.046875,-12.13
11:31:08.062500,-7.88
11:31:08.078125,-3.90
11:31:08.093750,-0.41
11:31:08.109375,2.51
11:31:08.125000,4.87
11:31:08.140625,6.72
11:31:08.156250,8.09
11:31:08.171875,9.03
11:31:08.187500,9.68
11:31:08.203125,10.17
11:31:08.218750,10.64
11:31:08.234375,11.08
11:31:08.250000,11.41
11:31:08.265625,11.50
11:31:08.281250,11.19
11:31:08.296875,10.43
11:31:08.312500,9.19
11:31:08.328125,7.55
11:31:08.343750,5.65
11:31:08.359375,3.70
11:31:08.375000,1.94
11:31:08.390625,0.65
11:31:08.406250,-0.01
11:31:08.421875,-0.04
11:31:08.437500,0.39
11:31:08.453125,0.94
11:31:08.468750,1.28
11:31:08.484375,1.10
11:31:08.500000,0.31
11:31:08.515625,-1.08
11:31:08.531250,-2.92
11:31:08.546875,-4.98
11:31:08.562500,-6.97
11:31:08.578125,-8.59
11:31:08.593750,-9.50
11:31:08.609375,-9.41
11:31:08.625000,-8.18
11:31:08.640625,-5.80
11:31:08.656250,-2.46
11:31:08.671875,1.51
11:31:08.687500,5.76
11:31:08.703125,9.91
11:31:08.718750,13.70
11:31:08.734375,16.87
11:31:08.750000,19.30
11:31:08.765625,20.96
11:31:08.781250,21.93
11:31:08.796875,22.40
11:31:08.812500,22.62
11:31:08.828125,22.81
11:31:08.843750,23.01
11:31:08.859375,23.17
11:31:08.875000,23.13
11:31:08.890625,22.85
11:31:08.906250,22.42
11:31:08.921875,22.13
11:31:08.937500,22.25
11:31:08.953125,22.87
11:31:08.968750,23.82
11:31:08.984375,24.64
11:31:09,24.82
11:31:09.015625,24.05
11:31:09.031250,22.33
11:31:09.046875,19.95
11:31:09.062500,17.29
11:31:09.078125,14.60
11:31:09.093750,11.85
11:31:09.109375,8.87
11:31:09.125000,5.47
11:31:09.140625,1.66
11:31:09.156250,-2.36
11:31:09.171875,-6.26
11:31:09.187500,-9.83
11:31:09.203125,-13.05
11:31:09.218750,-16.08
11:31:09.234375,-19.17
11:31:09.250000,-22.40
11:31:09.265625,-25.63
11:31:09.281250,-28.53
11:31:09.296875,-30.66
11:31:09.312500,-31.63
11:31:09.328125,-31.18
11:31:09.343750,-29.15
11:31:09.359375,-25.47
11:31:09.375000,-20.19
11:31:09.390625,-13.48
11:31:09.406250,-5.73
11:31:09.421875,2.38
11:31:09.437500,10.04
11:31:09.453125,16.42
11:31:09.468750,20.99
11:31:09.484375,23.58
11:31:09.500000,24.34
11:31:09.515625,23.52
11:31:09.531250,21.22
11:31:09.546875,17.20
11:31:09.562500,11.08
11:31:09.578125,2.64
11:31:09.593750,-7.76
11:31:09.609375,-18.92
11:31:09.625000,-29.06
11:31:09.640625,-36.23
11:31:09.656250,-39.08
11:31:09.671875,-37.26
11:31:09.687500,-31.48
11:31:09.703125,-23.23
11:31:09.718750,-14.15
11:31:09.734375,-5.68
11:31:09.750000,1.22
11:31:09.765625,6.05
11:31:09.781250,8.56
11:31:09.796875,8.74
11:31:09.812500,6.74
11:31:09.828125,3.01
11:31:09.843750,-1.76
11:31:09.859375,-6.70
11:31:09.875000,-10.97
11:31:09.890625,-14.04
11:31:09.906250,-15.71
11:31:09.921875,-16.18
11:31:09.937500,-15.81
11:31:09.953125,-14.99
11:31:09.968750,-13.93
11:31:09.984375,-12.71
11:31:10,-11.22
11:31:10.015625,-9.33
11:31:10.031250,-6.96
11:31:10.046875,-4.14
11:31:10.062500,-1.09
11:31:10.078125,1.94
11:31:10.093750,4.74
11:31:10.109375,7.23
11:31:10.125000,9.49
11:31:10.140625,11.58
11:31:10.156250,13.51
11:31:10.171875,15.10
11:31:10.187500,16.08
11:31:10.203125,16.19
11:31:10.218750,15.33
11:31:10.234375,13.64
11:31:10.250000,11.40
11:31:10.265625,8.96
11:31:10.281250,6.61
11:31:10.296875,4.49
11:31:10.312500,2.60
11:31:10.328125,0.89
11:31:10.343750,-0.76
11:31:10.359375,-2.45
11:31:10.375000,-4.26
11:31:10.390625,-6.21
11:31:10.406250,-8.25
11:31:10.421875,-10.25
11:31:10.437500,-12.05
11:31:10.453125,-13.47
11:31:10.468750,-14.37
11:31:10.484375,-14.70
11:31:10.500000,-14.54
11:31:10.515625,-14.09
11:31:10.531250,-13.67
11:31:10.546875,-13.65
11:31:10.562500,-14.34
11:31:10.578125,-15.83
11:31:10.593750,-17.97
11:31:10.609375,-20.33
11:31:10.625000,-22.37
11:31:10.640625,-23.57
11:31:10.656250,-23.61
11:31:10.671875,-22.38
11:31:10.687500,-20.00
11:31:10.703125,-16.75
11:31:10.718750,-12.97
11:31:10.734375,-9.01
11:31:10.750000,-5.22
11:31:10.765625,-1.82
11:31:10.781250,1.07
11:31:10.796875,3.50
11:31:10.812500,5.59
11:31:10.828125,7.50
11:31:10.843750,9.30
11:31:10.859375,10.97
11:31:10.875000,12.39
11:31:10.890625,13.45
11:31:10.906250,14.08
11:31:10.921875,14.30
11:31:10.937500,14.17
11:31:10.953125,13.81
11:31:10.968750,13.34
11:31:10.984375,12.88
11:31:11,12.47
11:31:11.015625,12.16
11:31:11.031250,11.97
11:31:11.046875,11.84
11:31:11.062500,11.66
11:31:11.078125,11.25
11:31:11.093750,10.41
11:31:11.109375,9.00
11:31:11.125000,7.03
11:31:11.140625,4.63
11:31:11.156250,2.03
11:31:11.171875,-0.52
11:31:11.187500,-2.85
11:31:11.203125,-4.88
11:31:11.218750,-6.65
11:31:11.234375,-8.28
11:31:11.250000,-9.84
11:31:11.265625,-11.45
11:31:11.281250,-13.11
11:31:11.296875,-14.84
11:31:11.312500,-16.58
11:31:11.328125,-18.16
11:31:11.343750,-19.33
11:31:11.359375,-19.75
11:31:11.375000,-19.13
11:31:11.390625,-17.30
11:31:11.406250,-14.30
11:31:11.421875,-10.44
11:31:11.437500,-6.20
11:31:11.453125,-2.06
11:31:11.468750,1.60
11:31:11.484375,4.60
11:31:11.500000,6.97
11:31:11.515625,8.92
11:31:11.531250,10.74
11:31:11.546875,12.70
11:31:11.562500,14.94
11:31:11.578125,17.47
11:31:11.593750,20.15
11:31:11.609375,22.70
11:31:11.625000,24.72
11:31:11.640625,25.82
11:31:11.656250,25.61
11:31:11.671875,23.90
11:31:11.687500,20.71
11:31:11.703125,16.27
11:31:11.718750,11.02
11:31:11.734375,5.49
11:31:11.750000,0.21
11:31:11.765625,-4.38
11:31:11.781250,-7.98
11:31:11.796875,-10.42
11:31:11.812500,-11.66
11:31:11.828125,-11.79
11:31:11.843750,-11.00
11:31:11.859375,-9.65
11:31:11.875000,-8.20
11:31:11.890625,-7.12
11:31:11.906250,-6.82
11:31:11.921875,-7.49
11:31:11.937500,-9.09
11:31:11.953125,-11.32
11:31:11.968750,-13.87
11:31:11.984375,-16.41
11:31:12,-18.74
11:31:12.015625,-20.72
11:31:12.031250,-22.19
11:31:12.046875,-22.91
11:31:12.062500,-22.60
11:31:12.078125,-20.99
11:31:12.093750,-18.06
11:31:12.109375,-14.07
11:31:12.125000,-9.49
11:31:12.140625,-4.92
11:31:12.156250,-0.85
11:31:12.171875,2.45
11:31:12.187500,4.97
11:31:12.203125,6.80
11:31:12.218750,8.15
11:31:12.234375,9.21
11:31:12.250000,10.08
11:31:12.265625,10.87
11:31:12.281250,11.56
11:31:12.296875,12.08
11:31:12.312500,12.31
11:31:12.328125,12.17
11:31:12.343750,11.71
11:31:12.359375,11.10
11:31:12.375000,10.59
11:31:12.390625,10.39
11:31:12.406250,10.55
11:31:12.421875,10.91
11:31:12.437500,11.22
11:31:12.453125,11.22
11:31:12.468750,10.82
11:31:12.484375,10.06
11:31:12.500000,9.11
11:31:12.515625,8.15
11:31:12.531250,7.27
11:31:12.546875,6.45
11:31:12.562500,5.64
11:31:12.578125,4.73
11:31:12.593750,3.71
11:31:12.609375,2.59
11:31:12.625000,1.48
11:31:12.640625,0.44
11:31:12.656250,-0.55
11:31:12.671875,-1.57
11:31:12.687500,-2.79
11:31:12.703125,-4.31
11:31:12.718750,-6.10
11:31:12.734375,-7.97
11:31:12.750000,-9.60
11:31:12.765625,-10.61
11:31:12.781250,-10.70
11:31:12.796875,-9.69
11:31:12.812500,-7.65
11:31:12.828125,-4.80
11:31:12.843750,-1.48
11:31:12.859375,1.96
11:31:12.875000,5.28
11:31:12.890625,8.31
11:31:12.906250,10.91
11:31:12.921875,12.96
11:31:12.937500,14.32
11:31:12.953125,14.87
11:31:12.968750,14.58
11:31:12.984375,13.55
11:31:13,11.96
11:31:13.015625,10.06
11:31:13.031250,8.09
11:31:13.046875,6.25
11:31:13.062500,4.67
11:31:13.078125,3.48
11:31:13.093750,2.76
11:31:13.109375,2.52
11:31:13.125000,2.67
11:31:13.140625,3.03
11:31:13.156250,3.43
11:31:13.171875,3.79
11:31:13.187500,4.08
11:31:13.203125,4.31
11:31:13.218750,4.47
11:31:13.234375,4.44
11:31:13.250000,4.10
11:31:13.265625,3.35
11:31:13.281250,2.23
11:31:13.296875,0.84
11:31:13.312500,-0.69
11:31:13.328125,-2.29
11:31:13.343750,-3.91
11:31:13.359375,-5.58
11:31:13.375000,-7.24
11:31:13.390625,-8.81
11:31:13.406250,-10.22
11:31:13.421875,-11.40
11:31:13.437500,-12.38
11:31:13.453125,-13.17
11:31:13.468750,-13.74
11:31:13.484375,-13.95
11:31:13.500000,-13.63
11:31:13.515625,-12.64
11:31:13.531250,-11.04
11:31:13.546875,-9.02
11:31:13.562500,-6.96
11:31:13.578125,-5.20
11:31:13.593750,-4.02
11:31:13.609375,-3.44
11:31:13.625000,-3.33
11:31:13.640625,-3.39
11:31:13.656250,-3.31
11:31:13.671875,-2.90
11:31:13.687500,-2.07
11:31:13.703125,-0.97
11:31:13.718750,0.25
11:31:13.734375,1.49
11:31:13.750000,2.68
11:31:13.765625,3.84
11:31:13.781250,4.95
11:31:13.796875,5.98
11:31:13.812500,6.88
11:31:13.828125,7.67
11:31:13.843750,8.37
11:31:13.859375,9.06
11:31:13.875000,9.73
11:31:13.890625,10.23
11:31:13.906250,10.39
11:31:13.921875,10.09
11:31:13.937500,9.36
11:31:13.953125,8.37
11:31:13.968750,7.32
11:31:13.984375,6.32
11:31:14,5.36
11:31:14.015625,4.39
11:31:14.031250,3.39
11:31:14.046875,2.50
11:31:14.062500,1.85
11:31:14.078125,1.57
11:31:14.093750,1.54
11:31:14.109375,1.55
11:31:14.125000,1.37
11:31:14.140625,0.91
11:31:14.156250,0.36
11:31:14.171875,0.04
11:31:14.187500,0.26
11:31:14.203125,1.16
11:31:14.218750,2.57
11:31:14.234375,4.18
11:31:14.250000,5.70
11:31:14.265625,6.97
11:31:14.281250,7.97
11:31:14.296875,8.76
11:31:14.312500,9.31
11:31:14.328125,9.54
11:31:14.343750,9.29
11:31:14.359375,8.54
11:31:14.375000,7.40
11:31:14.390625,6.11
11:31:14.406250,4.90
11:31:14.421875,3.84
11:31:14.437500,2.92
11:31:14.453125,2.01
11:31:14.468750,1.07
11:31:14.484375,0.20
11:31:14.500000,-0.46
11:31:14.515625,-0.81
11:31:14.531250,-0.88
11:31:14.546875,-0.85
11:31:14.562500,-0.91
11:31:14.578125,-1.11
11:31:14.593750,-1.36
11:31:14.609375,-1.48
11:31:14.625000,-1.34
11:31:14.640625,-0.98
11:31:14.656250,-0.67
11:31:14.671875,-0.76
11:31:14.687500,-1.56
11:31:14.703125,-3.23
11:31:14.718750,-5.64
11:31:14.734375,-8.50
11:31:14.750000,-11.44
11:31:14.765625,-14.19
11:31:14.781250,-16.63
11:31:14.796875,-18.78
11:31:14.812500,-20.68
11:31:14.828125,-22.20
11:31:14.843750,-23.14
11:31:14.859375,-23.18
11:31:14.875000,-22.08
11:31:14.890625,-19.81
11:31:14.906250,-16.58
11:31:14.921875,-12.86
11:31:14.937500,-9.20
11:31:14.953125,-6.14
11:31:14.968750,-3.94
11:31:14.984375,-2.56
11:31:15,-1.72
11:31:15.015625,-0.95
11:31:15.031250,0.12
11:31:15.046875,1.60
11:31:15.062500,3.30
11:31:15.078125,4.81
11:31:15.093750,5.67
11:31:15.109375,5.68
11:31:15.125000,4.88
11:31:15.140625,3.54
11:31:15.156250,2.00
11:31:15.171875,0.46
11:31:15.187500,-0.96
11:31:15.203125,-2.24
11:31:15.218750,-3.33
11:31:15.234375,-4.15
11:31:15.250000,-4.59
11:31:15.265625,-4.65
11:31:15.281250,-4.46
11:31:15.296875,-4.25
11:31:15.312500,-4.35
11:31:15.328125,-5.05
11:31:15.343750,-6.52
11:31:15.359375,-8.67
11:31:15.375000,-11.23
11:31:15.390625,-13.75
11:31:15.406250,-15.68
11:31:15.421875,-16.58
11:31:15.437500,-16.21
11:31:15.453125,-14.63
11:31:15.468750,-12.11
11:31:15.484375,-9.09
11:31:15.500000,-5.98
11:31:15.515625,-3.07
11:31:15.531250,-0.52
11:31:15.546875,1.69
11:31:15.562500,3.56
11:31:15.578125,5.15
11:31:15.593750,6.48
11:31:15.609375,7.51
11:31:15.625000,8.25
11:31:15.640625,8.69
11:31:15.656250,8.85
11:31:15.671875,8.76
11:31:15.687500,8.47
11:31:15.703125,8.10
11:31:15.718750,7.76
11:31:15.734375,7.61
11:31:15.750000,7.74
11:31:15.765625,8.13
11:31:15.781250,8.63
11:31:15.796875,8.99
11:31:15.812500,8.98
11:31:15.828125,8.45
11:31:15.843750,7.39
11:31:15.859375,5.88
11:31:15.875000,3.99
11:31:15.890625,1.79
11:31:15.906250,-0.67
11:31:15.921875,-3.26
11:31:15.937500,-5.75
11:31:15.953125,-7.88
11:31:15.968750,-9.47
11:31:15.984375,-10.55
11:31:16,-11.33
11:31:16.015625,-12.11
11:31:16.031250,-13.08
11:31:16.046875,-14.21
11:31:16.062500,-15.27
11:31:16.078125,-15.94
11:31:16.093750,-16.03
11:31:16.109375,-15.53
11:31:16.125000,-14.56
11:31:16.140625,-13.36
11:31:16.156250,-12.09
11:31:16.171875,-10.83
11:31:16.187500,-9.61
11:31:16.203125,-8.41
11:31:16.218750,-7.22
11:31:16.234375,-5.95
11:31:16.250000,-4.53
11:31:16.265625,-2.88
11:31:16.281250,-0.96
11:31:16.296875,1.13
11:31:16.312500,3.15
11:31:16.328125,4.77
11:31:16.343750,5.65
11:31:16.359375,5.53
11:31:16.375000,4.38
11:31:16.390625,2.34
11:31:16.406250,-0.25
11:31:16.421875,-3.01
11:31:16.437500,-5.61
11:31:16.453125,-7.92
11:31:16.468750,-9.98
11:31:16.484375,-11.96
11:31:16.500000,-14.00
11:31:16.515625,-16.10
11:31:16.531250,-18.07
11:31:16.546875,-19.64
11:31:16.562500,-20.51
11:31:16.578125,-20.52
11:31:16.593750,-19.64
11:31:16.609375,-18.02
11:31:16.625000,-15.90
11:31:16.640625,-13.55
11:31:16.656250,-11.26
11:31:16.671875,-9.25
11:31:16.687500,-7.60
11:31:16.703125,-6.22
11:31:16.718750,-4.90
11:31:16.734375,-3.34
11:31:16.750000,-1.35
11:31:16.765625,1.02
11:31:16.781250,3.51
11:31:16.796875,5.72
11:31:16.812500,7.24
11:31:16.828125,7.91
11:31:16.843750,7.81
11:31:16.859375,7.25
11:31:16.875000,6.62
11:31:16.890625,6.17
11:31:16.906250,5.97
11:31:16.921875,5.93
11:31:16.937500,5.95
11:31:16.953125,6.01
11:31:16.968750,6.21
11:31:16.984375,6.65
11:31:17,7.32
11:31:17.015625,8.02
11:31:17.031250,8.43
11:31:17.046875,8.27
11:31:17.062500,7.42
11:31:17.078125,6.00
11:31:17.093750,4.29
11:31:17.109375,2.54
11:31:17.125000,0.86
11:31:17.140625,-0.82
11:31:17.156250,-2.62
11:31:17.171875,-4.64
11:31:17.187500,-6.79
11:31:17.203125,-8.88
11:31:17.218750,-10.70
11:31:17.234375,-12.12
11:31:17.250000,-13.13
11:31:17.265625,-13.82
11:31:17.281250,-14.27
11:31:17.296875,-14.46
11:31:17.312500,-14.24
11:31:17.328125,-13.41
11:31:17.343750,-11.82
11:31:17.359375,-9.48
11:31:17.375000,-6.59
11:31:17.390625,-3.50
11:31:17.406250,-0.57
11:31:17.421875,1.92
11:31:17.437500,3.87
11:31:17.453125,5.35
11:31:17.468750,6.54
11:31:17.484375,7.55
11:31:17.500000,8.46
11:31:17.515625,9.17
11:31:17.531250,9.58
11:31:17.546875,9.54
11:31:17.562500,9.07
11:31:17.578125,8.28
11:31:17.593750,7.41
11:31:17.609375,6.73
11:31:17.625000,6.39
11:31:17.640625,6.45
11:31:17.656250,6.73
11:31:17.671875,6.98
11:31:17.687500,6.95
11:31:17.703125,6.51
11:31:17.718750,5.66
11:31:17.734375,4.54
11:31:17.750000,3.28
11:31:17.765625,1.96
11:31:17.781250,0.52
11:31:17.796875,-1.12
11:31:17.812500,-2.98
11:31:17.828125,-4.98
11:31:17.843750,-6.95
11:31:17.859375,-8.73
11:31:17.875000,-10.25
11:31:17.890625,-11.53
11:31:17.906250,-12.63
11:31:17.921875,-13.50
11:31:17.937500,-13.96
11:31:17.953125,-13.70
11:31:17.968750,-12.46
11:31:17.984375,-10.14
11:31:18,-6.91
11:31:18.015625,-3.16
11:31:18.031250,0.66
11:31:18.046875,4.13
11:31:18.062500,7.00
11:31:18.078125,9.23
11:31:18.093750,10.87
11:31:18.109375,12.05
11:31:18.125000,12.87
11:31:18.140625,13.41
11:31:18.156250,13.72
11:31:18.171875,13.90
11:31:18.187500,14.03
11:31:18.203125,14.28
11:31:18.218750,14.71
11:31:18.234375,15.30
11:31:18.250000,15.85
11:31:18.265625,16.05
11:31:18.281250,15.57
11:31:18.296875,14.22
11:31:18.312500,12.00
11:31:18.328125,9.16
11:31:18.343750,6.09
11:31:18.359375,3.18
11:31:18.375000,0.70
11:31:18.390625,-1.27
11:31:18.406250,-2.79
11:31:18.421875,-4.00
11:31:18.437500,-5.03
11:31:18.453125,-5.98
11:31:18.468750,-6.94
11:31:18.484375,-7.99
11:31:18.500000,-9.25
11:31:18.515625,-10.80
11:31:18.531250,-12.62
11:31:18.546875,-14.59
11:31:18.562500,-16.43
11:31:18.578125,-17.77
11:31:18.593750,-18.24
11:31:18.609375,-17.56
11:31:18.625000,-15.58
11:31:18.640625,-12.41
11:31:18.656250,-8.33
11:31:18.671875,-3.76
11:31:18.687500,0.85
11:31:18.703125,5.10
11:31:18.718750,8.75
11:31:18.734375,11.62
11:31:18.750000,13.62
11:31:18.765625,14.71
11:31:18.781250,14.87
11:31:18.796875,14.17
11:31:18.812500,12.85
11:31:18.828125,11.26
11:31:18.843750,9.81
11:31:18.859375,8.81
11:31:18.875000,8.36
11:31:18.890625,8.34
11:31:18.906250,8.43
11:31:18.921875,8.34
11:31:18.937500,7.93
11:31:18.953125,7.27
11:31:18.968750,6.55
11:31:18.984375,5.98
11:31:19,5.62
11:31:19.015625,5.37
11:31:19.031250,5.06
11:31:19.046875,4.54
11:31:19.062500,3.77
11:31:19.078125,2.79
11:31:19.093750,1.71
11:31:19.109375,0.56
11:31:19.125000,-0.73
11:31:19.140625,-2.27
11:31:19.156250,-4.12
11:31:19.171875,-6.22
11:31:19.187500,-8.35
11:31:19.203125,-10.20
11:31:19.218750,-11.46
11:31:19.234375,-11.88
11:31:19.250000,-11.29
11:31:19.265625,-9.66
11:31:19.281250,-7.07
11:31:19.296875,-3.69
11:31:19.312500,0.18
11:31:19.328125,4.23
11:31:19.343750,8.13
11:31:19.359375,11.64
11:31:19.375000,14.57
11:31:19.390625,16.86
11:31:19.406250,18.54
11:31:19.421875,19.64
11:31:19.437500,20.30
11:31:19.453125,20.64
11:31:19.468750,20.86
11:31:19.484375,21.13
11:31:19.500000,21.57
11:31:19.515625,22.17
11:31:19.531250,22.81
11:31:19.546875,23.28
11:31:19.562500,23.42
11:31:19.578125,23.22
11:31:19.593750,22.73
11:31:19.609375,22.15
11:31:19.625000,21.60
11:31:19.640625,21.07
11:31:19.656250,20.45
11:31:19.671875,19.59
11:31:19.687500,18.45
11:31:19.703125,17.09
11:31:19.718750,15.74
11:31:19.734375,14.62
11:31:19.750000,13.83
11:31:19.765625,13.30
11:31:19.781250,12.76
11:31:19.796875,11.91
11:31:19.812500,10.49
11:31:19.828125,8.43
11:31:19.843750,5.87
11:31:19.859375,3.04
11:31:19.875000,0.24
11:31:19.890625,-2.34
11:31:19.906250,-4.53
11:31:19.921875,-6.21
11:31:19.937500,-7.22
11:31:19.953125,-7.38
11:31:19.968750,-6.60
11:31:19.984375,-4.96
11:31:20,-2.81
11:31:20.015625,-0.60
11:31:20.031250,1.19
11:31:20.046875,2.31
11:31:20.062500,2.83
11:31:20.078125,3.03
11:31:20.093750,3.25
11:31:20.109375,3.65
11:31:20.125000,4.15
11:31:20.140625,4.45
11:31:20.156250,4.23
11:31:20.171875,3.35
11:31:20.187500,1.94
11:31:20.203125,0.33
11:31:20.218750,-1.08
11:31:20.234375,-2.07
11:31:20.250000,-2.68
11:31:20.265625,-3.15
11:31:20.281250,-3.83
11:31:20.296875,-4.97
11:31:20.312500,-6.66
11:31:20.328125,-8.80
11:31:20.343750,-11.17
11:31:20.359375,-13.61
11:31:20.375000,-16.01
11:31:20.390625,-18.38
11:31:20.406250,-20.73
11:31:20.421875,-23.06
11:31:20.437500,-25.25
11:31:20.453125,-27.14
11:31:20.468750,-28.50
11:31:20.484375,-29.24
11:31:20.500000,-29.33
11:31:20.515625,-28.89
11:31:20.531250,-28.06
11:31:20.546875,-26.90
11:31:20.562500,-25.38
11:31:20.578125,-23.34
11:31:20.593750,-20.72
11:31:20.609375,-17.58
11:31:20.625000,-14.17
11:31:20.640625,-10.87
11:31:20.656250,-8.08
11:31:20.671875,-6.05
11:31:20.687500,-4.87
11:31:20.703125,-4.46
11:31:20.718750,-4.64
11:31:20.734375,-5.19
11:31:20.750000,-5.88
11:31:20.765625,-6.51
11:31:20.781250,-6.86
11:31:20.796875,-6.80
11:31:20.812500,-6.30
11:31:20.828125,-5.44
11:31:20.843750,-4.41
11:31:20.859375,-3.43
11:31:20.875000,-2.67
11:31:20.890625,-2.15
11:31:20.906250,-1.76
11:31:20.921875,-1.35
11:31:20.937500,-0.79
11:31:20.953125,-0.08
11:31:20.968750,0.64
11:31:20.984375,1.13
11:31:21,1.17
11:31:21.015625,0.66
11:31:21.031250,-0.34
11:31:21.046875,-1.64
11:31:21.062500,-2.98
11:31:21.078125,-4.13
11:31:21.093750,-4.98
11:31:21.109375,-5.58
11:31:21.125000,-6.07
11:31:21.140625,-6.64
11:31:21.156250,-7.47
11:31:21.171875,-8.67
11:31:21.187500,-10.22
11:31:21.203125,-11.96
11:31:21.218750,-13.62
11:31:21.234375,-14.89
11:31:21.250000,-15.45
11:31:21.265625,-15.09
11:31:21.281250,-13.67
11:31:21.296875,-11.28
11:31:21.312500,-8.09
11:31:21.328125,-4.43
11:31:21.343750,-0.69
11:31:21.359375,2.69
11:31:21.375000,5.38
11:31:21.390625,7.15
11:31:21.406250,7.99
11:31:21.421875,8.07
11:31:21.437500,7.73
11:31:21.453125,7.38
11:31:21.468750,7.30
11:31:21.484375,7.66
11:31:21.500000,8.41
11:31:21.515625,9.38
11:31:21.531250,10.31
11:31:21.546875,10.98
11:31:21.562500,11.28
11:31:21.578125,11.21
11:31:21.593750,10.91
11:31:21.609375,10.58
11:31:21.625000,10.36
11:31:21.640625,10.28
11:31:21.656250,10.29
11:31:21.671875,10.23
11:31:21.687500,9.97
11:31:21.703125,9.49
11:31:21.718750,8.78
11:31:21.734375,7.93
11:31:21.750000,6.97
11:31:21.765625,5.90
11:31:21.781250,4.71
11:31:21.796875,3.36
11:31:21.812500,1.87
11:31:21.828125,0.27
11:31:21.843750,-1.38
11:31:21.859375,-3.02
11:31:21.875000,-4.58
11:31:21.890625,-5.95
11:31:21.906250,-6.98
11:31:21.921875,-7.46
11:31:21.937500,-7.18
11:31:21.953125,-6.01
11:31:21.968750,-3.93
11:31:21.984375,-1.09
11:31:22,2.17
11:31:22.015625,5.44
11:31:22.031250,8.34
11:31:22.046875,10.55
11:31:22.062500,11.95
11:31:22.078125,12.60
11:31:22.093750,12.72
11:31:22.109375,12.59
11:31:22.125000,12.52
11:31:22.140625,12.72
11:31:22.156250,13.28
11:31:22.171875,14.12
11:31:22.187500,15.05
11:31:22.203125,15.85
11:31:22.218750,16.31
11:31:22.234375,16.37
11:31:22.250000,16.08
11:31:22.265625,15.60
11:31:22.281250,15.09
11:31:22.296875,14.62
11:31:22.312500,14.19
11:31:22.328125,13.74
11:31:22.343750,13.22
11:31:22.359375,12.64
11:31:22.375000,12.00
11:31:22.390625,11.31
11:31:22.406250,10.48
11:31:22.421875,9.39
11:31:22.437500,7.96
11:31:22.453125,6.21
11:31:22.468750,4.29
11:31:22.484375,2.36
11:31:22.500000,0.57
11:31:22.515625,-1.01
11:31:22.531250,-2.40
11:31:22.546875,-3.60
11:31:22.562500,-4.55
11:31:22.578125,-5.06
11:31:22.593750,-4.88
11:31:22.609375,-3.88
11:31:22.625000,-2.10
11:31:22.640625,0.21
11:31:22.656250,2.69
11:31:22.671875,4.98
11:31:22.687500,6.83
11:31:22.703125,8.16
11:31:22.718750,9.04
11:31:22.734375,9.60
11:31:22.750000,10.00
11:31:22.765625,10.32
11:31:22.781250,10.56
11:31:22.796875,10.71
11:31:22.812500,10.71
11:31:22.828125,10.54
11:31:22.843750,10.17
11:31:22.859375,9.65
11:31:22.875000,8.98
11:31:22.890625,8.25
11:31:22.906250,7.52
11:31:22.921875,6.87
11:31:22.937500,6.35
11:31:22.953125,5.97
11:31:22.968750,5.68
11:31:22.984375,5.39
11:31:23,4.99
11:31:23.015625,4.42
11:31:23.031250,3.61
11:31:23.046875,2.55
11:31:23.062500,1.28
11:31:23.078125,-0.11
11:31:23.093750,-1.53
11:31:23.109375,-2.84
11:31:23.125000,-3.97
11:31:23.140625,-4.92
11:31:23.156250,-5.78
11:31:23.171875,-6.69
11:31:23.187500,-7.81
11:31:23.203125,-9.12
11:31:23.218750,-10.50
11:31:23.234375,-11.69
11:31:23.250000,-12.36
11:31:23.265625,-12.30
11:31:23.281250,-11.43
11:31:23.296875,-9.85
11:31:23.312500,-7.80
11:31:23.328125,-5.60
11:31:23.343750,-3.55
11:31:23.359375,-1.84
11:31:23.375000,-0.55
11:31:23.390625,0.36
11:31:23.406250,0.99
11:31:23.421875,1.47
11:31:23.437500,1.85
11:31:23.453125,2.09
11:31:23.468750,2.18
11:31:23.484375,2.09
11:31:23.500000,1.88
11:31:23.515625,1.70
11:31:23.531250,1.68
11:31:23.546875,1.87
11:31:23.562500,2.21
11:31:23.578125,2.51
11:31:23.593750,2.57
11:31:23.609375,2.25
11:31:23.625000,1.50
11:31:23.640625,0.41
11:31:23.656250,-0.86
11:31:23.671875,-2.17
11:31:23.687500,-3.36
11:31:23.703125,-4.41
11:31:23.718750,-5.37
11:31:23.734375,-6.39
11:31:23.750000,-7.57
11:31:23.765625,-8.99
11:31:23.781250,-10.59
11:31:23.796875,-12.20
11:31:23.812500,-13.67
11:31:23.828125,-14.93
11:31:23.843750,-16.04
11:31:23.859375,-17.14
11:31:23.875000,-18.34
11:31:23.890625,-19.55
11:31:23.906250,-20.50
11:31:23.921875,-20.84
11:31:23.937500,-20.23
11:31:23.953125,-18.62
11:31:23.968750,-16.19
11:31:23.984375,-13.28
11:31:24,-10.30
11:31:24.015625,-7.55
11:31:24.031250,-5.22
11:31:24.046875,-3.37
11:31:24.062500,-2.09
11:31:24.078125,-1.43
11:31:24.093750,-1.38
11:31:24.109375,-1.84
11:31:24.125000,-2.56
11:31:24.140625,-3.22
11:31:24.156250,-3.57
11:31:24.171875,-3.55
11:31:24.187500,-3.29
11:31:24.203125,-3.07
11:31:24.218750,-3.09
