17:38:07,-0.00
17:38:07.015625,-0.00
17:38:07.031250,-0.00
17:38:07.046875,-0.00
17:38:07.062500,-0.00
17:38:07.078125,-0.00
17:38:07.093750,-0.00
17:38:07.109375,-0.00
17:38:07.125000,-0.00
17:38:07.140625,-0.01
17:38:07.156250,-0.00
17:38:07.171875,0.00
17:38:07.187500,0.01
17:38:07.203125,0.01
17:38:07.218750,-0.00
17:38:07.234375,-0.03
17:38:07.250000,-0.05
17:38:07.265625,-0.05
17:38:07.281250,-0.00
17:38:07.296875,0.13
17:38:07.312500,0.36
17:38:07.328125,0.66
17:38:07.343750,1.01
17:38:07.359375,1.37
17:38:07.375000,1.72
17:38:07.390625,2.06
17:38:07.406250,2.40
17:38:07.421875,2.77
17:38:07.437500,3.24
17:38:07.453125,3.80
17:38:07.468750,4.42
17:38:07.484375,5.06
17:38:07.500000,5.66
17:38:07.515625,6.20
17:38:07.531250,6.68
17:38:07.546875,7.15
17:38:07.562500,7.64
17:38:07.578125,8.31
17:38:07.593750,9.14
17:38:07.609375,10.09
17:38:07.625000,11.04
17:38:07.640625,11.88
17:38:07.656250,12.56
17:38:07.671875,13.14
17:38:07.687500,13.76
17:38:07.703125,14.58
17:38:07.718750,15.96
17:38:07.734375,17.91
17:38:07.750000,20.32
17:38:07.765625,22.90
17:38:07.781250,25.38
17:38:07.796875,27.58
17:38:07.812500,29.57
17:38:07.828125,31.68
17:38:07.843750,34.20
17:38:07.859375,37.81
17:38:07.875000,42.54
17:38:07.890625,48.15
17:38:07.906250,54.10
17:38:07.921875,59.83
17:38:07.937500,64.97
17:38:07.953125,69.58
17:38:07.968750,74.14
17:38:07.984375,79.19
17:38:08,85.71
17:38:08.015625,93.76
17:38:08.031250,103.00
17:38:08.046875,112.62
17:38:08.062500,121.73
17:38:08.078125,129.77
17:38:08.093750,136.75
17:38:08.109375,144.29
17:38:08.125000,150.58
17:38:08.140625,157.77
17:38:08.156250,166.64
17:38:08.171875,177.95
17:38:08.187500,191.79
17:38:08.203125,206.97
17:38:08.218750,220.57
17:38:08.234375,228.25
17:38:08.250000,225.36
17:38:08.265625,208.38
17:38:08.281250,176.87
17:38:08.296875,132.76
17:38:08.312500,80.04
17:38:08.328125,23.07
17:38:08.343750,-34.93
17:38:08.359375,-92.40
17:38:08.375000,-149.12
17:38:08.390625,-205.21
17:38:08.406250,-260.53
17:38:08.421875,-313.87
17:38:08.437500,-364.11
17:38:08.453125,-410.17
17:38:08.468750,-451.31
17:38:08.484375,-486.92
17:38:08.500000,-516.13
17:38:08.515625,-537.60
17:38:08.531250,-549.59
17:38:08.546875,-550.48
17:38:08.562500,-538.93
17:38:08.578125,-514.92
17:38:08.593750,-479.53
17:38:08.609375,-434.81
17:38:08.625000,-383.38
17:38:08.640625,-327.88
17:38:08.656250,-270.62
17:38:08.671875,-213.41
17:38:08.687500,-157.59
17:38:08.703125,-104.08
17:38:08.718750,-53.81
17:38:08.734375,-7.61
17:38:08.750000,33.73
17:38:08.765625,69.61
17:38:08.781250,99.70
17:38:08.796875,124.00
17:38:08.812500,142.84
17:38:08.828125,156.78
17:38:08.843750,166.55
17:38:08.859375,172.89
17:38:08.875000,176.48
17:38:08.890625,177.87
17:38:08.906250,177.40
17:38:08.921875,175.25
17:38:08.937500,171.42
17:38:08.953125,165.89
17:38:08.968750,158.77
17:38:08.984375,150.37
17:38:09,141.25
17:38:09.015625,132.09
17:38:09.031250,123.50
17:38:09.046875,115.77
17:38:09.062500,108.76
17:38:09.078125,101.92
17:38:09.093750,94.57
17:38:09.109375,86.22
17:38:09.125000,76.87
17:38:09.140625,67.09
17:38:09.156250,57.78
17:38:09.171875,49.80
17:38:09.187500,43.55
17:38:09.203125,38.80
17:38:09.218750,34.75
17:38:09.234375,30.41
17:38:09.250000,24.96
17:38:09.265625,18.03
17:38:09.281250,9.74
17:38:09.296875,0.76
17:38:09.312500,-7.69
17:38:09.328125,-13.90
17:38:09.343750,-16.00
17:38:09.359375,-12.55
17:38:09.375000,-3.42
17:38:09.390625,9.75
17:38:09.406250,23.88
17:38:09.421875,35.50
17:38:09.437500,42.27
17:38:09.453125,43.99
17:38:09.468750,42.56
17:38:09.484375,40.91
17:38:09.500000,41.39
17:38:09.515625,44.59
17:38:09.531250,49.32
17:38:09.546875,53.48
17:38:09.562500,55.39
17:38:09.578125,54.59
17:38:09.593750,51.86
17:38:09.609375,48.47
17:38:09.625000,45.28
17:38:09.640625,42.35
17:38:09.656250,39.02
17:38:09.671875,34.60
17:38:09.687500,28.99
17:38:09.703125,22.94
17:38:09.718750,17.63
17:38:09.734375,14.03
17:38:09.750000,12.45
17:38:09.765625,12.65
17:38:09.781250,14.17
17:38:09.796875,16.68
17:38:09.812500,19.83
17:38:09.828125,22.88
17:38:09.843750,24.41
17:38:09.859375,22.57
17:38:09.875000,15.83
17:38:09.890625,3.89
17:38:09.906250,-11.86
17:38:09.921875,-28.79
17:38:09.937500,-44.13
17:38:09.953125,-55.86
17:38:09.968750,-63.29
17:38:09.984375,-66.81
17:38:10,-67.08
17:38:10.015625,-64.73
17:38:10.031250,-60.34
17:38:10.046875,-54.68
17:38:10.062500,-49.17
17:38:10.078125,-45.86
17:38:10.093750,-46.79
17:38:10.109375,-52.87
17:38:10.125000,-62.72
17:38:10.140625,-72.00
17:38:10.156250,-74.50
17:38:10.171875,-64.20
17:38:10.187500,-38.16
17:38:10.203125,1.61
17:38:10.218750,48.01
17:38:10.234375,91.02
17:38:10.250000,121.23
17:38:10.265625,133.28
17:38:10.281250,127.45
17:38:10.296875,108.78
17:38:10.312500,84.52
17:38:10.328125,60.99
17:38:10.343750,41.69
17:38:10.359375,27.06
17:38:10.375000,15.78
17:38:10.390625,6.50
17:38:10.406250,-1.00
17:38:10.421875,-5.83
17:38:10.437500,-6.91
17:38:10.453125,-4.20
17:38:10.468750,0.60
17:38:10.484375,4.14
17:38:10.500000,3.04
17:38:10.515625,-4.50
17:38:10.531250,-17.64
17:38:10.546875,-33.19
17:38:10.562500,-47.03
17:38:10.578125,-56.04
17:38:10.593750,-59.11
17:38:10.609375,-57.08
17:38:10.625000,-51.51
17:38:10.640625,-43.78
17:38:10.656250,-34.80
17:38:10.671875,-25.55
17:38:10.687500,-17.78
17:38:10.703125,-14.03
17:38:10.718750,-16.79
17:38:10.734375,-26.95
17:38:10.750000,-42.35
17:38:10.765625,-57.76
17:38:10.781250,-66.50
17:38:10.796875,-63.06
17:38:10.812500,-45.59
17:38:10.828125,-16.89
17:38:10.843750,16.95
17:38:10.859375,48.91
17:38:10.875000,73.70
17:38:10.890625,89.39
17:38:10.906250,97.34
17:38:10.921875,100.46
17:38:10.937500,100.95
17:38:10.953125,99.16
17:38:10.968750,92.82
17:38:10.984375,79.69
17:38:11,59.47
17:38:11.015625,35.00
17:38:11.031250,11.40
17:38:11.046875,-6.23
17:38:11.062500,-15.35
17:38:11.078125,-17.09
17:38:11.093750,-15.39
17:38:11.109375,-14.88
17:38:11.125000,-18.14
17:38:11.140625,-24.54
17:38:11.156250,-30.92
17:38:11.171875,-33.53
17:38:11.187500,-30.19
17:38:11.203125,-21.36
17:38:11.218750,-9.75
17:38:11.234375,1.20
17:38:11.250000,8.91
17:38:11.265625,12.66
17:38:11.281250,13.35
17:38:11.296875,12.72
17:38:11.312500,12.37
17:38:11.328125,12.90
17:38:11.343750,13.84
17:38:11.359375,14.07
17:38:11.375000,12.53
17:38:11.390625,8.76
17:38:11.406250,3.28
17:38:11.421875,-2.75
17:38:11.437500,-8.05
17:38:11.453125,-11.77
17:38:11.468750,-13.77
17:38:11.484375,-14.55
17:38:11.500000,-14.95
17:38:11.515625,-15.70
17:38:11.531250,-17.07
17:38:11.546875,-18.70
17:38:11.562500,-19.72
17:38:11.578125,-19.09
17:38:11.593750,-16.08
17:38:11.609375,-10.63
17:38:11.625000,-3.49
17:38:11.640625,3.99
17:38:11.656250,10.28
17:38:11.671875,14.30
17:38:11.687500,15.69
17:38:11.703125,14.96
17:38:11.718750,13.12
17:38:11.734375,11.21
17:38:11.750000,9.91
17:38:11.765625,9.42
17:38:11.781250,9.56
17:38:11.796875,10.10
17:38:11.812500,10.86
17:38:11.828125,11.74
17:38:11.843750,12.68
17:38:11.859375,13.58
17:38:11.875000,14.32
17:38:11.890625,14.84
17:38:11.906250,15.18
17:38:11.921875,15.49
17:38:11.937500,15.90
17:38:11.953125,16.64
17:38:11.968750,17.62
17:38:11.984375,18.46
17:38:12,18.60
17:38:12.015625,17.53
17:38:12.031250,14.91
17:38:12.046875,10.69
17:38:12.062500,5.12
17:38:12.078125,-1.20
17:38:12.093750,-7.39
17:38:12.109375,-12.43
17:38:12.125000,-15.38
17:38:12.140625,-15.67
17:38:12.156250,-13.30
17:38:12.171875,-8.90
17:38:12.187500,-3.68
17:38:12.203125,0.93
17:38:12.218750,3.59
17:38:12.234375,3.31
17:38:12.250000,-0.46
17:38:12.265625,-7.74
17:38:12.281250,-18.09
17:38:12.296875,-30.70
17:38:12.312500,-44.45
17:38:12.328125,-58.12
17:38:12.343750,-70.60
17:38:12.359375,-81.06
17:38:12.375000,-89.22
17:38:12.390625,-95.33
17:38:12.406250,-100.01
17:38:12.421875,-103.91
17:38:12.437500,-107.29
17:38:12.453125,-109.91
17:38:12.468750,-111.18
17:38:12.484375,-110.52
17:38:12.500000,-107.76
17:38:12.515625,-103.32
17:38:12.531250,-97.94
17:38:12.546875,-92.29
17:38:12.562500,-86.55
17:38:12.578125,-80.29
17:38:12.593750,-72.72
17:38:12.609375,-63.14
17:38:12.625000,-51.38
17:38:12.640625,-37.90
17:38:12.656250,-23.64
17:38:12.671875,-9.60
17:38:12.687500,3.55
17:38:12.703125,15.62
17:38:12.718750,26.75
17:38:12.734375,37.15
17:38:12.750000,46.73
17:38:12.765625,55.10
17:38:12.781250,61.67
17:38:12.796875,66.07
17:38:12.812500,68.40
17:38:12.828125,69.29
17:38:12.843750,69.71
17:38:12.859375,70.49
17:38:12.875000,72.00
17:38:12.890625,73.98
17:38:12.906250,75.78
17:38:12.921875,76.73
17:38:12.937500,76.48
17:38:12.953125,75.14
17:38:12.968750,73.07
17:38:12.984375,70.64
17:38:13,68.00
17:38:13.015625,65.07
17:38:13.031250,61.65
17:38:13.046875,57.75
17:38:13.062500,53.62
17:38:13.078125,49.75
17:38:13.093750,46.65
17:38:13.109375,44.65
17:38:13.125000,43.76
17:38:13.140625,43.72
17:38:13.156250,44.06
17:38:13.171875,44.30
17:38:13.187500,44.03
17:38:13.203125,43.03
17:38:13.218750,41.21
17:38:13.234375,38.63
17:38:13.250000,35.46
17:38:13.265625,31.95
17:38:13.281250,28.40
17:38:13.296875,25.10
17:38:13.312500,22.27
17:38:13.328125,19.91
17:38:13.343750,17.80
17:38:13.359375,15.47
17:38:13.375000,12.41
17:38:13.390625,8.20
17:38:13.406250,2.77
17:38:13.421875,-3.53
17:38:13.437500,-10.10
17:38:13.453125,-16.28
17:38:13.468750,-21.65
17:38:13.484375,-26.07
17:38:13.500000,-29.58
17:38:13.515625,-32.22
17:38:13.531250,-33.82
17:38:13.546875,-34.12
17:38:13.562500,-32.94
17:38:13.578125,-30.42
17:38:13.593750,-27.04
17:38:13.609375,-23.61
17:38:13.625000,-20.88
17:38:13.640625,-19.32
17:38:13.656250,-18.97
17:38:13.671875,-19.51
17:38:13.687500,-20.52
17:38:13.703125,-21.63
17:38:13.718750,-22.67
17:38:13.734375,-23.61
17:38:13.750000,-24.52
17:38:13.765625,-25.50
17:38:13.781250,-26.61
17:38:13.796875,-27.87
17:38:13.812500,-29.20
17:38:13.828125,-30.36
17:38:13.843750,-31.03
17:38:13.859375,-30.83
17:38:13.875000,-29.52
17:38:13.890625,-27.10
17:38:13.906250,-23.85
17:38:13.921875,-20.29
17:38:13.937500,-16.98
17:38:13.953125,-14.27
17:38:13.968750,-12.19
17:38:13.984375,-10.60
17:38:14,-9.25
17:38:14.015625,-8.05
17:38:14.031250,-7.06
17:38:14.046875,-6.44
17:38:14.062500,-6.30
17:38:14.078125,-6.59
17:38:14.093750,-7.07
17:38:14.109375,-7.35
17:38:14.125000,-7.06
17:38:14.140625,-6.02
17:38:14.156250,-4.29
17:38:14.171875,-2.21
17:38:14.187500,-0.26
17:38:14.203125,1.11
17:38:14.218750,1.64
17:38:14.234375,1.38
17:38:14.250000,0.68
17:38:14.265625,0.06
17:38:14.281250,0.06
17:38:14.296875,0.99
17:38:14.312500,2.88
17:38:14.328125,5.37
17:38:14.343750,7.82
17:38:14.359375,9.42
17:38:14.375000,9.37
17:38:14.390625,7.06
17:38:14.406250,2.31
17:38:14.421875,-4.45
17:38:14.437500,-12.20
17:38:14.453125,-19.53
17:38:14.468750,-25.02
17:38:14.484375,-27.62
17:38:14.500000,-26.98
17:38:14.515625,-23.36
17:38:14.531250,-17.52
17:38:14.546875,-10.38
17:38:14.562500,-2.76
17:38:14.578125,4.69
17:38:14.593750,11.54
17:38:14.609375,17.50
17:38:14.625000,22.32
17:38:14.640625,25.82
17:38:14.656250,27.90
17:38:14.671875,28.59
17:38:14.687500,28.05
17:38:14.703125,26.59
17:38:14.718750,24.58
17:38:14.734375,22.35
17:38:14.750000,20.14
17:38:14.765625,18.02
17:38:14.781250,15.92
17:38:14.796875,13.70
17:38:14.812500,11.35
17:38:14.828125,8.98
17:38:14.843750,6.81
17:38:14.859375,5.06
17:38:14.875000,3.78
17:38:14.890625,2.77
17:38:14.906250,1.65
17:38:14.921875,-0.01
17:38:14.937500,-2.46
17:38:14.953125,-5.68
17:38:14.968750,-9.34
17:38:14.984375,-12.86
17:38:15,-15.60
17:38:15.015625,-17.08
17:38:15.031250,-17.07
17:38:15.046875,-15.71
17:38:15.062500,-13.40
17:38:15.078125,-10.67
17:38:15.093750,-7.96
17:38:15.109375,-5.51
17:38:15.125000,-3.31
17:38:15.140625,-1.24
17:38:15.156250,0.81
17:38:15.171875,2.84
17:38:15.187500,4.64
17:38:15.203125,5.95
17:38:15.218750,6.49
17:38:15.234375,6.16
17:38:15.250000,5.06
17:38:15.265625,3.47
17:38:15.281250,1.84
17:38:15.296875,0.57
17:38:15.312500,0.02
17:38:15.328125,0.35
17:38:15.343750,1.54
17:38:15.359375,3.39
17:38:15.375000,5.55
17:38:15.390625,7.69
17:38:15.406250,9.51
17:38:15.421875,10.83
17:38:15.437500,11.57
17:38:15.453125,11.73
17:38:15.468750,11.36
17:38:15.484375,10.53
17:38:15.500000,9.35
17:38:15.515625,7.87
17:38:15.531250,6.10
17:38:15.546875,4.02
17:38:15.562500,1.57
17:38:15.578125,-1.17
17:38:15.593750,-3.99
17:38:15.609375,-6.48
17:38:15.625000,-8.16
17:38:15.640625,-8.68
17:38:15.656250,-7.99
17:38:15.671875,-6.41
17:38:15.687500,-4.44
17:38:15.703125,-2.57
17:38:15.718750,-1.08
17:38:15.734375,0.06
17:38:15.750000,1.06
17:38:15.765625,2.15
17:38:15.781250,3.40
17:38:15.796875,4.70
17:38:15.812500,5.88
17:38:15.828125,6.76
17:38:15.843750,7.32
17:38:15.859375,7.71
17:38:15.875000,8.17
17:38:15.890625,8.91
17:38:15.906250,10.03
17:38:15.921875,11.52
17:38:15.937500,13.28
17:38:15.953125,15.17
17:38:15.968750,17.15
17:38:15.984375,19.20
17:38:16,21.33
17:38:16.015625,23.54
17:38:16.031250,25.72
17:38:16.046875,27.68
17:38:16.062500,29.16
17:38:16.078125,29.96
17:38:16.093750,29.98
17:38:16.109375,29.29
17:38:16.125000,28.09
17:38:16.140625,26.65
17:38:16.156250,25.17
17:38:16.171875,23.78
17:38:16.187500,22.53
17:38:16.203125,21.45
17:38:16.218750,20.61
17:38:16.234375,20.23
17:38:16.250000,20.62
17:38:16.265625,22.17
17:38:16.281250,25.21
17:38:16.296875,29.85
17:38:16.312500,35.96
17:38:16.328125,43.08
17:38:16.343750,50.51
17:38:16.359375,57.48
17:38:16.375000,63.34
17:38:16.390625,67.77
17:38:16.406250,70.87
17:38:16.421875,73.09
17:38:16.437500,74.90
17:38:16.453125,76.44
17:38:16.468750,77.06
17:38:16.484375,75.22
17:38:16.500000,68.84
17:38:16.515625,56.07
17:38:16.531250,36.15
17:38:16.546875,10.07
17:38:16.562500,-19.63
17:38:16.578125,-49.61
17:38:16.593750,-76.85
17:38:16.609375,-99.59
17:38:16.625000,-117.42
17:38:16.640625,-130.79
17:38:16.656250,-140.27
17:38:16.671875,-146.03
17:38:16.687500,-147.91
17:38:16.703125,-145.83
17:38:16.718750,-140.25
17:38:16.734375,-132.18
17:38:16.750000,-122.76
17:38:16.765625,-112.75
17:38:16.781250,-102.27
17:38:16.796875,-90.96
17:38:16.812500,-78.51
17:38:16.828125,-64.99
17:38:16.843750,-51.08
17:38:16.859375,-37.72
17:38:16.875000,-25.79
17:38:16.890625,-15.86
17:38:16.906250,-8.18
17:38:16.921875,-2.69
17:38:16.937500,0.79
17:38:16.953125,2.62
17:38:16.968750,3.32
17:38:16.984375,3.57
17:38:17,4.07
17:38:17.015625,5.33
17:38:17.031250,7.60
17:38:17.046875,10.87
17:38:17.062500,15.00
17:38:17.078125,19.81
17:38:17.093750,25.12
17:38:17.109375,30.69
17:38:17.125000,36.15
17:38:17.140625,41.02
17:38:17.156250,44.84
17:38:17.171875,47.35
17:38:17.187500,48.66
17:38:17.203125,49.10
17:38:17.218750,49.01
17:38:17.234375,48.40
17:38:17.250000,46.82
17:38:17.265625,43.50
17:38:17.281250,37.79
17:38:17.296875,29.61
17:38:17.312500,19.70
17:38:17.328125,9.53
17:38:17.343750,0.72
17:38:17.359375,-5.58
17:38:17.375000,-9.10
17:38:17.390625,-10.38
17:38:17.406250,-10.35
17:38:17.421875,-9.64
17:38:17.437500,-8.28
17:38:17.453125,-5.75
17:38:17.468750,-1.41
17:38:17.484375,5.00
17:38:17.500000,13.07
17:38:17.515625,21.91
17:38:17.531250,30.54
17:38:17.546875,38.32
17:38:17.562500,45.14
17:38:17.578125,51.30
17:38:17.593750,57.24
17:38:17.609375,63.03
17:38:17.625000,68.20
17:38:17.640625,71.66
17:38:17.656250,72.01
17:38:17.671875,68.02
17:38:17.687500,59.05
17:38:17.703125,45.38
17:38:17.718750,28.07
17:38:17.734375,8.76
17:38:17.750000,-10.79
17:38:17.765625,-29.04
17:38:17.781250,-44.90
17:38:17.796875,-57.67
17:38:17.812500,-67.03
17:38:17.828125,-72.94
17:38:17.843750,-75.65
17:38:17.859375,-75.61
17:38:17.875000,-73.47
17:38:17.890625,-69.87
17:38:17.906250,-65.22
17:38:17.921875,-59.63
17:38:17.937500,-52.94
17:38:17.953125,-44.92
17:38:17.968750,-35.61
17:38:17.984375,-25.47
17:38:18,-15.37
17:38:18.015625,-6.42
17:38:18.031250,0.39
17:38:18.046875,4.58
17:38:18.062500,6.28
17:38:18.078125,6.16
17:38:18.093750,5.22
17:38:18.109375,4.48
17:38:18.125000,4.85
17:38:18.140625,7.04
17:38:18.156250,11.63
17:38:18.171875,18.93
17:38:18.187500,28.85
17:38:18.203125,40.74
17:38:18.218750,53.32
17:38:18.234375,64.88
17:38:18.250000,73.71
17:38:18.265625,78.57
17:38:18.281250,79.04
17:38:18.296875,75.52
17:38:18.312500,69.01
17:38:18.328125,60.64
17:38:18.343750,51.38
17:38:18.359375,41.80
17:38:18.375000,32.24
17:38:18.390625,22.96
17:38:18.406250,14.33
17:38:18.421875,6.84
17:38:18.437500,0.97
17:38:18.453125,-3.07
17:38:18.468750,-5.40
17:38:18.484375,-6.54
17:38:18.500000,-7.16
17:38:18.515625,-7.85
17:38:18.531250,-8.89
17:38:18.546875,-10.20
17:38:18.562500,-11.49
17:38:18.578125,-12.39
17:38:18.593750,-12.73
17:38:18.609375,-12.53
17:38:18.625000,-11.99
17:38:18.640625,-11.30
17:38:18.656250,-10.56
17:38:18.671875,-9.79
17:38:18.687500,-8.88
17:38:18.703125,-7.81
17:38:18.718750,-6.58
17:38:18.734375,-5.29
17:38:18.750000,-3.97
17:38:18.765625,-2.62
17:38:18.781250,-1.18
17:38:18.796875,0.34
17:38:18.812500,1.75
17:38:18.828125,2.72
17:38:18.843750,2.91
17:38:18.859375,2.15
17:38:18.875000,0.61
17:38:18.890625,-1.24
17:38:18.906250,-2.85
17:38:18.921875,-3.77
17:38:18.937500,-3.91
17:38:18.953125,-3.50
17:38:18.968750,-2.87
17:38:18.984375,-2.31
17:38:19,-1.83
17:38:19.015625,-1.23
17:38:19.031250,-0.25
17:38:19.046875,1.18
17:38:19.062500,2.89
17:38:19.078125,4.51
17:38:19.093750,5.59
17:38:19.109375,5.79
17:38:19.125000,4.99
17:38:19.140625,3.22
17:38:19.156250,0.66
17:38:19.171875,-2.45
17:38:19.187500,-5.84
17:38:19.203125,-9.26
17:38:19.218750,-12.47
17:38:19.234375,-15.36
17:38:19.250000,-17.94
17:38:19.265625,-20.36
17:38:19.281250,-22.85
17:38:19.296875,-25.65
17:38:19.312500,-28.83
17:38:19.328125,-32.23
17:38:19.343750,-35.52
17:38:19.359375,-38.31
17:38:19.375000,-40.24
17:38:19.390625,-41.18
17:38:19.406250,-41.16
17:38:19.421875,-40.41
17:38:19.437500,-39.27
17:38:19.453125,-38.06
17:38:19.468750,-37.00
17:38:19.484375,-36.14
17:38:19.500000,-35.40
17:38:19.515625,-34.60
17:38:19.531250,-33.66
17:38:19.546875,-32.62
17:38:19.562500,-31.70
17:38:19.578125,-31.03
17:38:19.593750,-30.59
17:38:19.609375,-30.05
17:38:19.625000,-28.94
17:38:19.640625,-26.87
17:38:19.656250,-23.86
17:38:19.671875,-20.34
17:38:19.687500,-16.96
17:38:19.703125,-14.12
17:38:19.718750,-11.77
17:38:19.734375,-9.41
17:38:19.750000,-6.53
17:38:19.765625,-2.98
17:38:19.781250,0.76
17:38:19.796875,3.77
17:38:19.812500,5.23
17:38:19.828125,4.88
17:38:19.843750,3.27
17:38:19.859375,1.54
17:38:19.875000,0.92
17:38:19.890625,2.23
17:38:19.906250,5.54
17:38:19.921875,10.20
17:38:19.937500,15.05
17:38:19.953125,18.83
17:38:19.968750,20.57
17:38:19.984375,19.79
17:38:20,16.70
17:38:20.015625,12.07
17:38:20.031250,7.00
17:38:20.046875,2.56
17:38:20.062500,-0.56
17:38:20.078125,-2.21
17:38:20.093750,-2.89
17:38:20.109375,-3.14
17:38:20.125000,-3.54
17:38:20.140625,-4.36
17:38:20.156250,-5.39
17:38:20.171875,-6.02
17:38:20.187500,-5.56
17:38:20.203125,-3.50
17:38:20.218750,0.29
17:38:20.234375,5.36
17:38:20.250000,11.04
17:38:20.265625,16.41
17:38:20.281250,20.74
17:38:20.296875,24.10
17:38:20.312500,27.46
17:38:20.328125,32.38
17:38:20.343750,40.34
17:38:20.359375,51.91
17:38:20.375000,66.05
17:38:20.390625,80.84
17:38:20.406250,93.43
17:38:20.421875,101.32
17:38:20.437500,103.62
17:38:20.453125,101.47
17:38:20.468750,97.76
17:38:20.484375,96.12
17:38:20.500000,99.86
17:38:20.515625,110.25
17:38:20.531250,127.83
17:38:20.546875,150.06
17:38:20.562500,172.53
17:38:20.578125,190.39
17:38:20.593750,199.57
17:38:20.609375,197.94
17:38:20.625000,185.65
17:38:20.640625,164.65
17:38:20.656250,136.28
17:38:20.671875,104.02
17:38:20.687500,69.55
17:38:20.703125,31.99
17:38:20.718750,-9.95
17:38:20.734375,-56.03
17:38:20.750000,-103.39
17:38:20.765625,-146.53
17:38:20.781250,-178.88
17:38:20.796875,-197.22
17:38:20.812500,-197.63
17:38:20.828125,-183.76
17:38:20.843750,-163.53
17:38:20.859375,-146.37
17:38:20.875000,-140.40
17:38:20.890625,-150.21
17:38:20.906250,-176.00
17:38:20.921875,-214.09
17:38:20.937500,-260.75
17:38:20.953125,-305.21
17:38:20.968750,-340.31
17:38:20.984375,-360.20
17:38:21,-361.08
17:38:21.015625,-341.83
17:38:21.031250,-304.10
17:38:21.046875,-251.57
17:38:21.062500,-172.39
17:38:21.078125,-94.70
17:38:21.093750,-18.93
17:38:21.109375,49.71
17:38:21.125000,104.76
17:38:21.140625,139.89
17:38:21.156250,151.06
17:38:21.171875,138.61
17:38:21.187500,107.98
17:38:21.203125,68.15
17:38:21.218750,26.15
17:38:21.234375,-7.82
17:38:21.250000,-31.56
17:38:21.265625,-47.21
17:38:21.281250,-59.10
17:38:21.296875,-70.78
17:38:21.312500,-82.89
17:38:21.328125,-92.44
17:38:21.343750,-94.35
17:38:21.359375,-86.25
17:38:21.375000,-64.40
17:38:21.390625,-31.92
17:38:21.406250,4.84
17:38:21.421875,38.99
17:38:21.437500,65.75
17:38:21.453125,83.79
17:38:21.468750,94.21
17:38:21.484375,98.41
17:38:21.500000,94.92
17:38:21.515625,83.48
17:38:21.531250,62.45
17:38:21.546875,32.85
17:38:21.562500,-0.46
17:38:21.578125,-29.75
17:38:21.593750,-47.39
17:38:21.609375,-48.87
17:38:21.625000,-34.41
17:38:21.640625,-9.08
17:38:21.656250,21.30
17:38:21.671875,50.30
17:38:21.687500,73.37
17:38:21.703125,88.53
17:38:21.718750,96.22
17:38:21.734375,98.56
17:38:21.750000,98.49
17:38:21.765625,98.75
17:38:21.781250,100.80
17:38:21.796875,105.11
17:38:21.812500,110.66
17:38:21.828125,116.25
17:38:21.843750,121.52
17:38:21.859375,127.25
17:38:21.875000,134.74
17:38:21.890625,144.59
17:38:21.906250,155.77
17:38:21.921875,165.54
17:38:21.937500,170.60
17:38:21.953125,168.63
17:38:21.968750,159.44
17:38:21.984375,145.05
17:38:22,128.67
17:38:22.015625,113.28
17:38:22.031250,100.50
17:38:22.046875,90.22
17:38:22.062500,81.13
17:38:22.078125,71.64
17:38:22.093750,60.69
17:38:22.109375,48.18
17:38:22.125000,34.69
17:38:22.140625,20.87
17:38:22.156250,6.91
17:38:22.171875,-7.56
17:38:22.187500,-23.02
17:38:22.203125,-39.20
17:38:22.218750,-54.52
17:38:22.234375,-66.09
17:38:22.250000,-70.66
17:38:22.265625,-65.85
17:38:22.281250,-51.19
17:38:22.296875,-28.42
17:38:22.312500,-1.00
17:38:22.328125,26.89
17:38:22.343750,51.20
17:38:22.359375,68.65
17:38:22.375000,77.05
17:38:22.390625,75.42
17:38:22.406250,64.32
17:38:22.421875,45.84
17:38:22.437500,23.32
17:38:22.453125,0.42
17:38:22.468750,-20.07
17:38:22.484375,-37.34
17:38:22.500000,-52.97
17:38:22.515625,-70.24
17:38:22.531250,-92.57
17:38:22.546875,-121.73
17:38:22.562500,-156.87
17:38:22.578125,-194.84
17:38:22.593750,-231.64
17:38:22.609375,-264.31
17:38:22.625000,-291.97
17:38:22.640625,-315.66
17:38:22.656250,-336.88
17:38:22.671875,-355.86
17:38:22.687500,-370.54
17:38:22.703125,-377.21
17:38:22.718750,-372.21
17:38:22.734375,-353.80
17:38:22.750000,-323.14
17:38:22.765625,-283.72
17:38:22.781250,-239.73
17:38:22.796875,-194.24
17:38:22.812500,-148.35
17:38:22.828125,-101.38
17:38:22.843750,-51.82
17:38:22.859375,1.52
17:38:22.875000,58.72
17:38:22.890625,118.17
17:38:22.906250,176.61
17:38:22.921875,229.52
17:38:22.937500,272.13
17:38:22.953125,300.67
17:38:22.968750,313.59
17:38:22.984375,311.98
17:38:23,299.10
17:38:23.015625,279.09
17:38:23.031250,255.62
17:38:23.046875,231.26
17:38:23.062500,207.66
17:38:23.078125,186.25
17:38:23.093750,168.70
17:38:23.109375,156.70
17:38:23.125000,151.17
17:38:23.140625,151.46
17:38:23.156250,155.29
17:38:23.171875,159.42
17:38:23.187500,161.00
17:38:23.203125,158.53
17:38:23.218750,152.21
17:38:23.234375,143.52
17:38:23.250000,134.30
17:38:23.265625,125.92
17:38:23.281250,118.89
17:38:23.296875,112.87
17:38:23.312500,107.04
17:38:23.328125,100.59
17:38:23.343750,93.05
17:38:23.359375,84.48
17:38:23.375000,75.34
17:38:23.390625,66.24
17:38:23.406250,57.66
17:38:23.421875,49.64
17:38:23.437500,41.82
17:38:23.453125,33.58
17:38:23.468750,24.39
17:38:23.484375,14.01
17:38:23.500000,2.50
17:38:23.515625,-10.11
17:38:23.531250,-24.14
17:38:23.546875,-40.30
17:38:23.562500,-59.44
17:38:23.578125,-81.75
17:38:23.593750,-106.30
17:38:23.609375,-130.78
17:38:23.625000,-152.07
17:38:23.640625,-167.19
17:38:23.656250,-174.28
17:38:23.671875,-173.20
17:38:23.687500,-165.46
17:38:23.703125,-153.70
17:38:23.718750,-140.79
17:38:23.734375,-128.99
17:38:23.750000,-119.33
17:38:23.765625,-111.54
17:38:23.781250,-104.28
17:38:23.796875,-95.93
17:38:23.812500,-85.30
17:38:23.828125,-72.24
17:38:23.843750,-57.60
17:38:23.859375,-42.74
17:38:23.875000,-28.90
17:38:23.890625,-16.73
17:38:23.906250,-6.40
17:38:23.921875,2.12
17:38:23.937500,8.76
17:38:23.953125,13.33
17:38:23.968750,15.88
17:38:23.984375,16.98
17:38:24,17.74
17:38:24.015625,19.44
17:38:24.031250,22.95
17:38:24.046875,28.42
17:38:24.062500,35.15
17:38:24.078125,41.87
17:38:24.093750,47.17
17:38:24.109375,49.77
17:38:24.125000,48.72
17:38:24.140625,43.52
17:38:24.156250,34.05
17:38:24.171875,20.65
17:38:24.187500,4.12
17:38:24.203125,-14.31
17:38:24.218750,-33.25
17:38:24.234375,-51.27
17:38:24.250000,-67.16
17:38:24.265625,-79.95
17:38:24.281250,-88.89
17:38:24.296875,-93.50
17:38:24.312500,-93.57
17:38:24.328125,-89.21
17:38:24.343750,-80.89
17:38:24.359375,-69.38
17:38:24.375000,-55.71
17:38:24.390625,-40.97
17:38:24.406250,-26.19
17:38:24.421875,-12.12
17:38:24.437500,0.73
17:38:24.453125,12.04
17:38:24.468750,21.53
17:38:24.484375,28.90
17:38:24.500000,33.91
17:38:24.515625,36.47
17:38:24.531250,36.81
17:38:24.546875,35.48
17:38:24.562500,33.23
17:38:24.578125,30.82
17:38:24.593750,28.87
17:38:24.609375,27.74
17:38:24.625000,27.47
17:38:24.640625,27.90
17:38:24.656250,28.69
17:38:24.671875,29.51
17:38:24.687500,30.09
17:38:24.703125,30.30
17:38:24.718750,30.10
17:38:24.734375,29.50
17:38:24.750000,28.40
17:38:24.765625,26.62
17:38:24.781250,24.03
17:38:24.796875,20.70
17:38:24.812500,17.16
17:38:24.828125,14.27
17:38:24.843750,12.92
17:38:24.859375,13.48
17:38:24.875000,15.57
17:38:24.890625,18.00
17:38:24.906250,19.30
17:38:24.921875,18.37
17:38:24.937500,15.05
17:38:24.953125,10.12
17:38:24.968750,4.84
17:38:24.984375,0.29
17:38:25,-3.15
17:38:25.015625,-5.80
17:38:25.031250,-8.19
17:38:25.046875,-10.53
17:38:25.062500,-12.48
17:38:25.078125,-13.47
17:38:25.093750,-13.20
17:38:25.109375,-12.23
17:38:25.125000,-11.80
17:38:25.140625,-13.36
17:38:25.156250,-17.61
17:38:25.171875,-23.91
17:38:25.187500,-30.55
17:38:25.203125,-35.74
17:38:25.218750,-38.68
17:38:25.234375,-40.01
17:38:25.250000,-41.36
17:38:25.265625,-44.39
17:38:25.281250,-49.88
17:38:25.296875,-57.31
17:38:25.312500,-65.05
17:38:25.328125,-71.25
17:38:25.343750,-74.50
17:38:25.359375,-74.31
17:38:25.375000,-70.94
17:38:25.390625,-64.96
17:38:25.406250,-57.01
17:38:25.421875,-47.84
17:38:25.437500,-38.12
17:38:25.453125,-28.29
17:38:25.468750,-18.47
17:38:25.484375,-8.42
17:38:25.500000,2.54
17:38:25.515625,15.61
17:38:25.531250,32.29
17:38:25.546875,53.67
17:38:25.562500,79.07
17:38:25.578125,106.34
17:38:25.593750,132.52
17:38:25.609375,154.73
17:38:25.625000,170.90
17:38:25.640625,180.05
17:38:25.656250,182.52
17:38:25.671875,179.42
17:38:25.687500,171.95
17:38:25.703125,159.32
17:38:25.718750,140.51
17:38:25.734375,115.88
17:38:25.750000,88.08
17:38:25.765625,61.23
17:38:25.781250,39.18
17:38:25.796875,24.32
17:38:25.812500,16.93
17:38:25.828125,15.48
17:38:25.843750,15.36
17:38:25.859375,12.90
17:38:25.875000,7.49
17:38:25.890625,1.46
17:38:25.906250,-2.65
17:38:25.921875,-4.85
17:38:25.937500,-7.54
17:38:25.953125,-14.26
17:38:25.968750,-27.58
17:38:25.984375,-50.88
17:38:26,-84.97
17:38:26.015625,-127.35
17:38:26.031250,-173.18
17:38:26.046875,-218.05
17:38:26.062500,-260.20
17:38:26.078125,-299.10
17:38:26.093750,-334.63
17:38:26.109375,-346.76
17:38:26.125000,-321.31
17:38:26.140625,-259.19
17:38:26.156250,-177.63
17:38:26.171875,-96.81
17:38:26.187500,-28.68
17:38:26.203125,23.20
17:38:26.218750,60.97
17:38:26.234375,88.42
17:38:26.250000,109.30
17:38:26.265625,123.35
17:38:26.281250,129.57
17:38:26.296875,128.19
17:38:26.312500,121.55
17:38:26.328125,112.59
17:38:26.343750,101.42
17:38:26.359375,89.36
17:38:26.375000,77.30
17:38:26.390625,66.06
17:38:26.406250,53.90
17:38:26.421875,38.84
17:38:26.437500,20.06
17:38:26.453125,-1.58
17:38:26.468750,-19.83
17:38:26.484375,-33.97
17:38:26.500000,-44.11
17:38:26.515625,-50.44
17:38:26.531250,-52.82
17:38:26.546875,-52.84
17:38:26.562500,-52.29
17:38:26.578125,-52.42
17:38:26.593750,-53.29
17:38:26.609375,-54.30
17:38:26.625000,-55.65
17:38:26.640625,-57.28
17:38:26.656250,-59.77
17:38:26.671875,-63.75
17:38:26.687500,-69.77
17:38:26.703125,-76.35
17:38:26.718750,-79.37
17:38:26.734375,-73.19
17:38:26.750000,-53.62
17:38:26.765625,-21.20
17:38:26.781250,19.20
17:38:26.796875,59.47
17:38:26.812500,91.81
17:38:26.828125,111.33
17:38:26.843750,117.90
17:38:26.859375,115.15
17:38:26.875000,108.32
17:38:26.890625,101.67
17:38:26.906250,96.88
17:38:26.921875,94.28
17:38:26.937500,93.77
17:38:26.953125,96.10
17:38:26.968750,102.24
17:38:26.984375,111.91
17:38:27,122.33
17:38:27.015625,128.76
17:38:27.031250,125.65
17:38:27.046875,109.20
17:38:27.062500,79.96
17:38:27.078125,42.61
17:38:27.093750,4.56
17:38:27.109375,-27.46
17:38:27.125000,-49.93
17:38:27.140625,-63.28
17:38:27.156250,-70.62
17:38:27.171875,-75.78
17:38:27.187500,-81.18
17:38:27.203125,-86.06
17:38:27.218750,-90.71
17:38:27.234375,-94.91
17:38:27.250000,-99.22
17:38:27.265625,-104.98
17:38:27.281250,-113.66
17:38:27.296875,-125.62
17:38:27.312500,-139.27
17:38:27.328125,-150.71
17:38:27.343750,-154.48
17:38:27.359375,-146.02
17:38:27.375000,-123.41
17:38:27.390625,-89.25
17:38:27.406250,-50.08
17:38:27.421875,-14.06
17:38:27.437500,12.47
17:38:27.453125,27.16
17:38:27.468750,32.01
17:38:27.484375,31.42
17:38:27.500000,29.33
17:38:27.515625,27.91
17:38:27.531250,27.18
17:38:27.546875,26.36
17:38:27.562500,25.36
17:38:27.578125,25.31
17:38:27.593750,27.80
17:38:27.609375,33.72
17:38:27.625000,42.18
17:38:27.640625,50.82
17:38:27.656250,57.31
17:38:27.671875,60.14
17:38:27.687500,59.68
17:38:27.703125,57.81
17:38:27.718750,56.91
17:38:27.734375,58.59
17:38:27.750000,62.95
17:38:27.765625,68.51
17:38:27.781250,72.89
17:38:27.796875,74.19
17:38:27.812500,71.80
17:38:27.828125,66.82
17:38:27.843750,61.80
17:38:27.859375,59.93
17:38:27.875000,63.78
17:38:27.890625,74.17
17:38:27.906250,88.96
17:38:27.921875,103.01
17:38:27.937500,109.47
17:38:27.953125,101.91
17:38:27.968750,77.01
17:38:27.984375,36.23
17:38:28,-14.05
17:38:28.015625,-64.30
17:38:28.031250,-104.62
17:38:28.046875,-127.80
17:38:28.062500,-131.35
17:38:28.078125,-117.81
17:38:28.093750,-93.58
17:38:28.109375,-66.73
17:38:28.125000,-44.53
17:38:28.140625,-31.49
17:38:28.156250,-28.28
17:38:28.171875,-31.81
17:38:28.187500,-36.59
17:38:28.203125,-36.77
17:38:28.218750,-28.31
17:38:28.234375,-10.50
17:38:28.250000,14.30
17:38:28.265625,42.01
17:38:28.281250,68.59
17:38:28.296875,91.37
17:38:28.312500,109.30
17:38:28.328125,122.27
17:38:28.343750,130.48
17:38:28.359375,133.83
17:38:28.375000,131.71
17:38:28.390625,123.76
17:38:28.406250,110.33
17:38:28.421875,92.55
17:38:28.437500,72.16
17:38:28.453125,50.98
17:38:28.468750,30.48
17:38:28.484375,11.42
17:38:28.500000,-5.07
17:38:28.515625,-17.97
17:38:28.531250,-26.44
17:38:28.546875,-30.44
17:38:28.562500,-31.52
17:38:28.578125,-33.21
17:38:28.593750,-40.45
17:38:28.609375,-57.70
17:38:28.625000,-86.32
17:38:28.640625,-122.50
17:38:28.656250,-157.43
17:38:28.671875,-180.05
17:38:28.687500,-181.64
17:38:28.703125,-160.03
17:38:28.718750,-121.12
17:38:28.734375,-76.53
17:38:28.750000,-38.44
17:38:28.765625,-14.21
17:38:28.781250,-3.71
17:38:28.796875,-0.68
17:38:28.812500,2.83
17:38:28.828125,11.68
17:38:28.843750,25.62
17:38:28.859375,40.33
17:38:28.875000,50.73
17:38:28.890625,54.23
17:38:28.906250,51.84
17:38:28.921875,46.83
17:38:28.937500,42.09
17:38:28.953125,38.25
17:38:28.968750,33.57
17:38:28.984375,25.78
17:38:29,14.25
17:38:29.015625,1.25
17:38:29.031250,-8.73
17:38:29.046875,-11.20
17:38:29.062500,-4.11
17:38:29.078125,10.84
17:38:29.093750,28.88
17:38:29.109375,43.99
17:38:29.125000,51.32
17:38:29.140625,48.99
17:38:29.156250,38.67
17:38:29.171875,24.54
17:38:29.187500,11.19
17:38:29.203125,1.56
17:38:29.218750,-4.14
17:38:29.234375,-8.04
17:38:29.250000,-13.09
17:38:29.265625,-21.05
17:38:29.281250,-31.32
17:38:29.296875,-41.14
17:38:29.312500,-47.10
17:38:29.328125,-47.08
17:38:29.343750,-41.20
17:38:29.359375,-31.57
17:38:29.375000,-20.80
17:38:29.390625,-10.54
17:38:29.406250,-0.88
17:38:29.421875,8.92
17:38:29.437500,19.33
17:38:29.453125,29.81
17:38:29.468750,39.09
17:38:29.484375,46.16
17:38:29.500000,51.14
17:38:29.515625,55.35
17:38:29.531250,60.50
17:38:29.546875,67.57
17:38:29.562500,76.04
17:38:29.578125,83.81
17:38:29.593750,88.30
17:38:29.609375,87.64
17:38:29.625000,81.48
17:38:29.640625,70.78
17:38:29.656250,57.08
17:38:29.671875,41.70
17:38:29.687500,25.37
17:38:29.703125,8.37
17:38:29.718750,-8.93
17:38:29.734375,-25.60
17:38:29.750000,-40.08
17:38:29.765625,-50.55
17:38:29.781250,-55.55
17:38:29.796875,-54.54
17:38:29.812500,-48.16
17:38:29.828125,-37.99
17:38:29.843750,-25.98
17:38:29.859375,-13.86
17:38:29.875000,-2.82
17:38:29.890625,6.52
17:38:29.906250,13.94
17:38:29.921875,19.38
17:38:29.937500,22.74
17:38:29.953125,23.70
17:38:29.968750,21.76
17:38:29.984375,16.73
17:38:30,9.13
17:38:30.015625,0.31
17:38:30.031250,-7.82
17:38:30.046875,-13.35
17:38:30.062500,-15.07
17:38:30.078125,-12.95
17:38:30.093750,-8.11
17:38:30.109375,-2.38
17:38:30.125000,2.48
17:38:30.140625,5.41
17:38:30.156250,6.07
17:38:30.171875,4.51
17:38:30.187500,0.72
17:38:30.203125,-5.66
17:38:30.218750,-15.03
17:38:30.234375,-27.29
17:38:30.250000,-41.62
17:38:30.265625,-56.60
17:38:30.281250,-70.80
17:38:30.296875,-83.17
17:38:30.312500,-93.36
17:38:30.328125,-101.48
17:38:30.343750,-107.53
17:38:30.359375,-110.93
17:38:30.375000,-110.70
17:38:30.390625,-106.13
17:38:30.406250,-97.72
17:38:30.421875,-87.53
17:38:30.437500,-78.47
17:38:30.453125,-72.93
17:38:30.468750,-71.70
17:38:30.484375,-73.44
17:38:30.500000,-75.32
17:38:30.515625,-74.47
17:38:30.531250,-69.44
17:38:30.546875,-60.83
17:38:30.562500,-50.78
17:38:30.578125,-41.59
17:38:30.593750,-34.32
17:38:30.609375,-28.36
17:38:30.625000,-21.92
17:38:30.640625,-13.32
17:38:30.656250,-2.02
17:38:30.671875,11.31
17:38:30.687500,25.52
17:38:30.703125,39.75
17:38:30.718750,53.91
17:38:30.734375,68.52
17:38:30.750000,83.89
17:38:30.765625,99.40
17:38:30.781250,113.49
17:38:30.796875,124.51
17:38:30.812500,131.47
17:38:30.828125,134.61
17:38:30.843750,135.15
17:38:30.859375,134.53
17:38:30.875000,133.35
17:38:30.890625,130.79
17:38:30.906250,124.76
17:38:30.921875,112.72
17:38:30.937500,92.99
17:38:30.953125,65.88
17:38:30.968750,34.36
17:38:30.984375,3.34
17:38:31,-21.92
17:38:31.015625,-37.69
17:38:31.031250,-42.92
17:38:31.046875,-39.24
17:38:31.062500,-29.97
17:38:31.078125,-18.45
17:38:31.093750,-6.82
17:38:31.109375,4.28
17:38:31.125000,15.22
17:38:31.140625,26.34
17:38:31.156250,37.28
17:38:31.171875,46.88
17:38:31.187500,53.76
17:38:31.203125,56.87
17:38:31.218750,55.88
17:38:31.234375,51.18
17:38:31.250000,43.65
17:38:31.265625,34.37
17:38:31.281250,24.31
17:38:31.296875,14.38
17:38:31.312500,5.26
17:38:31.328125,-2.51
17:38:31.343750,-8.64
17:38:31.359375,-13.12
17:38:31.375000,-16.22
17:38:31.390625,-18.48
17:38:31.406250,-20.46
17:38:31.421875,-22.57
17:38:31.437500,-24.91
17:38:31.453125,-27.40
17:38:31.468750,-29.86
17:38:31.484375,-31.96
17:38:31.500000,-33.18
17:38:31.515625,-32.99
17:38:31.531250,-31.16
17:38:31.546875,-28.13
17:38:31.562500,-25.04
17:38:31.578125,-23.37
17:38:31.593750,-24.13
17:38:31.609375,-26.93
17:38:31.625000,-29.91
17:38:31.640625,-30.29
17:38:31.656250,-25.58
17:38:31.671875,-14.66
17:38:31.687500,1.37
17:38:31.703125,19.20
17:38:31.718750,34.40
17:38:31.734375,42.75
17:38:31.750000,41.63
17:38:31.765625,30.68
17:38:31.781250,11.97
17:38:31.796875,-10.98
17:38:31.812500,-34.56
17:38:31.828125,-56.15
17:38:31.843750,-74.58
17:38:31.859375,-90.00
17:38:31.875000,-103.19
17:38:31.890625,-114.75
17:38:31.906250,-124.46
17:38:31.921875,-131.36
17:38:31.937500,-134.31
17:38:31.953125,-132.49
17:38:31.968750,-125.76
17:38:31.984375,-114.74
17:38:32,-100.64
17:38:32.015625,-85.08
17:38:32.031250,-69.83
17:38:32.046875,-56.38
17:38:32.062500,-45.53
17:38:32.078125,-37.34
17:38:32.093750,-31.27
17:38:32.109375,-26.45
17:38:32.125000,-21.66
17:38:32.140625,-15.55
17:38:32.156250,-7.08
17:38:32.171875,4.09
17:38:32.187500,17.25
17:38:32.203125,30.69
17:38:32.218750,42.30
17:38:32.234375,50.31
17:38:32.250000,53.86
17:38:32.265625,53.13
17:38:32.281250,49.16
17:38:32.296875,43.53
17:38:32.312500,37.72
17:38:32.328125,32.73
17:38:32.343750,29.16
17:38:32.359375,27.29
17:38:32.375000,27.17
17:38:32.390625,28.45
17:38:32.406250,30.41
17:38:32.421875,32.10
17:38:32.437500,32.65
17:38:32.453125,31.42
17:38:32.468750,28.04
17:38:32.484375,22.26
17:38:32.500000,13.88
17:38:32.515625,2.96
17:38:32.531250,-10.02
17:38:32.546875,-24.05
17:38:32.562500,-37.53
17:38:32.578125,-48.48
17:38:32.593750,-55.03
17:38:32.609375,-56.21
17:38:32.625000,-52.69
17:38:32.640625,-46.85
17:38:32.656250,-41.96
17:38:32.671875,-40.81
17:38:32.687500,-44.46
17:38:32.703125,-51.56
17:38:32.718750,-58.72
17:38:32.734375,-61.62
17:38:32.750000,-56.61
17:38:32.765625,-42.01
17:38:32.781250,-18.77
17:38:32.796875,10.09
17:38:32.812500,40.55
17:38:32.828125,68.67
17:38:32.843750,91.34
17:38:32.859375,106.53
17:38:32.875000,113.22
17:38:32.890625,111.41
17:38:32.906250,102.24
17:38:32.921875,87.99
17:38:32.937500,71.90
17:38:32.953125,57.59
17:38:32.968750,48.26
17:38:32.984375,45.59
17:38:33,49.00
17:38:33.015625,55.68
17:38:33.031250,61.71
17:38:33.046875,63.68
17:38:33.062500,59.92
17:38:33.078125,50.81
17:38:33.093750,38.34
17:38:33.109375,25.03
17:38:33.125000,13.00
17:38:33.140625,3.46
17:38:33.156250,-3.34
17:38:33.171875,-7.76
17:38:33.187500,-10.29
17:38:33.203125,-11.21
17:38:33.218750,-10.59
17:38:33.234375,-8.50
17:38:33.250000,-5.19
17:38:33.265625,-0.95
17:38:33.281250,3.97
17:38:33.296875,9.36
17:38:33.312500,14.99
17:38:33.328125,20.59
17:38:33.343750,25.80
17:38:33.359375,30.04
17:38:33.375000,32.49
17:38:33.390625,32.35
17:38:33.406250,29.09
17:38:33.421875,22.72
17:38:33.437500,13.98
17:38:33.453125,4.09
17:38:33.468750,-5.58
17:38:33.484375,-13.85
17:38:33.500000,-19.72
17:38:33.515625,-22.48
17:38:33.531250,-21.75
17:38:33.546875,-17.71
17:38:33.562500,-10.99
17:38:33.578125,-2.50
17:38:33.593750,6.87
17:38:33.609375,16.48
17:38:33.625000,26.16
17:38:33.640625,35.88
17:38:33.656250,45.36
17:38:33.671875,53.72
17:38:33.687500,59.41
17:38:33.703125,60.63
17:38:33.718750,55.84
17:38:33.734375,44.35
17:38:33.750000,26.42
17:38:33.765625,3.16
17:38:33.781250,-23.41
17:38:33.796875,-50.35
17:38:33.812500,-74.23
17:38:33.828125,-91.65
17:38:33.843750,-100.29
17:38:33.859375,-99.79
17:38:33.875000,-92.14
17:38:33.890625,-80.91
17:38:33.906250,-69.80
17:38:33.921875,-61.20
17:38:33.937500,-55.21
17:38:33.953125,-49.82
17:38:33.968750,-42.23
17:38:33.984375,-30.74
17:38:34,-16.05
17:38:34.015625,-1.19
17:38:34.031250,9.68
17:38:34.046875,13.11
17:38:34.062500,8.09
17:38:34.078125,-3.06
17:38:34.093750,-15.27
17:38:34.109375,-22.65
17:38:34.125000,-20.77
17:38:34.140625,-8.68
17:38:34.156250,10.54
17:38:34.171875,30.85
17:38:34.187500,45.83
17:38:34.203125,51.26
17:38:34.218750,46.74
17:38:34.234375,35.47
17:38:34.250000,22.52
17:38:34.265625,12.19
17:38:34.281250,6.11
17:38:34.296875,3.21
17:38:34.312500,1.17
17:38:34.328125,-1.65
17:38:34.343750,-5.40
17:38:34.359375,-9.19
17:38:34.375000,-12.49
17:38:34.390625,-16.03
17:38:34.406250,-21.63
17:38:34.421875,-30.79
17:38:34.437500,-43.11
17:38:34.453125,-55.83
17:38:34.468750,-64.89
17:38:34.484375,-67.08
17:38:34.500000,-61.96
17:38:34.515625,-52.01
17:38:34.531250,-41.07
17:38:34.546875,-31.73
17:38:34.562500,-23.51
17:38:34.578125,-12.92
17:38:34.593750,4.65
17:38:34.609375,32.14
17:38:34.625000,68.56
17:38:34.640625,108.47
17:38:34.656250,143.31
17:38:34.671875,163.99
17:38:34.687500,163.48
17:38:34.703125,138.84
17:38:34.718750,92.19
17:38:34.734375,30.38
17:38:34.750000,-36.16
17:38:34.765625,-95.52
17:38:34.781250,-137.15
17:38:34.796875,-154.62
17:38:34.812500,-147.41
17:38:34.828125,-120.77
17:38:34.843750,-83.91
17:38:34.859375,-47.20
17:38:34.875000,-19.27
17:38:34.890625,-4.95
17:38:34.906250,-4.77
17:38:34.921875,-15.74
17:38:34.937500,-32.75
17:38:34.953125,-50.07
17:38:34.968750,-62.66
17:38:34.984375,-67.29
17:38:35,-63.18
17:38:35.015625,-52.09
17:38:35.031250,-37.40
17:38:35.046875,-22.74
17:38:35.062500,-10.65
17:38:35.078125,-2.05
17:38:35.093750,3.45
17:38:35.109375,6.77
17:38:35.125000,8.67
17:38:35.140625,9.50
17:38:35.156250,9.30
17:38:35.171875,8.30
17:38:35.187500,7.19
17:38:35.203125,6.86
17:38:35.218750,7.91
17:38:35.234375,10.05
17:38:35.250000,12.14
17:38:35.265625,12.70
17:38:35.281250,10.84
17:38:35.296875,6.99
17:38:35.312500,2.90
17:38:35.328125,0.90
17:38:35.343750,2.82
17:38:35.359375,9.05
17:38:35.375000,18.16
17:38:35.390625,27.63
17:38:35.406250,35.16
17:38:35.421875,39.80
17:38:35.437500,42.21
17:38:35.453125,43.96
17:38:35.468750,46.41
17:38:35.484375,49.76
17:38:35.500000,53.11
17:38:35.515625,55.27
17:38:35.531250,55.68
17:38:35.546875,54.86
17:38:35.562500,54.10
17:38:35.578125,54.54
17:38:35.593750,56.18
17:38:35.609375,57.76
17:38:35.625000,57.60
17:38:35.640625,54.82
17:38:35.656250,49.92
17:38:35.671875,44.62
17:38:35.687500,40.92
17:38:35.703125,40.15
17:38:35.718750,42.19
17:38:35.734375,45.34
17:38:35.750000,46.86
17:38:35.765625,44.05
17:38:35.781250,35.36
17:38:35.796875,21.08
17:38:35.812500,3.14
17:38:35.828125,-15.88
17:38:35.843750,-33.50
17:38:35.859375,-47.83
17:38:35.875000,-57.68
17:38:35.890625,-62.57
17:38:35.906250,-62.74
17:38:35.921875,-59.29
17:38:35.937500,-54.12
17:38:35.953125,-49.73
17:38:35.968750,-48.53
17:38:35.984375,-52.00
17:38:36,-59.92
17:38:36.015625,-70.11
17:38:36.031250,-79.39
17:38:36.046875,-85.00
17:38:36.062500,-85.69
17:38:36.078125,-81.68
17:38:36.093750,-74.11
17:38:36.109375,-64.35
17:38:36.125000,-53.42
17:38:36.140625,-41.94
17:38:36.156250,-30.45
17:38:36.171875,-19.39
17:38:36.187500,-9.15
17:38:36.203125,-0.25
17:38:36.218750,6.64
17:38:36.234375,10.71
17:38:36.250000,11.22
17:38:36.265625,7.52
17:38:36.281250,-0.69
17:38:36.296875,-12.72
17:38:36.312500,-26.51
17:38:36.328125,-38.77
17:38:36.343750,-45.86
17:38:36.359375,-45.17
17:38:36.375000,-36.44
17:38:36.390625,-22.19
17:38:36.406250,-6.78
17:38:36.421875,5.31
17:38:36.437500,11.27
17:38:36.453125,11.00
17:38:36.468750,6.99
17:38:36.484375,2.89
17:38:36.500000,1.55
17:38:36.515625,3.74
17:38:36.531250,8.37
17:38:36.546875,13.54
17:38:36.562500,18.11
17:38:36.578125,22.51
17:38:36.593750,28.46
17:38:36.609375,37.51
17:38:36.625000,49.53
17:38:36.640625,62.44
17:38:36.656250,72.95
17:38:36.671875,78.13
17:38:36.687500,76.89
17:38:36.703125,70.50
17:38:36.718750,61.72
17:38:36.734375,53.20
17:38:36.750000,46.31
17:38:36.765625,40.80
17:38:36.781250,35.48
17:38:36.796875,29.27
17:38:36.812500,21.98
17:38:36.828125,14.08
17:38:36.843750,5.97
17:38:36.859375,-2.63
17:38:36.875000,-12.58
17:38:36.890625,-24.81
17:38:36.906250,-39.50
17:38:36.921875,-55.47
17:38:36.937500,-70.38
17:38:36.953125,-81.71
17:38:36.968750,-87.78
17:38:36.984375,-88.21
17:38:37,-83.66
17:38:37.015625,-75.40
17:38:37.031250,-64.76
17:38:37.046875,-52.97
17:38:37.062500,-41.34
17:38:37.078125,-31.59
17:38:37.093750,-25.47
17:38:37.109375,-23.95
17:38:37.125000,-26.56
17:38:37.140625,-31.28
17:38:37.156250,-35.15
17:38:37.171875,-35.53
17:38:37.187500,-31.43
17:38:37.203125,-23.91
17:38:37.218750,-15.28
17:38:37.234375,-7.92
17:38:37.250000,-3.27
17:38:37.265625,-1.40
17:38:37.281250,-1.17
17:38:37.296875,-0.94
17:38:37.312500,0.76
17:38:37.328125,4.76
17:38:37.343750,10.85
17:38:37.359375,17.81
17:38:37.375000,23.87
17:38:37.390625,27.59
17:38:37.406250,28.40
17:38:37.421875,26.83
17:38:37.437500,24.06
17:38:37.453125,21.21
17:38:37.468750,18.71
17:38:37.484375,16.02
17:38:37.500000,11.99
17:38:37.515625,5.77
17:38:37.531250,-2.55
17:38:37.546875,-11.71
17:38:37.562500,-19.88
17:38:37.578125,-25.64
17:38:37.593750,-28.73
17:38:37.609375,-29.94
17:38:37.625000,-30.23
17:38:37.640625,-29.98
17:38:37.656250,-28.67
17:38:37.671875,-25.29
17:38:37.687500,-19.29
17:38:37.703125,-11.36
17:38:37.718750,-3.56
17:38:37.734375,1.49
17:38:37.750000,1.84
17:38:37.765625,-2.60
17:38:37.781250,-9.90
17:38:37.796875,-16.76
17:38:37.812500,-20.07
17:38:37.828125,-18.19
17:38:37.843750,-11.41
17:38:37.859375,-1.45
17:38:37.875000,9.47
17:38:37.890625,19.41
17:38:37.906250,27.09
17:38:37.921875,32.07
17:38:37.937500,34.64
17:38:37.953125,35.52
17:38:37.968750,35.69
17:38:37.984375,36.00
17:38:38,36.87
17:38:38.015625,37.99
17:38:38.031250,38.42
17:38:38.046875,37.14
17:38:38.062500,33.89
17:38:38.078125,29.70
17:38:38.093750,26.48
17:38:38.109375,26.04
17:38:38.125000,28.74
17:38:38.140625,33.06
17:38:38.156250,36.38
17:38:38.171875,36.53
17:38:38.187500,33.18
17:38:38.203125,28.08
17:38:38.218750,24.00
17:38:38.234375,23.16
17:38:38.250000,25.90
17:38:38.265625,30.70
17:38:38.281250,35.28
17:38:38.296875,38.05
17:38:38.312500,39.09
17:38:38.328125,39.60
17:38:38.343750,40.65
17:38:38.359375,42.05
17:38:38.375000,42.20
17:38:38.390625,39.26
17:38:38.406250,32.50
17:38:38.421875,23.02
17:38:38.437500,13.33
17:38:38.453125,6.12
17:38:38.468750,2.83
17:38:38.484375,2.99
17:38:38.500000,4.57
17:38:38.515625,5.20
17:38:38.531250,3.50
17:38:38.546875,-0.17
17:38:38.562500,-4.14
17:38:38.578125,-6.53
17:38:38.593750,-6.33
17:38:38.609375,-3.87
17:38:38.625000,-0.54
17:38:38.640625,2.00
17:38:38.656250,2.46
17:38:38.671875,0.44
17:38:38.687500,-3.51
17:38:38.703125,-8.21
17:38:38.718750,-12.44
17:38:38.734375,-15.35
17:38:38.750000,-16.68
17:38:38.765625,-16.67
17:38:38.781250,-15.99
17:38:38.796875,-15.47
17:38:38.812500,-15.91
17:38:38.828125,-17.88
17:38:38.843750,-21.45
17:38:38.859375,-26.06
17:38:38.875000,-30.65
17:38:38.890625,-34.01
17:38:38.906250,-34.90
17:38:38.921875,-32.48
17:38:38.937500,-26.54
17:38:38.953125,-17.70
17:38:38.968750,-7.23
17:38:38.984375,3.32
17:38:39,12.46
17:38:39.015625,19.18
17:38:39.031250,23.03
17:38:39.046875,24.31
17:38:39.062500,23.96
17:38:39.078125,23.27
17:38:39.093750,23.39
17:38:39.109375,24.97
17:38:39.125000,27.97
17:38:39.140625,31.69
17:38:39.156250,35.12
17:38:39.171875,37.38
17:38:39.187500,38.13
17:38:39.203125,37.76
17:38:39.218750,37.23
17:38:39.234375,37.64
17:38:39.250000,39.49
17:38:39.265625,42.50
17:38:39.281250,45.63
17:38:39.296875,47.65
17:38:39.312500,47.90
17:38:39.328125,46.59
17:38:39.343750,44.67
17:38:39.359375,43.54
17:38:39.375000,44.26
17:38:39.390625,46.84
17:38:39.406250,50.11
17:38:39.421875,52.16
17:38:39.437500,51.47
17:38:39.453125,47.68
17:38:39.468750,41.76
17:38:39.484375,35.50
17:38:39.500000,30.50
17:38:39.515625,27.82
17:38:39.531250,27.63
17:38:39.546875,29.78
17:38:39.562500,33.54
17:38:39.578125,38.32
17:38:39.593750,43.92
17:38:39.609375,50.66
17:38:39.625000,59.21
17:38:39.640625,70.29
17:38:39.656250,84.93
17:38:39.671875,103.34
17:38:39.687500,125.06
17:38:39.703125,147.13
17:38:39.718750,165.01
17:38:39.734375,173.75
17:38:39.750000,170.08
17:38:39.765625,153.79
17:38:39.781250,127.72
17:38:39.796875,97.30
17:38:39.812500,66.98
17:38:39.828125,39.83
17:38:39.843750,14.76
17:38:39.859375,-11.40
17:38:39.875000,-41.62
17:38:39.890625,-76.27
17:38:39.906250,-112.56
17:38:39.921875,-146.46
17:38:39.937500,-173.69
17:38:39.953125,-194.46
17:38:39.968750,-211.60
17:38:39.984375,-232.01
17:38:40,-262.94
17:38:40.015625,-309.65
17:38:40.031250,-373.74
17:38:40.046875,-453.18
17:38:40.062500,-543.87
17:38:40.078125,-638.87
17:38:40.093750,-732.20
17:38:40.109375,-797.75
17:38:40.125000,-810.60
17:38:40.140625,-757.40
17:38:40.156250,-646.40
17:38:40.171875,-503.84
17:38:40.187500,-359.45
17:38:40.203125,-243.84
17:38:40.218750,-156.99
17:38:40.234375,-91.67
17:38:40.250000,-39.70
17:38:40.265625,2.36
17:38:40.281250,35.20
17:38:40.296875,58.85
17:38:40.312500,74.51
17:38:40.328125,86.07
17:38:40.343750,98.53
17:38:40.359375,117.30
17:38:40.375000,142.92
17:38:40.390625,173.71
17:38:40.406250,205.10
17:38:40.421875,232.56
17:38:40.437500,253.92
17:38:40.453125,270.51
17:38:40.468750,286.29
17:38:40.484375,304.86
17:38:40.500000,328.15
17:38:40.515625,352.70
17:38:40.531250,372.89
17:38:40.546875,382.22
17:38:40.562500,376.48
17:38:40.578125,355.32
17:38:40.593750,322.41
17:38:40.609375,284.07
17:38:40.625000,246.59
17:38:40.640625,214.99
17:38:40.656250,190.47
17:38:40.671875,172.11
17:38:40.687500,157.46
17:38:40.703125,143.81
17:38:40.718750,129.03
17:38:40.734375,112.27
17:38:40.750000,94.13
17:38:40.765625,75.97
17:38:40.781250,59.43
17:38:40.796875,45.01
17:38:40.812500,32.65
17:38:40.828125,21.95
17:38:40.843750,12.67
17:38:40.859375,4.85
17:38:40.875000,-1.14
17:38:40.890625,-4.69
17:38:40.906250,-5.45
17:38:40.921875,-3.60
17:38:40.937500,-0.18
17:38:40.953125,3.33
17:38:40.968750,5.63
17:38:40.984375,5.84
17:38:41,3.70
17:38:41.015625,-0.37
17:38:41.031250,-5.21
17:38:41.046875,-9.28
17:38:41.062500,-11.18
17:38:41.078125,-10.46
17:38:41.093750,-7.97
17:38:41.109375,-5.59
17:38:41.125000,-5.23
17:38:41.140625,-7.72
17:38:41.156250,-12.40
17:38:41.171875,-17.41
17:38:41.187500,-20.69
17:38:41.203125,-20.93
17:38:41.218750,-18.16
17:38:41.234375,-13.85
17:38:41.250000,-10.03
17:38:41.265625,-8.26
17:38:41.281250,-8.94
17:38:41.296875,-11.38
17:38:41.312500,-14.53
17:38:41.328125,-17.67
17:38:41.343750,-20.86
17:38:41.359375,-24.62
17:38:41.375000,-29.62
17:38:41.390625,-36.11
17:38:41.406250,-43.66
17:38:41.421875,-51.29
17:38:41.437500,-57.91
17:38:41.453125,-63.09
17:38:41.468750,-67.44
17:38:41.484375,-72.42
17:38:41.500000,-79.05
17:38:41.515625,-87.30
17:38:41.531250,-95.77
17:38:41.546875,-102.32
17:38:41.562500,-105.26
17:38:41.578125,-104.30
17:38:41.593750,-101.01
17:38:41.609375,-98.29
17:38:41.625000,-99.38
17:38:41.640625,-105.69
17:38:41.656250,-116.74
17:38:41.671875,-130.29
17:38:41.687500,-143.15
17:38:41.703125,-151.93
17:38:41.718750,-153.54
17:38:41.734375,-145.67
17:38:41.750000,-126.99
17:38:41.765625,-97.60
17:38:41.781250,-58.15
17:38:41.796875,-12.13
17:38:41.812500,33.96
17:38:41.828125,71.99
17:38:41.843750,94.92
17:38:41.859375,99.61
17:38:41.875000,88.12
17:38:41.890625,66.66
17:38:41.906250,42.93
17:38:41.921875,26.14
17:38:41.937500,22.50
17:38:41.953125,34.36
17:38:41.968750,60.51
17:38:41.984375,97.85
17:38:42,142.99
17:38:42.015625,192.82
17:38:42.031250,244.22
17:38:42.046875,294.33
17:38:42.062500,345.03
17:38:42.078125,400.04
17:38:42.093750,462.96
17:38:42.109375,534.38
17:38:42.125000,610.04
17:38:42.140625,681.59
17:38:42.156250,739.24
17:38:42.171875,775.15
17:38:42.187500,764.71
17:38:42.203125,695.73
17:38:42.218750,572.07
17:38:42.234375,414.00
17:38:42.250000,249.05
17:38:42.265625,99.11
17:38:42.281250,-26.02
17:38:42.296875,-126.07
17:38:42.312500,-204.48
17:38:42.328125,-264.14
17:38:42.343750,-303.18
17:38:42.359375,-320.25
17:38:42.375000,-317.28
17:38:42.390625,-300.39
17:38:42.406250,-278.22
17:38:42.421875,-258.57
17:38:42.437500,-245.76
17:38:42.453125,-240.33
17:38:42.468750,-239.87
17:38:42.484375,-238.32
17:38:42.500000,-230.50
17:38:42.515625,-214.67
17:38:42.531250,-193.35
17:38:42.546875,-171.84
17:38:42.562500,-156.16
17:38:42.578125,-150.00
17:38:42.593750,-155.01
17:38:42.609375,-170.14
17:38:42.625000,-190.05
17:38:42.640625,-207.20
17:38:42.656250,-213.72
17:38:42.671875,-203.17
17:38:42.687500,-171.99
17:38:42.703125,-120.87
17:38:42.718750,-55.31
17:38:42.734375,14.19
17:38:42.750000,75.11
17:38:42.765625,117.42
17:38:42.781250,136.25
17:38:42.796875,132.70
17:38:42.812500,112.65
17:38:42.828125,84.47
17:38:42.843750,55.50
17:38:42.859375,33.09
17:38:42.875000,19.58
17:38:42.890625,11.37
17:38:42.906250,4.59
17:38:42.921875,-2.78
17:38:42.937500,-11.67
17:38:42.953125,-23.16
17:38:42.968750,-38.61
17:38:42.984375,-60.20
17:38:43,-90.47
17:38:43.015625,-132.65
17:38:43.031250,-184.97
17:38:43.046875,-244.88
17:38:43.062500,-301.72
17:38:43.078125,-345.36
17:38:43.093750,-369.89
17:38:43.109375,-374.64
17:38:43.125000,-363.66
17:38:43.140625,-343.16
17:38:43.156250,-319.32
17:38:43.171875,-296.50
17:38:43.187500,-277.34
17:38:43.203125,-269.70
17:38:43.218750,-272.72
17:38:43.234375,-283.57
17:38:43.250000,-297.52
17:38:43.265625,-307.83
17:38:43.281250,-307.11
17:38:43.296875,-290.00
17:38:43.312500,-255.07
17:38:43.328125,-205.56
17:38:43.343750,-144.00
17:38:43.359375,-77.40
17:38:43.375000,-13.37
17:38:43.390625,43.58
17:38:43.406250,92.64
17:38:43.421875,135.73
17:38:43.437500,175.32
17:38:43.453125,212.95
17:38:43.468750,248.23
17:38:43.484375,278.91
17:38:43.500000,301.00
17:38:43.515625,309.74
17:38:43.531250,301.89
17:38:43.546875,277.53
17:38:43.562500,240.86
17:38:43.578125,199.55
17:38:43.593750,162.12
17:38:43.609375,135.22
17:38:43.625000,121.78
17:38:43.640625,120.62
17:38:43.656250,128.34
17:38:43.671875,142.45
17:38:43.687500,162.97
17:38:43.703125,192.06
17:38:43.718750,231.38
17:38:43.734375,279.03
17:38:43.750000,327.90
17:38:43.765625,367.09
17:38:43.781250,385.50
17:38:43.796875,376.53
17:38:43.812500,341.04
17:38:43.828125,286.95
17:38:43.843750,225.45
17:38:43.859375,165.98
17:38:43.875000,112.92
17:38:43.890625,65.83
17:38:43.906250,21.78
17:38:43.921875,-21.73
17:38:43.937500,-65.33
17:38:43.953125,-108.29
17:38:43.968750,-149.88
17:38:43.984375,-189.73
17:38:44,-226.84
17:38:44.015625,-258.06
17:38:44.031250,-277.59
17:38:44.046875,-278.78
17:38:44.062500,-257.51
17:38:44.078125,-214.73
17:38:44.093750,-157.41
17:38:44.109375,-96.72
17:38:44.125000,-44.35
17:38:44.140625,-8.87
17:38:44.156250,6.41
17:38:44.171875,3.77
17:38:44.187500,-10.25
17:38:44.203125,-27.13
17:38:44.218750,-38.89
17:38:44.234375,-40.13
17:38:44.250000,-29.52
17:38:44.265625,-9.54
17:38:44.281250,14.75
17:38:44.296875,37.46
17:38:44.312500,53.62
17:38:44.328125,59.89
17:38:44.343750,54.82
17:38:44.359375,39.05
17:38:44.375000,15.25
17:38:44.390625,-12.28
17:38:44.406250,-38.13
17:38:44.421875,-57.45
17:38:44.437500,-67.69
17:38:44.453125,-69.34
17:38:44.468750,-65.42
17:38:44.484375,-59.81
17:38:44.500000,-55.37
17:38:44.515625,-52.83
17:38:44.531250,-50.96
17:38:44.546875,-47.90
17:38:44.562500,-42.30
17:38:44.578125,-34.00
17:38:44.593750,-23.83
17:38:44.609375,-13.10
17:38:44.625000,-3.20
17:38:44.640625,4.62
17:38:44.656250,9.18
17:38:44.671875,9.72
17:38:44.687500,6.31
17:38:44.703125,0.41
17:38:44.718750,-5.62
17:38:44.734375,-9.37
17:38:44.750000,-9.59
17:38:44.765625,-6.95
17:38:44.781250,-4.05
17:38:44.796875,-4.41
17:38:44.812500,-10.59
17:38:44.828125,-22.96
17:38:44.843750,-39.11
17:38:44.859375,-54.23
17:38:44.875000,-62.95
17:38:44.890625,-61.69
17:38:44.906250,-49.96
17:38:44.921875,-30.69
17:38:44.937500,-9.24
17:38:44.953125,8.95
17:38:44.968750,20.26
17:38:44.984375,23.85
17:38:45,21.24
17:38:45.015625,15.05
17:38:45.031250,7.75
17:38:45.046875,0.87
17:38:45.062500,-4.84
17:38:45.078125,-8.81
17:38:45.093750,-10.50
17:38:45.109375,-9.39
17:38:45.125000,-5.38
17:38:45.140625,0.81
17:38:45.156250,7.93
17:38:45.171875,14.79
17:38:45.187500,20.53
17:38:45.203125,24.82
17:38:45.218750,27.87
17:38:45.234375,29.84
17:38:45.250000,30.79
17:38:45.265625,30.84
17:38:45.281250,30.32
17:38:45.296875,29.85
17:38:45.312500,30.18
17:38:45.328125,31.62
17:38:45.343750,33.83
17:38:45.359375,36.11
17:38:45.375000,37.92
17:38:45.390625,38.97
17:38:45.406250,39.27
17:38:45.421875,38.51
17:38:45.437500,35.50
17:38:45.453125,28.50
17:38:45.468750,16.45
17:38:45.484375,0.35
17:38:45.500000,-16.03
17:38:45.515625,-27.11
17:38:45.531250,-27.79
17:38:45.546875,-16.22
17:38:45.562500,4.78
17:38:45.578125,28.69
17:38:45.593750,48.04
17:38:45.609375,57.84
17:38:45.625000,57.66
17:38:45.640625,51.06
17:38:45.656250,43.19
17:38:45.671875,38.06
17:38:45.687500,36.79
17:38:45.703125,37.70
17:38:45.718750,38.19
17:38:45.734375,36.39
17:38:45.750000,32.05
17:38:45.765625,26.16
17:38:45.781250,19.58
17:38:45.796875,12.22
17:38:45.812500,3.10
17:38:45.828125,-8.88
17:38:45.843750,-23.64
17:38:45.859375,-39.36
17:38:45.875000,-52.85
17:38:45.890625,-60.94
17:38:45.906250,-61.99
17:38:45.921875,-56.72
17:38:45.937500,-48.13
17:38:45.953125,-40.01
17:38:45.968750,-35.31
17:38:45.984375,-34.86
17:38:46,-37.31
17:38:46.015625,-40.08
17:38:46.031250,-41.05
17:38:46.046875,-39.64
17:38:46.062500,-37.14
17:38:46.078125,-35.91
17:38:46.093750,-37.99
17:38:46.109375,-43.91
17:38:46.125000,-52.35
17:38:46.140625,-60.44
17:38:46.156250,-64.83
17:38:46.171875,-62.68
17:38:46.187500,-52.45
17:38:46.203125,-34.51
17:38:46.218750,-11.07
17:38:46.234375,14.17
17:38:46.250000,36.96
17:38:46.265625,53.84
17:38:46.281250,63.23
17:38:46.296875,65.91
17:38:46.312500,64.60
17:38:46.328125,62.52
17:38:46.343750,62.13
17:38:46.359375,64.21
17:38:46.375000,67.88
17:38:46.390625,71.39
17:38:46.406250,73.32
17:38:46.421875,73.27
17:38:46.437500,71.80
17:38:46.453125,70.02
17:38:46.468750,68.87
17:38:46.484375,68.68
17:38:46.500000,69.24
17:38:46.515625,70.15
17:38:46.531250,70.96
17:38:46.546875,71.41
17:38:46.562500,71.40
17:38:46.578125,70.82
17:38:46.593750,69.52
17:38:46.609375,67.46
17:38:46.625000,64.98
17:38:46.640625,62.63
17:38:46.656250,60.90
17:38:46.671875,60.00
17:38:46.687500,59.77
17:38:46.703125,59.79
17:38:46.718750,59.47
17:38:46.734375,58.28
17:38:46.750000,55.61
17:38:46.765625,51.55
17:38:46.781250,46.91
17:38:46.796875,43.76
17:38:46.812500,45.58
17:38:46.828125,56.14
17:38:46.843750,77.47
17:38:46.859375,107.78
17:38:46.875000,140.74
17:38:46.890625,166.99
17:38:46.906250,178.52
17:38:46.921875,170.73
17:38:46.937500,143.45
17:38:46.953125,99.87
17:38:46.968750,44.63
17:38:46.984375,-17.29
17:38:47,-80.52
17:38:47.015625,-138.37
17:38:47.031250,-182.91
17:38:47.046875,-204.47
17:38:47.062500,-196.20
17:38:47.078125,-157.34
17:38:47.093750,-94.12
17:38:47.109375,-17.77
17:38:47.125000,59.55
17:38:47.140625,128.44
17:38:47.156250,183.98
17:38:47.171875,225.07
17:38:47.187500,255.29
17:38:47.203125,278.72
17:38:47.218750,297.68
17:38:47.234375,312.15
17:38:47.250000,320.50
17:38:47.265625,321.21
17:38:47.281250,314.11
17:38:47.296875,300.89
17:38:47.312500,271.18
17:38:47.328125,221.23
17:38:47.343750,154.12
17:38:47.359375,79.08
17:38:47.375000,7.00
17:38:47.390625,-54.74
17:38:47.406250,-103.83
17:38:47.421875,-141.61
17:38:47.437500,-170.81
17:38:47.453125,-194.59
17:38:47.468750,-215.30
17:38:47.484375,-234.10
17:38:47.500000,-251.98
17:38:47.515625,-270.52
17:38:47.531250,-291.96
17:38:47.546875,-318.65
17:38:47.562500,-352.70
17:38:47.578125,-389.16
17:38:47.593750,-424.41
17:38:47.609375,-454.74
17:38:47.625000,-478.41
17:38:47.640625,-495.20
17:38:47.656250,-504.45
17:38:47.671875,-503.61
17:38:47.687500,-488.23
17:38:47.703125,-454.74
17:38:47.718750,-403.54
17:38:47.734375,-341.27
17:38:47.750000,-277.43
17:38:47.765625,-221.55
17:38:47.781250,-179.79
17:38:47.796875,-153.25
17:38:47.812500,-138.76
17:38:47.828125,-131.01
17:38:47.843750,-125.40
17:38:47.859375,-120.00
17:38:47.875000,-115.54
17:38:47.890625,-112.64
17:38:47.906250,-110.87
17:38:47.921875,-108.85
17:38:47.937500,-105.05
17:38:47.953125,-98.86
17:38:47.968750,-90.22
17:38:47.984375,-80.02
17:38:48,-69.61
17:38:48.015625,-60.16
17:38:48.031250,-51.47
17:38:48.046875,-42.08
17:38:48.062500,-29.47
17:38:48.078125,-10.55
17:38:48.093750,13.38
17:38:48.109375,41.65
17:38:48.125000,73.13
17:38:48.140625,106.36
17:38:48.156250,139.52
17:38:48.171875,170.70
17:38:48.187500,197.99
17:38:48.203125,219.85
17:38:48.218750,235.51
17:38:48.234375,245.26
17:38:48.250000,251.22
17:38:48.265625,255.97
17:38:48.281250,261.77
17:38:48.296875,270.03
17:38:48.312500,281.28
17:38:48.328125,295.52
17:38:48.343750,312.33
17:38:48.359375,330.60
17:38:48.375000,348.14
17:38:48.390625,362.61
17:38:48.406250,372.12
17:38:48.421875,376.78
17:38:48.437500,379.33
17:38:48.453125,383.81
17:38:48.468750,393.00
17:38:48.484375,405.76
17:38:48.500000,416.35
17:38:48.515625,416.39
17:38:48.531250,398.93
17:38:48.546875,361.07
17:38:48.562500,305.16
17:38:48.578125,237.29
17:38:48.593750,164.72
17:38:48.609375,93.78
17:38:48.625000,29.23
17:38:48.640625,-25.23
17:38:48.656250,-66.54
17:38:48.671875,-92.60
17:38:48.687500,-103.61
17:38:48.703125,-102.90
17:38:48.718750,-96.58
17:38:48.734375,-91.86
17:38:48.750000,-94.31
17:38:48.765625,-105.55
17:38:48.781250,-122.53
17:38:48.796875,-138.79
17:38:48.812500,-147.23
17:38:48.828125,-143.37
17:38:48.843750,-127.64
17:38:48.859375,-105.54
17:38:48.875000,-85.61
17:38:48.890625,-75.92
17:38:48.906250,-80.74
17:38:48.921875,-99.03
17:38:48.937500,-125.21
17:38:48.953125,-151.95
17:38:48.968750,-173.21
17:38:48.984375,-186.11
17:38:49,-190.88
17:38:49.015625,-189.38
17:38:49.031250,-183.28
17:38:49.046875,-173.31
17:38:49.062500,-159.54
17:38:49.078125,-142.46
17:38:49.093750,-123.82
17:38:49.109375,-106.50
17:38:49.125000,-93.43
17:38:49.140625,-86.20
17:38:49.156250,-84.32
17:38:49.171875,-85.57
17:38:49.187500,-87.10
17:38:49.203125,-86.76
17:38:49.218750,-83.75
17:38:49.234375,-78.60
17:38:49.250000,-72.49
17:38:49.265625,-66.48
17:38:49.281250,-61.11
17:38:49.296875,-56.49
17:38:49.312500,-52.74
17:38:49.328125,-50.26
17:38:49.343750,-49.81
17:38:49.359375,-52.18
17:38:49.375000,-57.46
17:38:49.390625,-64.33
17:38:49.406250,-69.77
17:38:49.421875,-69.76
17:38:49.437500,-60.76
17:38:49.453125,-41.46
17:38:49.468750,-13.92
17:38:49.484375,16.73
17:38:49.500000,43.98
17:38:49.515625,62.41
17:38:49.531250,69.65
17:38:49.546875,66.91
17:38:49.562500,57.95
17:38:49.578125,47.30
17:38:49.593750,38.39
17:38:49.609375,32.76
17:38:49.625000,30.23
17:38:49.640625,29.79
17:38:49.656250,30.38
17:38:49.671875,31.26
17:38:49.687500,32.10
17:38:49.703125,32.80
17:38:49.718750,33.33
17:38:49.734375,33.59
17:38:49.750000,33.35
17:38:49.765625,32.27
17:38:49.781250,29.98
17:38:49.796875,26.21
17:38:49.812500,20.88
17:38:49.828125,14.14
17:38:49.843750,6.43
17:38:49.859375,-1.61
17:38:49.875000,-9.17
17:38:49.890625,-15.37
17:38:49.906250,-19.48
17:38:49.921875,-21.26
17:38:49.937500,-21.19
17:38:49.953125,-20.55
17:38:49.968750,-21.13
17:38:49.984375,-24.57
17:38:50,-31.56
17:38:50.015625,-41.15
17:38:50.031250,-50.53
17:38:50.046875,-55.75
17:38:50.062500,-53.11
17:38:50.078125,-40.74
17:38:50.093750,-19.87
17:38:50.109375,5.16
17:38:50.125000,28.24
17:38:50.140625,43.79
17:38:50.156250,48.93
17:38:50.171875,44.50
17:38:50.187500,34.35
17:38:50.203125,23.37
17:38:50.218750,15.30
17:38:50.234375,11.51
17:38:50.250000,11.25
17:38:50.265625,12.83
17:38:50.281250,14.94
17:38:50.296875,17.22
17:38:50.312500,19.89
17:38:50.328125,22.99
17:38:50.343750,25.99
17:38:50.359375,27.98
17:38:50.375000,28.21
17:38:50.390625,26.72
17:38:50.406250,24.22
17:38:50.421875,21.64
17:38:50.437500,19.63
17:38:50.453125,18.21
17:38:50.468750,17.02
17:38:50.484375,15.84
17:38:50.500000,14.77
17:38:50.515625,14.21
17:38:50.531250,14.54
17:38:50.546875,15.70
17:38:50.562500,17.06
17:38:50.578125,17.72
17:38:50.593750,16.83
17:38:50.609375,13.84
17:38:50.625000,8.70
17:38:50.640625,1.93
17:38:50.656250,-5.31
17:38:50.671875,-11.11
17:38:50.687500,-13.10
17:38:50.703125,-9.20
17:38:50.718750,1.44
17:38:50.734375,17.52
17:38:50.750000,35.58
17:38:50.765625,51.04
17:38:50.781250,59.79
17:38:50.796875,59.87
17:38:50.812500,52.18
17:38:50.828125,40.08
17:38:50.843750,27.95
17:38:50.859375,19.55
17:38:50.875000,16.86
17:38:50.890625,19.83
17:38:50.906250,26.90
17:38:50.921875,35.88
17:38:50.937500,44.67
17:38:50.953125,51.70
17:38:50.968750,56.00
17:38:50.984375,57.13
17:38:51,54.92
17:38:51.015625,49.19
17:38:51.031250,39.49
17:38:51.046875,25.08
17:38:51.062500,5.29
17:38:51.078125,-19.83
17:38:51.093750,-48.70
17:38:51.109375,-77.89
17:38:51.125000,-102.77
17:38:51.140625,-118.90
17:38:51.156250,-123.72
17:38:51.171875,-117.50
17:38:51.187500,-103.14
17:38:51.203125,-84.79
17:38:51.218750,-66.24
17:38:51.234375,-50.00
17:38:51.250000,-37.45
17:38:51.265625,-29.30
17:38:51.281250,-25.86
17:38:51.296875,-26.64
17:38:51.312500,-29.52
17:38:51.328125,-30.74
17:38:51.343750,-26.06
17:38:51.359375,-13.01
17:38:51.375000,7.26
17:38:51.390625,29.93
17:38:51.406250,48.39
17:38:51.421875,57.45
17:38:51.437500,55.71
17:38:51.453125,46.00
17:38:51.468750,33.59
17:38:51.484375,23.35
17:38:51.500000,17.74
17:38:51.515625,16.41
17:38:51.531250,17.54
17:38:51.546875,19.57
17:38:51.562500,22.25
17:38:51.578125,26.31
17:38:51.593750,32.22
17:38:51.609375,39.21
17:38:51.625000,45.14
17:38:51.640625,47.50
17:38:51.656250,44.85
17:38:51.671875,37.68
17:38:51.687500,28.22
17:38:51.703125,19.25
17:38:51.718750,12.73
17:38:51.734375,8.99
17:38:51.750000,7.04
17:38:51.765625,5.60
17:38:51.781250,4.10
17:38:51.796875,3.07
17:38:51.812500,3.51
17:38:51.828125,5.82
17:38:51.843750,8.93
17:38:51.859375,10.26
17:38:51.875000,6.60
17:38:51.890625,-4.44
17:38:51.906250,-23.08
17:38:51.921875,-46.78
17:38:51.937500,-70.76
17:38:51.953125,-89.45
17:38:51.968750,-98.36
17:38:51.984375,-95.68
17:38:52,-82.79
17:38:52.015625,-63.65
17:38:52.031250,-43.40
17:38:52.046875,-26.64
17:38:52.062500,-16.26
17:38:52.078125,-13.05
17:38:52.093750,-15.93
17:38:52.109375,-22.57
17:38:52.125000,-30.16
17:38:52.140625,-36.13
17:38:52.156250,-38.75
17:38:52.171875,-37.37
17:38:52.187500,-32.49
17:38:52.203125,-25.33
17:38:52.218750,-17.15
17:38:52.234375,-8.76
17:38:52.250000,-0.36
17:38:52.265625,8.21
17:38:52.281250,16.82
17:38:52.296875,24.60
17:38:52.312500,29.99
17:38:52.328125,31.40
17:38:52.343750,28.18
17:38:52.359375,21.26
17:38:52.375000,12.95
17:38:52.390625,5.95
17:38:52.406250,2.04
17:38:52.421875,1.25
17:38:52.437500,1.99
17:38:52.453125,2.07
17:38:52.468750,-0.01
17:38:52.484375,-4.31
17:38:52.500000,-9.62
17:38:52.515625,-14.62
17:38:52.531250,-18.75
17:38:52.546875,-22.44
17:38:52.562500,-26.16
17:38:52.578125,-29.31
17:38:52.593750,-29.81
17:38:52.609375,-25.05
17:38:52.625000,-13.65
17:38:52.640625,3.01
17:38:52.656250,20.76
17:38:52.671875,34.30
17:38:52.687500,39.63
17:38:52.703125,35.91
17:38:52.718750,25.72
17:38:52.734375,13.60
17:38:52.750000,3.81
17:38:52.765625,-1.38
17:38:52.781250,-2.07
17:38:52.796875,0.07
17:38:52.812500,3.15
17:38:52.828125,5.92
17:38:52.843750,7.92
17:38:52.859375,9.13
17:38:52.875000,9.71
17:38:52.890625,9.85
17:38:52.906250,9.79
17:38:52.921875,9.78
17:38:52.937500,9.89
17:38:52.953125,9.83
17:38:52.968750,9.10
17:38:52.984375,7.30
17:38:53,4.55
17:38:53.015625,1.51
17:38:53.031250,-0.90
17:38:53.046875,-2.08
17:38:53.062500,-1.99
17:38:53.078125,-1.23
17:38:53.093750,-0.62
17:38:53.109375,-0.78
17:38:53.125000,-1.99
17:38:53.140625,-4.39
17:38:53.156250,-8.16
17:38:53.171875,-13.46
17:38:53.187500,-20.07
17:38:53.203125,-26.97
17:38:53.218750,-32.46
17:38:53.234375,-34.84
17:38:53.250000,-33.45
17:38:53.265625,-29.59
17:38:53.281250,-26.42
17:38:53.296875,-28.01
17:38:53.312500,-37.75
17:38:53.328125,-56.95
17:38:53.343750,-84.15
17:38:53.359375,-115.67
17:38:53.375000,-146.99
17:38:53.390625,-174.19
17:38:53.406250,-194.78
17:38:53.421875,-207.72
17:38:53.437500,-212.55
17:38:53.453125,-208.71
17:38:53.468750,-195.49
17:38:53.484375,-172.56
17:38:53.500000,-140.98
17:38:53.515625,-103.75
17:38:53.531250,-65.56
17:38:53.546875,-31.75
17:38:53.562500,-6.81
17:38:53.578125,6.89
17:38:53.593750,9.66
17:38:53.609375,4.10
17:38:53.625000,-5.82
17:38:53.640625,-15.90
17:38:53.656250,-22.71
17:38:53.671875,-24.11
17:38:53.687500,-19.37
17:38:53.703125,-9.04
17:38:53.718750,5.58
17:38:53.734375,22.85
17:38:53.750000,41.16
17:38:53.765625,59.04
17:38:53.781250,75.11
17:38:53.796875,88.27
17:38:53.812500,97.84
17:38:53.828125,103.83
17:38:53.843750,107.03
17:38:53.859375,108.83
17:38:53.875000,110.55
17:38:53.890625,112.78
17:38:53.906250,115.01
17:38:53.921875,115.68
17:38:53.937500,113.01
17:38:53.953125,105.90
17:38:53.968750,94.53
17:38:53.984375,80.41
17:38:54,65.71
17:38:54.015625,52.45
17:38:54.031250,41.94
17:38:54.046875,34.54
17:38:54.062500,29.79
17:38:54.078125,26.82
17:38:54.093750,24.66
17:38:54.109375,22.63
17:38:54.125000,20.51
17:38:54.140625,18.62
17:38:54.156250,17.69
17:38:54.171875,18.59
17:38:54.187500,21.95
17:38:54.203125,27.70
17:38:54.218750,35.02
17:38:54.234375,42.59
17:38:54.250000,49.18
17:38:54.265625,54.13
17:38:54.281250,57.57
17:38:54.296875,60.13
17:38:54.312500,62.51
17:38:54.328125,64.93
17:38:54.343750,66.99
17:38:54.359375,67.82
17:38:54.375000,66.55
17:38:54.390625,62.81
17:38:54.406250,57.10
17:38:54.421875,50.75
17:38:54.437500,45.59
17:38:54.453125,43.21
17:38:54.468750,44.28
17:38:54.484375,48.21
17:38:54.500000,53.28
17:38:54.515625,57.30
17:38:54.531250,58.54
17:38:54.546875,56.45
17:38:54.562500,51.81
17:38:54.578125,46.36
17:38:54.593750,41.85
17:38:54.609375,39.29
17:38:54.625000,38.49
17:38:54.640625,38.39
17:38:54.656250,37.57
17:38:54.671875,35.04
17:38:54.687500,30.63
17:38:54.703125,25.02
17:38:54.718750,19.45
17:38:54.734375,15.10
17:38:54.750000,12.60
17:38:54.765625,11.76
17:38:54.781250,11.59
17:38:54.796875,10.79
17:38:54.812500,8.29
17:38:54.828125,3.84
17:38:54.843750,-1.86
17:38:54.859375,-7.41
17:38:54.875000,-11.44
17:38:54.890625,-13.18
17:38:54.906250,-12.83
17:38:54.921875,-11.41
17:38:54.937500,-10.17
17:38:54.953125,-10.06
17:38:54.968750,-11.49
17:38:54.984375,-14.46
17:38:55,-18.87
17:38:55.015625,-24.58
17:38:55.031250,-31.15
17:38:55.046875,-37.58
17:38:55.062500,-42.21
17:38:55.078125,-43.27
17:38:55.093750,-39.67
17:38:55.109375,-31.78
17:38:55.125000,-21.57
17:38:55.140625,-11.95
17:38:55.156250,-5.58
17:38:55.171875,-3.77
17:38:55.187500,-6.14
17:38:55.203125,-10.94
17:38:55.218750,-16.04
17:38:55.234375,-19.73
17:38:55.250000,-21.20
17:38:55.265625,-20.47
17:38:55.281250,-18.03
17:38:55.296875,-14.44
17:38:55.312500,-10.21
17:38:55.328125,-5.78
17:38:55.343750,-1.61
17:38:55.359375,1.76
17:38:55.375000,3.84
17:38:55.390625,4.31
17:38:55.406250,3.23
17:38:55.421875,1.07
17:38:55.437500,-1.41
17:38:55.453125,-3.42
17:38:55.468750,-4.44
17:38:55.484375,-4.43
17:38:55.500000,-3.82
17:38:55.515625,-3.34
17:38:55.531250,-3.59
17:38:55.546875,-4.87
17:38:55.562500,-7.01
17:38:55.578125,-9.55
17:38:55.593750,-12.06
17:38:55.609375,-14.44
17:38:55.625000,-17.02
17:38:55.640625,-20.30
17:38:55.656250,-24.49
17:38:55.671875,-29.06
17:38:55.687500,-32.71
17:38:55.703125,-33.86
17:38:55.718750,-31.35
17:38:55.734375,-25.20
17:38:55.750000,-16.79
17:38:55.765625,-8.37
17:38:55.781250,-2.11
17:38:55.796875,0.84
17:38:55.812500,0.81
17:38:55.828125,-0.69
17:38:55.843750,-1.77
17:38:55.859375,-1.04
17:38:55.875000,1.91
17:38:55.890625,6.59
17:38:55.906250,12.02
17:38:55.921875,17.31
17:38:55.937500,21.88
17:38:55.953125,25.52
17:38:55.968750,28.12
17:38:55.984375,29.58
17:38:56,29.80
17:38:56.015625,28.81
17:38:56.031250,26.95
17:38:56.046875,24.88
17:38:56.062500,23.33
17:38:56.078125,22.78
17:38:56.093750,23.26
17:38:56.109375,24.27
17:38:56.125000,25.07
17:38:56.140625,24.92
17:38:56.156250,23.35
17:38:56.171875,20.24
17:38:56.187500,15.72
17:38:56.203125,10.02
17:38:56.218750,3.47
17:38:56.234375,-3.55
17:38:56.250000,-10.68
17:38:56.265625,-17.63
17:38:56.281250,-24.27
17:38:56.296875,-30.57
17:38:56.312500,-36.27
17:38:56.328125,-40.70
17:38:56.343750,-42.78
17:38:56.359375,-41.32
17:38:56.375000,-35.75
17:38:56.390625,-26.65
17:38:56.406250,-15.86
17:38:56.421875,-5.96
17:38:56.437500,0.68
17:38:56.453125,2.82
17:38:56.468750,0.70
17:38:56.484375,-4.18
17:38:56.500000,-9.75
17:38:56.515625,-14.17
17:38:56.531250,-16.19
17:38:56.546875,-15.30
17:38:56.562500,-11.62
17:38:56.578125,-5.83
17:38:56.593750,0.95
17:38:56.609375,7.40
17:38:56.625000,12.23
17:38:56.640625,14.74
17:38:56.656250,15.07
17:38:56.671875,14.19
17:38:56.687500,13.45
17:38:56.703125,13.91
17:38:56.718750,15.82
17:38:56.734375,18.57
17:38:56.750000,21.06
17:38:56.765625,22.32
17:38:56.781250,21.92
17:38:56.796875,20.14
17:38:56.812500,17.63
17:38:56.828125,15.11
17:38:56.843750,13.12
17:38:56.859375,11.96
17:38:56.875000,11.81
17:38:56.890625,12.69
17:38:56.906250,14.34
17:38:56.921875,16.15
17:38:56.937500,17.26
17:38:56.953125,16.97
17:38:56.968750,15.18
17:38:56.984375,12.69
17:38:57,11.03
17:38:57.015625,11.73
17:38:57.031250,15.52
17:38:57.046875,21.82
17:38:57.062500,28.83
17:38:57.078125,34.22
17:38:57.093750,36.02
17:38:57.109375,33.43
17:38:57.125000,26.99
17:38:57.140625,18.26
17:38:57.156250,9.17
17:38:57.171875,1.45
17:38:57.187500,-3.82
17:38:57.203125,-6.19
17:38:57.218750,-5.88
17:38:57.234375,-3.59
17:38:57.250000,-0.34
17:38:57.265625,2.79
17:38:57.281250,4.90
17:38:57.296875,5.46
17:38:57.312500,4.49
17:38:57.328125,2.37
17:38:57.343750,-0.24
17:38:57.359375,-2.72
17:38:57.375000,-4.65
17:38:57.390625,-5.92
17:38:57.406250,-6.74
17:38:57.421875,-7.56
17:38:57.437500,-8.87
17:38:57.453125,-11.11
17:38:57.468750,-14.38
17:38:57.484375,-18.43
17:38:57.500000,-22.63
17:38:57.515625,-26.23
17:38:57.531250,-28.79
17:38:57.546875,-30.53
17:38:57.562500,-32.30
17:38:57.578125,-35.19
17:38:57.593750,-39.84
17:38:57.609375,-45.78
17:38:57.625000,-51.40
17:38:57.640625,-54.59
17:38:57.656250,-53.65
17:38:57.671875,-48.25
17:38:57.687500,-39.57
17:38:57.703125,-29.72
17:38:57.718750,-20.76
17:38:57.734375,-13.80
17:38:57.750000,-8.77
17:38:57.765625,-4.81
17:38:57.781250,-1.01
17:38:57.796875,3.08
17:38:57.812500,7.42
17:38:57.828125,11.85
17:38:57.843750,16.56
17:38:57.859375,22.16
17:38:57.875000,29.54
17:38:57.890625,39.45
17:38:57.906250,52.22
17:38:57.921875,67.68
17:38:57.937500,85.31
17:38:57.953125,104.36
17:38:57.968750,124.12
17:38:57.984375,144.25
17:38:58,164.97
17:38:58.015625,187.18
17:38:58.031250,211.96
17:38:58.046875,239.70
17:38:58.062500,269.15
17:38:58.078125,297.01
17:38:58.093750,318.61
17:38:58.109375,329.56
17:38:58.125000,327.57
17:38:58.140625,313.53
17:38:58.156250,291.10
17:38:58.171875,265.05
17:38:58.187500,239.25
17:38:58.203125,215.24
17:38:58.218750,192.34
17:38:58.234375,168.68
17:38:58.250000,142.62
17:38:58.265625,113.54
17:38:58.281250,81.98
17:38:58.296875,49.34
17:38:58.312500,17.44
17:38:58.328125,-11.69
17:38:58.343750,-36.17
17:38:58.359375,-54.85
17:38:58.375000,-67.77
17:38:58.390625,-76.39
17:38:58.406250,-82.95
17:38:58.421875,-89.58
17:38:58.437500,-97.17
17:38:58.453125,-104.97
17:38:58.468750,-111.16
17:38:58.484375,-114.01
17:38:58.500000,-113.07
17:38:58.515625,-109.63
17:38:58.531250,-106.15
17:38:58.546875,-104.85
17:38:58.562500,-106.39
17:38:58.578125,-109.57
17:38:58.593750,-111.97
17:38:58.609375,-111.23
17:38:58.625000,-106.43
17:38:58.640625,-98.72
17:38:58.656250,-91.01
17:38:58.671875,-86.70
17:38:58.687500,-88.34
17:38:58.703125,-96.71
17:38:58.718750,-110.70
17:38:58.734375,-128.12
17:38:58.750000,-146.83
17:38:58.765625,-165.70
17:38:58.781250,-184.97
17:38:58.796875,-205.83
17:38:58.812500,-229.69
17:38:58.828125,-256.95
17:38:58.843750,-286.08
17:38:58.859375,-313.24
17:38:58.875000,-332.97
17:38:58.890625,-339.48
17:38:58.906250,-328.43
17:38:58.921875,-298.78
17:38:58.937500,-253.60
17:38:58.953125,-199.58
17:38:58.968750,-145.40
17:38:58.984375,-99.23
17:38:59,-66.68
17:38:59.015625,-49.68
17:38:59.031250,-46.78
17:38:59.046875,-54.48
17:38:59.062500,-68.39
17:38:59.078125,-83.97
17:38:59.093750,-96.63
17:38:59.109375,-101.96
17:38:59.125000,-96.72
17:38:59.140625,-80.36
17:38:59.156250,-55.99
17:38:59.171875,-29.44
17:38:59.187500,-6.82
17:38:59.203125,8.21
17:38:59.218750,15.76
17:38:59.234375,18.49
17:38:59.250000,18.82
17:38:59.265625,16.84
17:38:59.281250,10.55
17:38:59.296875,-1.58
17:38:59.312500,-17.96
17:38:59.328125,-33.29
17:38:59.343750,-40.68
17:38:59.359375,-35.41
17:38:59.375000,-17.77
17:38:59.390625,6.83
17:38:59.406250,30.34
17:38:59.421875,45.61
17:38:59.437500,48.97
17:38:59.453125,40.96
17:38:59.468750,25.34
17:38:59.484375,7.51
17:38:59.500000,-7.27
17:38:59.515625,-15.37
17:38:59.531250,-15.89
17:38:59.546875,-10.81
17:38:59.562500,-3.75
17:38:59.578125,2.45
17:38:59.593750,8.10
17:38:59.609375,17.65
17:38:59.625000,37.91
17:38:59.640625,74.20
17:38:59.656250,126.42
17:38:59.671875,187.35
17:38:59.687500,244.18
17:38:59.703125,282.88
17:38:59.718750,293.25
17:38:59.734375,272.62
17:38:59.750000,226.64
17:38:59.765625,167.29
17:38:59.781250,108.79
17:38:59.796875,63.50
17:38:59.812500,38.70
17:38:59.828125,35.46
17:38:59.843750,49.36
17:38:59.859375,72.50
17:38:59.875000,96.06
17:38:59.890625,112.43
17:38:59.906250,116.41
17:38:59.921875,105.67
17:38:59.937500,80.68
17:38:59.953125,44.71
17:38:59.968750,3.53
17:38:59.984375,-35.20
17:39:00,-63.44
17:39:00.015625,-75.19
17:39:00.031250,-68.61
17:39:00.046875,-46.97
17:39:00.062500,-17.64
17:39:00.078125,10.63
17:39:00.093750,30.97
17:39:00.109375,40.54
17:39:00.125000,40.84
17:39:00.140625,36.07
17:39:00.156250,30.61
17:39:00.171875,26.93
17:39:00.187500,24.85
17:39:00.203125,22.17
17:39:00.218750,15.93
17:39:00.234375,3.47
17:39:00.250000,-17.02
17:39:00.265625,-46.28
17:39:00.281250,-83.88
17:39:00.296875,-127.82
17:39:00.312500,-174.46
17:39:00.328125,-218.88
17:39:00.343750,-255.89
17:39:00.359375,-281.51
17:39:00.375000,-293.87
17:39:00.390625,-293.41
17:39:00.406250,-282.08
17:39:00.421875,-261.99
17:39:00.437500,-234.30
17:39:00.453125,-198.93
17:39:00.468750,-155.35
17:39:00.484375,-103.90
17:39:00.500000,-47.16
17:39:00.515625,9.45
17:39:00.531250,58.18
17:39:00.546875,90.52
17:39:00.562500,99.11
17:39:00.578125,79.54
17:39:00.593750,32.03
17:39:00.609375,-37.98
17:39:00.625000,-120.32
17:39:00.640625,-201.86
17:39:00.656250,-269.40
17:39:00.671875,-312.87
17:39:00.687500,-327.71
17:39:00.703125,-315.68
17:39:00.718750,-283.37
17:39:00.734375,-239.53
17:39:00.750000,-191.99
17:39:00.765625,-145.62
17:39:00.781250,-102.16
17:39:00.796875,-61.09
17:39:00.812500,-20.82
17:39:00.828125,20.75
17:39:00.843750,66.00
17:39:00.859375,116.72
17:39:00.875000,172.99
17:39:00.890625,231.52
17:39:00.906250,285.25
17:39:00.921875,324.86
17:39:00.937500,341.85
17:39:00.953125,331.36
17:39:00.968750,293.40
17:39:00.984375,232.39
17:39:01,155.44
17:39:01.015625,71.05
17:39:01.031250,-11.57
17:39:01.046875,-82.62
17:39:01.062500,-132.61
17:39:01.078125,-154.26
17:39:01.093750,-144.80
17:39:01.109375,-107.52
17:39:01.125000,-51.24
17:39:01.140625,11.94
17:39:01.156250,70.09
17:39:01.171875,114.20
17:39:01.187500,139.64
17:39:01.203125,145.88
17:39:01.218750,135.68
17:39:01.234375,113.81
17:39:01.250000,86.11
17:39:01.265625,58.70
17:39:01.281250,37.10
17:39:01.296875,25.15
17:39:01.312500,24.30
17:39:01.328125,33.30
17:39:01.343750,48.76
17:39:01.359375,65.91
17:39:01.375000,80.00
17:39:01.390625,87.39
17:39:01.406250,86.35
17:39:01.421875,77.26
17:39:01.437500,62.31
17:39:01.453125,44.95
17:39:01.468750,29.27
17:39:01.484375,19.40
17:39:01.500000,18.92
17:39:01.515625,30.12
17:39:01.531250,53.16
17:39:01.546875,85.59
17:39:01.562500,122.47
17:39:01.578125,157.15
17:39:01.593750,182.84
17:39:01.609375,194.44
17:39:01.625000,190.08
17:39:01.640625,171.82
17:39:01.656250,144.91
17:39:01.671875,115.88
17:39:01.687500,90.34
17:39:01.703125,71.22
17:39:01.718750,58.54
17:39:01.734375,50.45
17:39:01.750000,44.75
17:39:01.765625,39.95
17:39:01.781250,35.52
17:39:01.796875,31.51
17:39:01.812500,28.35
17:39:01.828125,27.02
17:39:01.843750,29.34
17:39:01.859375,37.86
17:39:01.875000,54.89
17:39:01.890625,80.84
17:39:01.906250,113.16
17:39:01.921875,146.64
17:39:01.937500,175.15
17:39:01.953125,194.18
17:39:01.968750,202.67
17:39:01.984375,203.08
17:39:02,199.79
17:39:02.015625,196.90
17:39:02.031250,196.51
17:39:02.046875,198.56
17:39:02.062500,201.80
17:39:02.078125,205.00
17:39:02.093750,207.62
17:39:02.109375,209.60
17:39:02.125000,210.48
17:39:02.140625,208.87
17:39:02.156250,202.55
17:39:02.171875,189.20
17:39:02.187500,167.57
17:39:02.203125,138.10
17:39:02.218750,102.83
17:39:02.234375,64.70
17:39:02.250000,26.56
17:39:02.265625,-9.66
17:39:02.281250,-43.32
17:39:02.296875,-74.89
17:39:02.312500,-105.60
17:39:02.328125,-136.86
17:39:02.343750,-169.75
17:39:02.359375,-204.97
17:39:02.375000,-242.96
17:39:02.390625,-284.16
17:39:02.406250,-328.72
17:39:02.421875,-375.86
17:39:02.437500,-422.93
17:39:02.453125,-465.10
17:39:02.468750,-496.22
17:39:02.484375,-510.96
17:39:02.500000,-507.11
17:39:02.515625,-486.73
17:39:02.531250,-455.34
17:39:02.546875,-419.45
17:39:02.562500,-383.88
17:39:02.578125,-350.49
17:39:02.593750,-318.94
17:39:02.609375,-288.70
17:39:02.625000,-260.89
17:39:02.640625,-238.48
17:39:02.656250,-224.78
17:39:02.671875,-221.22
17:39:02.687500,-225.85
17:39:02.703125,-233.65
17:39:02.718750,-238.41
17:39:02.734375,-235.09
17:39:02.750000,-221.50
17:39:02.765625,-198.55
17:39:02.781250,-169.11
17:39:02.796875,-136.08
17:39:02.812500,-101.09
17:39:02.828125,-64.12
17:39:02.843750,-24.31
17:39:02.859375,18.47
17:39:02.875000,62.55
17:39:02.890625,104.29
17:39:02.906250,139.30
17:39:02.921875,164.19
17:39:02.937500,177.84
17:39:02.953125,181.91
17:39:02.968750,180.26
17:39:02.984375,178.07
17:39:03,180.90
17:39:03.015625,193.75
17:39:03.031250,219.72
17:39:03.046875,258.39
17:39:03.062500,304.75
17:39:03.078125,349.48
17:39:03.093750,381.01
17:39:03.109375,389.16
17:39:03.125000,368.66
17:39:03.140625,321.09
17:39:03.156250,254.28
17:39:03.171875,179.55
17:39:03.187500,108.33
17:39:03.203125,49.44
17:39:03.218750,7.93
17:39:03.234375,-14.69
17:39:03.250000,-19.91
17:39:03.265625,-11.52
17:39:03.281250,4.81
17:39:03.296875,22.42
17:39:03.312500,34.94
17:39:03.328125,37.87
17:39:03.343750,29.81
17:39:03.359375,12.62
17:39:03.375000,-9.88
17:39:03.390625,-33.97
17:39:03.406250,-58.14
17:39:03.421875,-83.82
17:39:03.437500,-114.19
17:39:03.453125,-151.68
17:39:03.468750,-195.33
17:39:03.484375,-239.92
17:39:03.500000,-277.44
17:39:03.515625,-300.20
17:39:03.531250,-303.91
17:39:03.546875,-289.00
17:39:03.562500,-259.79
17:39:03.578125,-221.87
17:39:03.593750,-179.83
17:39:03.609375,-136.25
17:39:03.625000,-92.41
17:39:03.640625,-49.92
17:39:03.656250,-11.79
17:39:03.671875,17.57
17:39:03.687500,33.73
17:39:03.703125,33.91
17:39:03.718750,18.33
17:39:03.734375,-9.57
17:39:03.750000,-43.85
17:39:03.765625,-77.22
17:39:03.781250,-102.61
17:39:03.796875,-114.71
17:39:03.812500,-111.26
17:39:03.828125,-93.88
17:39:03.843750,-67.65
17:39:03.859375,-39.26
17:39:03.875000,-14.51
17:39:03.890625,3.96
17:39:03.906250,17.34
17:39:03.921875,29.35
17:39:03.937500,43.55
17:39:03.953125,61.05
17:39:03.968750,80.00
17:39:03.984375,96.98
17:39:04,109.49
17:39:04.015625,117.54
17:39:04.031250,123.51
17:39:04.046875,130.07
17:39:04.062500,137.67
17:39:04.078125,143.34
17:39:04.093750,142.01
17:39:04.109375,129.46
17:39:04.125000,105.18
17:39:04.140625,73.49
17:39:04.156250,42.10
17:39:04.171875,18.90
17:39:04.187500,8.81
17:39:04.203125,12.24
17:39:04.218750,25.82
17:39:04.234375,44.61
17:39:04.250000,64.53
17:39:04.265625,83.54
17:39:04.281250,101.13
17:39:04.296875,116.84
17:39:04.312500,128.88
17:39:04.328125,133.81
17:39:04.343750,127.74
17:39:04.359375,108.30
17:39:04.375000,76.47
17:39:04.390625,36.96
17:39:04.406250,-2.94
17:39:04.421875,-35.54
17:39:04.437500,-54.92
17:39:04.453125,-58.32
17:39:04.468750,-46.19
17:39:04.484375,-21.39
17:39:04.500000,11.88
17:39:04.515625,49.17
17:39:04.531250,86.23
17:39:04.546875,119.58
17:39:04.562500,146.79
17:39:04.578125,166.66
17:39:04.593750,179.29
17:39:04.609375,185.71
17:39:04.625000,187.35
17:39:04.640625,185.57
17:39:04.656250,181.56
17:39:04.671875,176.49
17:39:04.687500,171.78
17:39:04.703125,169.14
17:39:04.718750,169.91
17:39:04.734375,174.38
17:39:04.750000,181.48
17:39:04.765625,188.94
17:39:04.781250,194.09
17:39:04.796875,194.80
17:39:04.812500,190.10
17:39:04.828125,180.27
17:39:04.843750,166.48
17:39:04.859375,149.99
17:39:04.875000,131.56
17:39:04.890625,111.06
17:39:04.906250,87.76
17:39:04.921875,60.86
17:39:04.937500,30.55
17:39:04.953125,-1.37
17:39:04.968750,-31.39
17:39:04.984375,-55.33
17:39:05,-70.10
17:39:05.015625,-75.30
17:39:05.031250,-73.92
17:39:05.046875,-71.54
17:39:05.062500,-74.27
17:39:05.078125,-86.38
17:39:05.093750,-108.59
17:39:05.109375,-137.90
17:39:05.125000,-168.78
17:39:05.140625,-195.15
17:39:05.156250,-212.34
17:39:05.171875,-218.26
17:39:05.187500,-213.60
17:39:05.203125,-201.18
17:39:05.218750,-184.86
17:39:05.234375,-168.27
17:39:05.250000,-153.64
17:39:05.265625,-141.23
17:39:05.281250,-129.43
17:39:05.296875,-115.65
17:39:05.312500,-97.73
17:39:05.328125,-75.35
17:39:05.343750,-50.51
17:39:05.359375,-27.13
17:39:05.375000,-9.63
17:39:05.390625,-1.10
17:39:05.406250,-1.91
17:39:05.421875,-9.40
17:39:05.437500,-18.70
17:39:05.453125,-24.70
17:39:05.468750,-23.91
17:39:05.484375,-15.68
17:39:05.500000,-2.19
17:39:05.515625,12.86
17:39:05.531250,25.87
17:39:05.546875,34.75
17:39:05.562500,39.25
17:39:05.578125,40.28
17:39:05.593750,38.71
17:39:05.609375,34.72
17:39:05.625000,27.89
17:39:05.640625,18.33
17:39:05.656250,7.57
17:39:05.671875,-1.28
17:39:05.687500,-4.79
17:39:05.703125,-1.30
17:39:05.718750,7.57
17:39:05.734375,17.00
17:39:05.750000,21.07
17:39:05.765625,15.80
17:39:05.781250,1.32
17:39:05.796875,-17.77
17:39:05.812500,-34.34
17:39:05.828125,-41.87
17:39:05.843750,-37.04
17:39:05.859375,-20.61
17:39:05.875000,3.48
17:39:05.890625,30.16
17:39:05.906250,55.01
17:39:05.921875,75.04
17:39:05.937500,88.61
17:39:05.953125,94.76
17:39:05.968750,92.87
17:39:05.984375,82.52
17:39:06,63.79
17:39:06.015625,37.44
17:39:06.031250,5.03
17:39:06.046875,-31.06
17:39:06.062500,-67.68
17:39:06.078125,-101.12
17:39:06.093750,-127.75
17:39:06.109375,-144.84
17:39:06.125000,-151.35
17:39:06.140625,-148.34
17:39:06.156250,-138.69
17:39:06.171875,-126.12
17:39:06.187500,-114.03
17:39:06.203125,-104.38
17:39:06.218750,-97.16
17:39:06.234375,-90.80
17:39:06.250000,-82.95
17:39:06.265625,-71.52
17:39:06.281250,-55.32
17:39:06.296875,-34.36
17:39:06.312500,-9.55
17:39:06.328125,17.53
17:39:06.343750,44.84
17:39:06.359375,70.01
17:39:06.375000,90.60
17:39:06.390625,104.68
17:39:06.406250,111.70
17:39:06.421875,113.19
17:39:06.437500,112.53
17:39:06.453125,113.91
17:39:06.468750,120.45
17:39:06.484375,132.39
17:39:06.500000,146.55
17:39:06.515625,157.30
17:39:06.531250,158.91
17:39:06.546875,147.87
17:39:06.562500,124.42
17:39:06.578125,92.24
17:39:06.593750,56.72
17:39:06.609375,22.70
17:39:06.625000,-7.27
17:39:06.640625,-33.36
17:39:06.656250,-57.72
17:39:06.671875,-83.00
17:39:06.687500,-110.92
17:39:06.703125,-141.42
17:39:06.718750,-172.69
17:39:06.734375,-201.66
17:39:06.750000,-224.71
17:39:06.765625,-238.36
17:39:06.781250,-239.79
17:39:06.796875,-227.41
17:39:06.812500,-201.60
17:39:06.828125,-165.21
17:39:06.843750,-123.34
17:39:06.859375,-82.37
17:39:06.875000,-48.22
17:39:06.890625,-24.67
17:39:06.906250,-12.48
17:39:06.921875,-9.79
17:39:06.937500,-13.63
17:39:06.953125,-21.30
17:39:06.968750,-30.82
17:39:06.984375,-40.10
17:39:07,-45.67
17:39:07.015625,-42.31
17:39:07.031250,-24.46
17:39:07.046875,10.70
17:39:07.062500,60.35
17:39:07.078125,115.38
17:39:07.093750,162.85
17:39:07.109375,190.69
17:39:07.125000,192.40
17:39:07.140625,169.05
17:39:07.156250,128.00
17:39:07.171875,79.10
17:39:07.187500,30.71
17:39:07.203125,-12.43
17:39:07.218750,-48.91
17:39:07.234375,-78.58
17:39:07.250000,-100.52
17:39:07.265625,-112.43
17:39:07.281250,-111.73
17:39:07.296875,-97.33
17:39:07.312500,-71.12
17:39:07.328125,-38.04
17:39:07.343750,-4.50
17:39:07.359375,23.62
17:39:07.375000,42.75
17:39:07.390625,52.33
17:39:07.406250,54.27
17:39:07.421875,51.67
17:39:07.437500,47.33
17:39:07.453125,42.85
17:39:07.468750,38.42
17:39:07.484375,33.53
17:39:07.500000,27.65
17:39:07.515625,20.59
17:39:07.531250,12.50
17:39:07.546875,3.58
17:39:07.562500,-6.02
17:39:07.578125,-15.93
17:39:07.593750,-25.18
17:39:07.609375,-31.79
17:39:07.625000,-32.87
17:39:07.640625,-25.53
17:39:07.656250,-8.27
17:39:07.671875,17.76
17:39:07.687500,48.35
17:39:07.703125,77.13
17:39:07.718750,97.62
17:39:07.734375,105.49
17:39:07.750000,100.02
17:39:07.765625,84.20
17:39:07.781250,63.42
17:39:07.796875,43.52
17:39:07.812500,29.10
17:39:07.828125,22.74
17:39:07.843750,24.90
17:39:07.859375,34.18
17:39:07.875000,47.62
17:39:07.890625,61.05
17:39:07.906250,69.72
17:39:07.921875,69.66
17:39:07.937500,59.45
17:39:07.953125,41.36
17:39:07.968750,21.09
17:39:07.984375,5.89
17:39:08,1.49
17:39:08.015625,9.66
17:39:08.031250,27.42
17:39:08.046875,48.39
17:39:08.062500,65.62
17:39:08.078125,74.26
17:39:08.093750,72.83
17:39:08.109375,62.73
17:39:08.125000,46.75
17:39:08.140625,27.54
17:39:08.156250,7.24
17:39:08.171875,-12.25
17:39:08.187500,-28.67
17:39:08.203125,-39.36
17:39:08.218750,-41.97
17:39:08.234375,-35.63
17:39:08.250000,-21.82
17:39:08.265625,-4.15
17:39:08.281250,12.73
17:39:08.296875,24.67
17:39:08.312500,29.27
17:39:08.328125,26.13
17:39:08.343750,16.17
17:39:08.359375,0.42
17:39:08.375000,-20.97
17:39:08.390625,-48.77
17:39:08.406250,-83.69
17:39:08.421875,-125.27
17:39:08.437500,-170.85
17:39:08.453125,-215.49
17:39:08.468750,-252.84
17:39:08.484375,-276.54
17:39:08.500000,-281.54
17:39:08.515625,-265.22
17:39:08.531250,-228.27
17:39:08.546875,-175.50
17:39:08.562500,-115.84
17:39:08.578125,-60.72
17:39:08.593750,-20.68
17:39:08.609375,-1.18
17:39:08.625000,0.54
17:39:08.640625,-4.80
17:39:08.656250,-2.49
17:39:08.671875,19.41
17:39:08.687500,64.16
17:39:08.703125,124.24
17:39:08.718750,184.29
17:39:08.734375,227.41
17:39:08.750000,241.73
17:39:08.765625,224.11
17:39:08.781250,179.98
17:39:08.796875,120.02
17:39:08.812500,56.06
17:39:08.828125,-1.90
17:39:08.843750,-47.06
17:39:08.859375,-76.02
17:39:08.875000,-88.50
17:39:08.890625,-87.24
17:39:08.906250,-77.50
17:39:08.921875,-66.35
17:39:08.937500,-61.03
17:39:08.953125,-66.76
17:39:08.968750,-84.65
17:39:08.984375,-110.81
17:39:09,-137.10
17:39:09.015625,-153.33
17:39:09.031250,-150.48
17:39:09.046875,-123.67
17:39:09.062500,-74.08
17:39:09.078125,-8.87
17:39:09.093750,60.87
17:39:09.109375,123.43
17:39:09.125000,169.82
17:39:09.140625,195.82
17:39:09.156250,202.38
17:39:09.171875,193.94
17:39:09.187500,175.98
17:39:09.203125,152.80
17:39:09.218750,126.37
17:39:09.234375,96.67
17:39:09.250000,62.91
17:39:09.265625,24.80
17:39:09.281250,-16.67
17:39:09.296875,-59.14
17:39:09.312500,-99.35
17:39:09.328125,-133.78
17:39:09.343750,-159.17
17:39:09.359375,-173.28
17:39:09.375000,-175.39
17:39:09.390625,-166.74
17:39:09.406250,-150.34
17:39:09.421875,-130.21
17:39:09.437500,-110.04
17:39:09.453125,-92.20
17:39:09.468750,-77.07
17:39:09.484375,-63.33
17:39:09.500000,-48.76
17:39:09.515625,-31.27
17:39:09.531250,-9.97
17:39:09.546875,14.14
17:39:09.562500,38.06
17:39:09.578125,57.41
17:39:09.593750,67.95
17:39:09.609375,67.44
17:39:09.625000,57.14
17:39:09.640625,41.99
17:39:09.656250,29.34
17:39:09.671875,26.41
17:39:09.687500,37.88
17:39:09.703125,64.26
17:39:09.718750,101.76
17:39:09.734375,143.41
17:39:09.750000,181.03
17:39:09.765625,207.10
17:39:09.781250,216.63
17:39:09.796875,208.30
17:39:09.812500,184.66
17:39:09.828125,151.24
17:39:09.843750,114.69
17:39:09.859375,80.59
17:39:09.875000,52.03
17:39:09.890625,29.28
17:39:09.906250,10.87
17:39:09.921875,-4.96
17:39:09.937500,-19.11
17:39:09.953125,-31.66
17:39:09.968750,-42.57
17:39:09.984375,-52.34
17:39:10,-61.89
17:39:10.015625,-71.46
17:39:10.031250,-79.58
17:39:10.046875,-82.95
17:39:10.062500,-77.76
17:39:10.078125,-62.03
17:39:10.093750,-37.67
17:39:10.109375,-10.80
17:39:10.125000,10.01
17:39:10.140625,17.05
17:39:10.156250,6.68
17:39:10.171875,-19.12
17:39:10.187500,-53.56
17:39:10.203125,-87.83
17:39:10.218750,-114.44
17:39:10.234375,-129.77
17:39:10.250000,-134.64
17:39:10.265625,-133.11
17:39:10.281250,-130.05
17:39:10.296875,-128.81
17:39:10.312500,-129.82
17:39:10.328125,-130.72
17:39:10.343750,-127.74
17:39:10.359375,-117.67
17:39:10.375000,-99.37
17:39:10.390625,-74.19
17:39:10.406250,-45.23
17:39:10.421875,-15.92
17:39:10.437500,11.30
17:39:10.453125,35.52
17:39:10.468750,56.88
17:39:10.484375,75.66
17:39:10.500000,91.57
17:39:10.515625,103.78
17:39:10.531250,111.46
17:39:10.546875,114.40
17:39:10.562500,113.20
17:39:10.578125,108.82
17:39:10.593750,102.01
17:39:10.609375,93.13
17:39:10.625000,82.60
17:39:10.640625,71.66
17:39:10.656250,62.76
17:39:10.671875,58.86
17:39:10.687500,62.04
17:39:10.703125,71.85
17:39:10.718750,84.75
17:39:10.734375,95.12
17:39:10.750000,97.50
17:39:10.765625,88.85
17:39:10.781250,69.67
17:39:10.796875,43.42
17:39:10.812500,14.76
17:39:10.828125,-12.47
17:39:10.843750,-36.27
17:39:10.859375,-56.45
17:39:10.875000,-73.52
17:39:10.890625,-87.67
17:39:10.906250,-98.32
17:39:10.921875,-104.29
17:39:10.937500,-104.52
17:39:10.953125,-98.68
17:39:10.968750,-87.58
17:39:10.984375,-73.02
17:39:11,-57.44
17:39:11.015625,-43.50
17:39:11.031250,-33.67
17:39:11.046875,-29.84
17:39:11.062500,-32.91
17:39:11.078125,-42.61
17:39:11.093750,-57.48
17:39:11.109375,-75.16
17:39:11.125000,-92.73
17:39:11.140625,-107.32
17:39:11.156250,-116.31
17:39:11.171875,-117.71
17:39:11.187500,-110.18
17:39:11.203125,-93.34
17:39:11.218750,-68.05
17:39:11.234375,-36.40
17:39:11.250000,-1.29
17:39:11.265625,34.42
17:39:11.281250,68.58
17:39:11.296875,99.96
17:39:11.312500,127.62
17:39:11.328125,150.03
17:39:11.343750,164.84
17:39:11.359375,169.60
17:39:11.375000,163.40
17:39:11.390625,148.27
17:39:11.406250,129.20
17:39:11.421875,112.47
17:39:11.437500,102.99
17:39:11.453125,102.20
17:39:11.468750,107.50
17:39:11.484375,113.67
17:39:11.500000,115.31
17:39:11.515625,108.97
17:39:11.531250,94.06
17:39:11.546875,72.44
17:39:11.562500,47.33
17:39:11.578125,21.94
17:39:11.593750,-1.73
17:39:11.609375,-23.81
17:39:11.625000,-46.27
17:39:11.640625,-71.81
17:39:11.656250,-101.79
17:39:11.671875,-134.35
17:39:11.687500,-163.96
17:39:11.703125,-182.86
17:39:11.718750,-184.01
17:39:11.734375,-163.88
17:39:11.750000,-123.59
17:39:11.765625,-67.84
17:39:11.781250,-2.64
17:39:11.796875,66.55
17:39:11.812500,135.16
17:39:11.828125,198.26
17:39:11.843750,249.44
17:39:11.859375,281.12
17:39:11.875000,287.12
17:39:11.890625,266.05
17:39:11.906250,223.73
17:39:11.921875,172.35
17:39:11.937500,126.62
17:39:11.953125,98.38
17:39:11.968750,92.28
17:39:11.984375,104.60
17:39:12,125.68
17:39:12.015625,144.52
17:39:12.031250,153.02
17:39:12.046875,148.17
17:39:12.062500,131.41
17:39:12.078125,106.26
17:39:12.093750,75.79
17:39:12.109375,41.41
17:39:12.125000,3.10
17:39:12.140625,-39.52
17:39:12.156250,-86.00
17:39:12.171875,-134.56
17:39:12.187500,-182.60
17:39:12.203125,-227.53
17:39:12.218750,-267.55
17:39:12.234375,-301.96
17:39:12.250000,-330.71
17:39:12.265625,-353.48
17:39:12.281250,-368.89
17:39:12.296875,-374.07
17:39:12.312500,-365.18
17:39:12.328125,-338.76
17:39:12.343750,-293.51
17:39:12.359375,-231.85
17:39:12.375000,-160.47
17:39:12.390625,-89.00
17:39:12.406250,-27.48
17:39:12.421875,16.78
17:39:12.437500,41.44
17:39:12.453125,49.16
17:39:12.468750,45.75
17:39:12.484375,37.07
17:39:12.500000,26.60
17:39:12.515625,15.02
17:39:12.531250,1.61
17:39:12.546875,-13.55
17:39:12.562500,-28.32
17:39:12.578125,-39.21
17:39:12.593750,-43.47
17:39:12.609375,-40.94
17:39:12.625000,-34.20
17:39:12.640625,-26.64
17:39:12.656250,-20.11
17:39:12.671875,-13.48
17:39:12.687500,-3.75
17:39:12.703125,11.20
17:39:12.718750,30.03
17:39:12.734375,47.26
17:39:12.750000,55.56
17:39:12.765625,49.58
17:39:12.781250,29.29
17:39:12.796875,0.87
17:39:12.812500,-25.68
17:39:12.828125,-40.85
17:39:12.843750,-39.83
17:39:12.859375,-24.32
17:39:12.875000,-1.19
17:39:12.890625,21.16
17:39:12.906250,36.63
17:39:12.921875,43.85
17:39:12.937500,46.00
17:39:12.953125,48.52
17:39:12.968750,56.10
17:39:12.984375,70.16
17:39:13,87.90
17:39:13.015625,103.17
17:39:13.031250,108.67
17:39:13.046875,98.59
17:39:13.062500,70.68
17:39:13.078125,27.12
17:39:13.093750,-26.29
17:39:13.109375,-81.97
17:39:13.125000,-132.47
17:39:13.140625,-171.73
17:39:13.156250,-195.37
17:39:13.171875,-200.34
17:39:13.187500,-185.07
17:39:13.203125,-150.38
17:39:13.218750,-100.77
17:39:13.234375,-44.88
17:39:13.250000,6.21
17:39:13.265625,42.12
17:39:13.281250,56.82
17:39:13.296875,50.54
17:39:13.312500,28.98
17:39:13.328125,0.34
17:39:13.343750,-28.28
17:39:13.359375,-53.14
17:39:13.375000,-73.91
17:39:13.390625,-91.61
17:39:13.406250,-106.36
17:39:13.421875,-115.91
17:39:13.437500,-115.87
17:39:13.453125,-101.44
17:39:13.468750,-69.84
17:39:13.484375,-22.22
17:39:13.500000,35.61
17:39:13.515625,94.28
17:39:13.531250,143.22
17:39:13.546875,173.85
17:39:13.562500,182.23
17:39:13.578125,170.36
17:39:13.593750,145.53
17:39:13.609375,117.86
17:39:13.625000,96.91
17:39:13.640625,88.54
17:39:13.656250,92.96
17:39:13.671875,104.76
17:39:13.687500,114.78
17:39:13.703125,113.29
17:39:13.718750,93.43
17:39:13.734375,53.43
17:39:13.750000,-2.46
17:39:13.765625,-65.36
17:39:13.781250,-124.11
17:39:13.796875,-168.44
17:39:13.812500,-191.48
17:39:13.828125,-191.27
17:39:13.843750,-171.03
17:39:13.859375,-138.39
17:39:13.875000,-103.55
17:39:13.890625,-76.59
17:39:13.906250,-64.39
17:39:13.921875,-68.12
17:39:13.937500,-82.47
17:39:13.953125,-97.42
17:39:13.968750,-102.09
17:39:13.984375,-89.32
17:39:14,-58.75
17:39:14.015625,-16.80
17:39:14.031250,26.13
17:39:14.046875,60.30
17:39:14.062500,80.52
17:39:14.078125,87.51
17:39:14.093750,86.62
17:39:14.109375,84.58
17:39:14.125000,86.36
17:39:14.140625,93.53
17:39:14.156250,104.52
17:39:14.171875,116.25
17:39:14.187500,125.73
17:39:14.203125,131.22
17:39:14.218750,132.32
17:39:14.234375,129.48
17:39:14.250000,123.64
17:39:14.265625,116.10
17:39:14.281250,108.75
17:39:14.296875,103.93
17:39:14.312500,103.59
17:39:14.328125,108.45
17:39:14.343750,116.94
17:39:14.359375,125.50
17:39:14.375000,130.30
17:39:14.390625,129.30
17:39:14.406250,123.84
17:39:14.421875,118.52
17:39:14.437500,119.28
17:39:14.453125,130.43
17:39:14.468750,152.39
17:39:14.484375,181.07
17:39:14.500000,209.40
17:39:14.515625,230.20
17:39:14.531250,238.70
17:39:14.546875,233.94
17:39:14.562500,218.17
17:39:14.578125,195.27
17:39:14.593750,168.91
17:39:14.609375,141.49
17:39:14.625000,114.10
17:39:14.640625,87.25
17:39:14.656250,62.02
17:39:14.671875,40.43
17:39:14.687500,24.95
17:39:14.703125,16.93
17:39:14.718750,14.92
17:39:14.734375,14.17
17:39:14.750000,7.84
17:39:14.765625,-9.98
17:39:14.781250,-40.91
17:39:14.796875,-80.54
17:39:14.812500,-119.58
17:39:14.828125,-147.53
17:39:14.843750,-157.33
17:39:14.859375,-148.64
17:39:14.875000,-127.78
17:39:14.890625,-104.57
17:39:14.906250,-87.52
17:39:14.921875,-80.18
17:39:14.937500,-80.38
17:39:14.953125,-82.64
17:39:14.968750,-81.91
17:39:14.984375,-76.57
17:39:15,-68.87
17:39:15.015625,-62.96
17:39:15.031250,-62.07
17:39:15.046875,-66.67
17:39:15.062500,-74.68
17:39:15.078125,-83.35
17:39:15.093750,-91.12
17:39:15.109375,-98.31
17:39:15.125000,-106.09
17:39:15.140625,-114.77
17:39:15.156250,-122.68
17:39:15.171875,-126.49
17:39:15.187500,-122.67
17:39:15.203125,-109.14
17:39:15.218750,-86.14
17:39:15.234375,-55.78
17:39:15.250000,-21.22
17:39:15.265625,14.10
17:39:15.281250,46.52
17:39:15.296875,72.10
17:39:15.312500,86.77
17:39:15.328125,87.33
17:39:15.343750,72.77
17:39:15.359375,45.31
17:39:15.375000,10.18
17:39:15.390625,-26.12
17:39:15.406250,-57.94
17:39:15.421875,-82.34
17:39:15.437500,-99.31
17:39:15.453125,-110.67
17:39:15.468750,-118.00
17:39:15.484375,-121.37
17:39:15.500000,-119.58
17:39:15.515625,-111.72
17:39:15.531250,-99.36
17:39:15.546875,-87.31
17:39:15.562500,-82.33
17:39:15.578125,-89.94
17:39:15.593750,-111.17
17:39:15.609375,-141.13
17:39:15.625000,-170.58
17:39:15.640625,-189.92
17:39:15.656250,-193.47
17:39:15.671875,-181.95
17:39:15.687500,-161.65
17:39:15.703125,-141.04
17:39:15.718750,-126.90
17:39:15.734375,-121.65
17:39:15.750000,-123.22
17:39:15.765625,-126.98
17:39:15.781250,-128.30
17:39:15.796875,-124.27
17:39:15.812500,-113.96
17:39:15.828125,-97.59
17:39:15.843750,-75.32
17:39:15.859375,-46.71
17:39:15.875000,-10.86
17:39:15.890625,32.93
17:39:15.906250,84.70
17:39:15.921875,143.61
17:39:15.937500,208.00
17:39:15.953125,275.05
17:39:15.968750,340.67
17:39:15.984375,399.49
17:39:16,445.53
17:39:16.015625,473.66
17:39:16.031250,481.14
17:39:16.046875,468.50
17:39:16.062500,439.09
17:39:16.078125,397.46
17:39:16.093750,347.47
17:39:16.109375,291.28
17:39:16.125000,229.89
17:39:16.140625,164.86
17:39:16.156250,100.17
17:39:16.171875,42.65
17:39:16.187500,0.59
17:39:16.203125,-19.16
17:39:16.218750,-14.14
17:39:16.234375,12.19
17:39:16.250000,51.06
17:39:16.265625,91.05
17:39:16.281250,121.40
17:39:16.296875,134.88
17:39:16.312500,129.25
17:39:16.328125,106.84
17:39:16.343750,72.82
17:39:16.359375,32.95
17:39:16.375000,-8.15
17:39:16.390625,-47.68
17:39:16.406250,-84.04
17:39:16.421875,-115.82
17:39:16.437500,-140.85
17:39:16.453125,-156.21
17:39:16.468750,-159.34
17:39:16.484375,-149.78
17:39:16.500000,-130.32
17:39:16.515625,-106.81
17:39:16.531250,-86.50
17:39:16.546875,-75.19
17:39:16.562500,-75.04
17:39:16.578125,-83.82
17:39:16.593750,-96.21
17:39:16.609375,-106.46
17:39:16.625000,-110.76
17:39:16.640625,-108.68
17:39:16.656250,-102.80
17:39:16.671875,-97.24
17:39:16.687500,-96.04
17:39:16.703125,-102.34
17:39:16.718750,-118.22
17:39:16.734375,-144.65
17:39:16.750000,-181.15
17:39:16.765625,-224.92
17:39:16.781250,-270.16
17:39:16.796875,-308.83
17:39:16.812500,-332.52
17:39:16.828125,-335.19
17:39:16.843750,-315.21
17:39:16.859375,-275.62
17:39:16.875000,-222.47
17:39:16.890625,-162.14
17:39:16.906250,-99.00
17:39:16.921875,-34.88
17:39:16.937500,29.71
17:39:16.953125,93.58
17:39:16.968750,153.47
17:39:16.984375,204.22
17:39:17,240.18
17:39:17.015625,257.07
17:39:17.031250,253.21
17:39:17.046875,229.85
17:39:17.062500,190.88
17:39:17.078125,141.87
17:39:17.093750,89.11
17:39:17.109375,38.51
17:39:17.125000,-5.13
17:39:17.140625,-38.55
17:39:17.156250,-59.91
17:39:17.171875,-68.50
17:39:17.187500,-64.66
17:39:17.203125,-49.93
17:39:17.218750,-27.60
17:39:17.234375,-2.79
17:39:17.250000,18.38
17:39:17.265625,30.53
17:39:17.281250,31.21
17:39:17.296875,21.95
17:39:17.312500,7.55
17:39:17.328125,-6.48
17:39:17.343750,-16.70
17:39:17.359375,-22.86
17:39:17.375000,-26.88
17:39:17.390625,-30.27
17:39:17.406250,-32.08
17:39:17.421875,-28.83
17:39:17.437500,-16.79
17:39:17.453125,4.79
17:39:17.468750,31.74
17:39:17.484375,55.83
17:39:17.500000,68.06
17:39:17.515625,62.78
17:39:17.531250,40.42
17:39:17.546875,7.42
17:39:17.562500,-26.66
17:39:17.578125,-53.23
17:39:17.593750,-67.80
17:39:17.609375,-70.84
17:39:17.625000,-66.44
17:39:17.640625,-59.55
17:39:17.656250,-53.29
17:39:17.671875,-47.78
17:39:17.687500,-40.70
17:39:17.703125,-29.04
17:39:17.718750,-11.23
17:39:17.734375,11.63
17:39:17.750000,36.29
17:39:17.765625,58.73
17:39:17.781250,76.10
17:39:17.796875,87.73
17:39:17.812500,94.83
17:39:17.828125,99.12
17:39:17.843750,101.35
17:39:17.859375,100.48
17:39:17.875000,94.42
17:39:17.890625,81.62
17:39:17.906250,62.61
17:39:17.921875,40.48
17:39:17.937500,19.77
17:39:17.953125,4.47
17:39:17.968750,-3.47
17:39:17.984375,-4.20
17:39:18,1.02
17:39:18.015625,11.31
17:39:18.031250,26.52
17:39:18.046875,46.28
17:39:18.062500,68.52
17:39:18.078125,88.73
17:39:18.093750,100.97
17:39:18.109375,100.29
17:39:18.125000,85.11
17:39:18.140625,58.12
17:39:18.156250,25.17
17:39:18.171875,-7.44
17:39:18.187500,-35.12
17:39:18.203125,-55.60
17:39:18.218750,-67.86
17:39:18.234375,-70.86
17:39:18.250000,-63.23
17:39:18.265625,-44.69
17:39:18.281250,-17.90
17:39:18.296875,10.74
17:39:18.312500,32.43
17:39:18.328125,39.15
17:39:18.343750,26.98
17:39:18.359375,-2.07
17:39:18.375000,-41.05
17:39:18.390625,-81.25
17:39:18.406250,-116.05
17:39:18.421875,-143.31
17:39:18.437500,-165.35
17:39:18.453125,-186.46
17:39:18.468750,-209.44
17:39:18.484375,-233.37
17:39:18.500000,-253.48
17:39:18.515625,-263.02
17:39:18.531250,-256.41
17:39:18.546875,-231.74
17:39:18.562500,-191.94
17:39:18.578125,-144.00
17:39:18.593750,-96.57
17:39:18.609375,-56.80
17:39:18.625000,-27.98
17:39:18.640625,-8.83
17:39:18.656250,5.25
17:39:18.671875,19.58
17:39:18.687500,37.46
17:39:18.703125,58.70
17:39:18.718750,79.82
17:39:18.734375,95.90
17:39:18.750000,103.17
17:39:18.765625,100.96
17:39:18.781250,92.31
17:39:18.796875,83.06
17:39:18.812500,80.04
17:39:18.828125,89.14
17:39:18.843750,113.72
17:39:18.859375,153.66
17:39:18.875000,204.86
17:39:18.890625,259.80
17:39:18.906250,308.96
17:39:18.921875,343.63
17:39:18.937500,358.49
17:39:18.953125,353.42
17:39:18.968750,333.34
17:39:18.984375,305.85
17:39:19,277.96
17:39:19.015625,253.19
17:39:19.031250,230.88
17:39:19.046875,207.65
17:39:19.062500,180.33
17:39:19.078125,148.45
17:39:19.093750,114.77
17:39:19.109375,83.84
17:39:19.125000,59.31
17:39:19.140625,42.01
17:39:19.156250,30.01
17:39:19.171875,20.18
17:39:19.187500,10.30
17:39:19.203125,0.23
17:39:19.218750,-8.77
17:39:19.234375,-15.96
17:39:19.250000,-22.67
17:39:19.265625,-32.15
17:39:19.281250,-47.56
17:39:19.296875,-69.27
17:39:19.312500,-93.25
17:39:19.328125,-112.21
17:39:19.343750,-118.82
17:39:19.359375,-109.66
17:39:19.375000,-87.48
17:39:19.390625,-60.32
17:39:19.406250,-38.02
17:39:19.421875,-27.82
17:39:19.437500,-31.42
17:39:19.453125,-44.85
17:39:19.468750,-60.91
17:39:19.484375,-72.46
17:39:19.500000,-75.00
17:39:19.515625,-67.45
17:39:19.531250,-51.41
17:39:19.546875,-30.09
17:39:19.562500,-7.43
17:39:19.578125,12.25
17:39:19.593750,24.72
17:39:19.609375,26.62
17:39:19.625000,16.40
17:39:19.640625,-4.75
17:39:19.656250,-32.79
17:39:19.671875,-61.78
17:39:19.687500,-85.59
17:39:19.703125,-99.74
17:39:19.718750,-102.68
17:39:19.734375,-95.97
17:39:19.750000,-83.62
17:39:19.765625,-70.53
17:39:19.781250,-61.00
17:39:19.796875,-57.69
17:39:19.812500,-61.10
17:39:19.828125,-69.88
17:39:19.843750,-81.57
17:39:19.859375,-93.54
17:39:19.875000,-103.78
17:39:19.890625,-111.39
17:39:19.906250,-116.71
17:39:19.921875,-120.98
17:39:19.937500,-125.36
17:39:19.953125,-129.81
17:39:19.968750,-132.19
17:39:19.984375,-128.36
17:39:20,-113.80
17:39:20.015625,-86.18
17:39:20.031250,-47.40
17:39:20.046875,-3.95
17:39:20.062500,35.15
17:39:20.078125,61.89
17:39:20.093750,72.38
17:39:20.109375,68.20
17:39:20.125000,54.98
17:39:20.140625,39.59
17:39:20.156250,27.22
17:39:20.171875,20.07
17:39:20.187500,17.76
17:39:20.203125,18.77
17:39:20.218750,21.66
17:39:20.234375,25.48
17:39:20.250000,29.23
17:39:20.265625,31.33
17:39:20.281250,29.76
17:39:20.296875,22.82
17:39:20.312500,10.19
17:39:20.328125,-6.48
17:39:20.343750,-24.07
17:39:20.359375,-39.17
17:39:20.375000,-49.23
17:39:20.390625,-53.33
17:39:20.406250,-52.20
17:39:20.421875,-47.67
17:39:20.437500,-42.02
17:39:20.453125,-37.33
17:39:20.468750,-34.94
17:39:20.484375,-34.99
17:39:20.500000,-36.16
17:39:20.515625,-36.07
17:39:20.531250,-32.22
17:39:20.546875,-23.48
17:39:20.562500,-11.23
17:39:20.578125,0.65
17:39:20.593750,7.27
17:39:20.609375,5.42
17:39:20.625000,-4.26
17:39:20.640625,-16.80
17:39:20.656250,-24.75
17:39:20.671875,-21.57
17:39:20.687500,-4.93
17:39:20.703125,22.10
17:39:20.718750,52.34
17:39:20.734375,77.80
17:39:20.750000,92.92
17:39:20.765625,96.27
17:39:20.781250,89.91
17:39:20.796875,77.38
17:39:20.812500,61.73
17:39:20.828125,44.67
17:39:20.843750,27.27
17:39:20.859375,11.09
17:39:20.875000,-1.25
17:39:20.890625,-6.82
17:39:20.906250,-3.84
17:39:20.921875,6.85
17:39:20.937500,21.70
17:39:20.953125,35.82
17:39:20.968750,45.10
17:39:20.984375,47.94
17:39:21,45.83
17:39:21.015625,42.13
17:39:21.031250,40.22
17:39:21.046875,41.64
17:39:21.062500,45.46
17:39:21.078125,48.81
17:39:21.093750,48.29
17:39:21.109375,41.85
17:39:21.125000,29.67
17:39:21.140625,14.19
17:39:21.156250,-0.80
17:39:21.171875,-11.77
17:39:21.187500,-16.57
17:39:21.203125,-14.89
17:39:21.218750,-7.96
17:39:21.234375,2.06
17:39:21.250000,12.62
17:39:21.265625,20.88
17:39:21.281250,23.81
17:39:21.296875,18.80
17:39:21.312500,5.00
17:39:21.328125,-15.44
17:39:21.343750,-36.87
17:39:21.359375,-51.57
17:39:21.375000,-52.77
17:39:21.390625,-37.98
17:39:21.406250,-10.75
17:39:21.421875,20.36
17:39:21.437500,45.21
17:39:21.453125,56.45
17:39:21.468750,52.19
17:39:21.484375,36.01
17:39:21.500000,14.40
17:39:21.515625,-6.49
17:39:21.531250,-23.24
17:39:21.546875,-35.42
17:39:21.562500,-44.22
17:39:21.578125,-50.67
17:39:21.593750,-54.83
17:39:21.609375,-55.70
17:39:21.625000,-52.38
17:39:21.640625,-45.06
17:39:21.656250,-35.31
17:39:21.671875,-25.85
17:39:21.687500,-19.51
17:39:21.703125,-18.18
17:39:21.718750,-21.97
17:39:21.734375,-29.12
17:39:21.750000,-36.64
17:39:21.765625,-41.43
17:39:21.781250,-41.69
17:39:21.796875,-37.79
17:39:21.812500,-32.05
17:39:21.828125,-27.78
17:39:21.843750,-27.46
17:39:21.859375,-31.37
17:39:21.875000,-37.50
17:39:21.890625,-42.59
17:39:21.906250,-44.01
17:39:21.921875,-41.30
17:39:21.937500,-36.39
17:39:21.953125,-32.50
17:39:21.968750,-32.47
17:39:21.984375,-37.72
17:39:22,-47.87
17:39:22.015625,-61.25
17:39:22.031250,-75.33
17:39:22.046875,-86.81
17:39:22.062500,-91.77
17:39:22.078125,-86.27
17:39:22.093750,-67.72
17:39:22.109375,-36.90
17:39:22.125000,0.98
17:39:22.140625,37.19
17:39:22.156250,62.47
17:39:22.171875,70.82
17:39:22.187500,62.12
17:39:22.203125,42.06
17:39:22.218750,19.27
17:39:22.234375,1.28
17:39:22.250000,-8.51
17:39:22.265625,-11.19
17:39:22.281250,-10.43
17:39:22.296875,-9.55
17:39:22.312500,-9.56
17:39:22.328125,-9.25
17:39:22.343750,-6.89
17:39:22.359375,-2.09
17:39:22.375000,3.47
17:39:22.390625,6.99
17:39:22.406250,6.68
17:39:22.421875,3.13
17:39:22.437500,-0.88
17:39:22.453125,-2.09
17:39:22.468750,1.03
17:39:22.484375,7.05
17:39:22.500000,12.27
17:39:22.515625,12.91
17:39:22.531250,7.28
17:39:22.546875,-3.23
17:39:22.562500,-14.95
17:39:22.578125,-24.14
17:39:22.593750,-28.82
17:39:22.609375,-29.59
17:39:22.625000,-28.78
17:39:22.640625,-28.84
17:39:22.656250,-31.04
17:39:22.671875,-35.23
17:39:22.687500,-40.64
17:39:22.703125,-46.82
17:39:22.718750,-53.58
17:39:22.734375,-60.22
17:39:22.750000,-64.48
17:39:22.765625,-62.56
17:39:22.781250,-50.68
17:39:22.796875,-27.49
17:39:22.812500,4.10
17:39:22.828125,37.12
17:39:22.843750,63.08
17:39:22.859375,75.66
17:39:22.875000,73.50
17:39:22.890625,60.56
17:39:22.906250,43.75
17:39:22.921875,29.46
17:39:22.937500,20.74
17:39:22.953125,16.81
17:39:22.968750,14.69
17:39:22.984375,11.64
17:39:23,6.88
17:39:23.015625,1.57
17:39:23.031250,-2.48
17:39:23.046875,-4.45
17:39:23.062500,-5.18
17:39:23.078125,-6.59
17:39:23.093750,-10.30
17:39:23.109375,-16.47
17:39:23.125000,-23.63
17:39:23.140625,-29.65
17:39:23.156250,-33.13
17:39:23.171875,-34.43
17:39:23.187500,-35.50
17:39:23.203125,-38.74
17:39:23.218750,-45.50
17:39:23.234375,-55.04
17:39:23.250000,-64.79
17:39:23.265625,-71.52
17:39:23.281250,-72.99
17:39:23.296875,-68.91
17:39:23.312500,-61.00
17:39:23.328125,-52.00
17:39:23.343750,-44.45
17:39:23.359375,-39.89
17:39:23.375000,-38.56
17:39:23.390625,-39.55
17:39:23.406250,-40.96
17:39:23.421875,-39.97
17:39:23.437500,-33.16
17:39:23.453125,-17.59
17:39:23.468750,7.71
17:39:23.484375,40.39
17:39:23.500000,74.67
17:39:23.515625,103.10
17:39:23.531250,119.47
17:39:23.546875,121.47
17:39:23.562500,111.57
17:39:23.578125,95.69
17:39:23.593750,80.22
17:39:23.609375,69.24
17:39:23.625000,63.44
17:39:23.640625,60.96
17:39:23.656250,59.42
17:39:23.671875,57.56
17:39:23.687500,55.64
17:39:23.703125,54.48
17:39:23.718750,54.21
17:39:23.734375,53.77
17:39:23.750000,51.36
17:39:23.765625,45.65
17:39:23.781250,36.82
17:39:23.796875,26.81
17:39:23.812500,18.47
17:39:23.828125,14.18
17:39:23.843750,14.72
17:39:23.859375,18.83
17:39:23.875000,23.77
17:39:23.890625,26.65
17:39:23.906250,25.60
17:39:23.921875,20.58
17:39:23.937500,13.20
17:39:23.953125,5.91
17:39:23.968750,0.94
17:39:23.984375,-0.71
17:39:24,0.36
17:39:24.015625,2.22
17:39:24.031250,2.20
17:39:24.046875,-2.19
17:39:24.062500,-12.19
17:39:24.078125,-26.79
17:39:24.093750,-42.35
17:39:24.109375,-53.30
17:39:24.125000,-54.02
17:39:24.140625,-41.38
17:39:24.156250,-16.73
17:39:24.171875,13.84
17:39:24.187500,41.51
17:39:24.203125,58.16
17:39:24.218750,59.64
17:39:24.234375,47.34
17:39:24.250000,27.20
17:39:24.265625,6.91
17:39:24.281250,-7.29
17:39:24.296875,-12.57
17:39:24.312500,-9.77
17:39:24.328125,-2.07
17:39:24.343750,6.78
17:39:24.359375,13.92
17:39:24.375000,17.94
17:39:24.390625,18.82
17:39:24.406250,17.40
17:39:24.421875,14.87
17:39:24.437500,12.38
17:39:24.453125,10.87
17:39:24.468750,10.98
17:39:24.484375,12.93
17:39:24.500000,16.33
17:39:24.515625,20.23
17:39:24.531250,23.35
17:39:24.546875,24.57
17:39:24.562500,23.45
17:39:24.578125,20.44
17:39:24.593750,16.43
17:39:24.609375,12.01
17:39:24.625000,6.60
17:39:24.640625,-1.78
17:39:24.656250,-15.62
17:39:24.671875,-36.64
17:39:24.687500,-64.42
17:39:24.703125,-96.16
17:39:24.718750,-127.52
17:39:24.734375,-154.04
17:39:24.750000,-172.20
17:39:24.765625,-179.75
17:39:24.781250,-175.44
17:39:24.796875,-158.82
17:39:24.812500,-130.64
17:39:24.828125,-93.48
17:39:24.843750,-52.12
17:39:24.859375,-12.68
17:39:24.875000,19.38
17:39:24.890625,41.35
17:39:24.906250,54.32
17:39:24.921875,62.15
17:39:24.937500,69.14
17:39:24.953125,77.52
17:39:24.968750,86.43
17:39:24.984375,93.11
17:39:25,95.21
17:39:25.015625,92.76
17:39:25.031250,88.41
17:39:25.046875,85.84
17:39:25.062500,87.48
17:39:25.078125,93.03
17:39:25.093750,99.69
17:39:25.109375,103.98
17:39:25.125000,103.91
17:39:25.140625,100.23
17:39:25.156250,95.74
17:39:25.171875,93.41
17:39:25.187500,94.33
17:39:25.203125,96.92
17:39:25.218750,97.67
17:39:25.234375,93.05
17:39:25.250000,81.24
17:39:25.265625,62.89
17:39:25.281250,40.39
17:39:25.296875,16.41
17:39:25.312500,-7.29
17:39:25.328125,-30.08
17:39:25.343750,-51.92
17:39:25.359375,-72.56
17:39:25.375000,-91.36
17:39:25.390625,-107.94
17:39:25.406250,-123.08
17:39:25.421875,-138.97
17:39:25.437500,-158.04
17:39:25.453125,-180.94
17:39:25.468750,-204.78
17:39:25.484375,-222.99
17:39:25.500000,-227.40
17:39:25.515625,-211.90
17:39:25.531250,-175.86
17:39:25.546875,-125.40
17:39:25.562500,-71.66
17:39:25.578125,-26.63
17:39:25.593750,1.42
17:39:25.609375,10.75
17:39:25.625000,6.10
17:39:25.640625,-4.03
17:39:25.656250,-11.33
17:39:25.671875,-10.78
17:39:25.687500,-1.78
17:39:25.703125,12.81
17:39:25.718750,28.92
17:39:25.734375,43.38
17:39:25.750000,55.11
17:39:25.765625,64.90
17:39:25.781250,74.44
17:39:25.796875,84.82
17:39:25.812500,95.77
17:39:25.828125,105.56
17:39:25.843750,111.82
17:39:25.859375,112.65
17:39:25.875000,107.81
17:39:25.890625,99.02
17:39:25.906250,89.30
17:39:25.921875,81.61
17:39:25.937500,77.33
17:39:25.953125,75.59
17:39:25.968750,73.84
17:39:25.984375,69.39
17:39:26,60.96
17:39:26.015625,49.53
17:39:26.031250,37.65
17:39:26.046875,27.88
17:39:26.062500,21.16
17:39:26.078125,16.24
17:39:26.093750,10.27
17:39:26.109375,0.18
17:39:26.125000,-15.67
17:39:26.140625,-36.42
17:39:26.156250,-58.60
17:39:26.171875,-76.94
17:39:26.187500,-86.07
17:39:26.203125,-82.43
17:39:26.218750,-65.94
17:39:26.234375,-40.49
17:39:26.250000,-13.08
17:39:26.265625,8.60
17:39:26.281250,18.91
17:39:26.296875,16.22
17:39:26.312500,3.30
17:39:26.328125,-14.20
17:39:26.343750,-30.16
17:39:26.359375,-40.41
17:39:26.375000,-43.78
17:39:26.390625,-41.94
17:39:26.406250,-38.08
17:39:26.421875,-35.47
17:39:26.437500,-36.15
17:39:26.453125,-40.34
17:39:26.468750,-46.52
17:39:26.484375,-52.11
17:39:26.500000,-54.80
17:39:26.515625,-53.62
17:39:26.531250,-49.57
17:39:26.546875,-45.11
17:39:26.562500,-42.93
17:39:26.578125,-44.59
17:39:26.593750,-49.54
17:39:26.609375,-55.48
17:39:26.625000,-59.68
17:39:26.640625,-60.48
17:39:26.656250,-58.03
17:39:26.671875,-53.87
17:39:26.687500,-49.54
17:39:26.703125,-45.31
17:39:26.718750,-39.82
17:39:26.734375,-31.14
17:39:26.750000,-18.53
17:39:26.765625,-3.66
17:39:26.781250,9.57
17:39:26.796875,16.60
17:39:26.812500,14.46
17:39:26.828125,3.26
17:39:26.843750,-13.41
17:39:26.859375,-29.66
17:39:26.875000,-39.12
17:39:26.890625,-36.97
17:39:26.906250,-21.31
17:39:26.921875,6.31
17:39:26.937500,41.17
17:39:26.953125,76.65
17:39:26.968750,105.95
17:39:26.984375,123.99
17:39:27,128.70
17:39:27.015625,121.39
17:39:27.031250,105.58
17:39:27.046875,85.42
17:39:27.062500,64.21
17:39:27.078125,43.94
17:39:27.093750,25.83
17:39:27.109375,11.24
17:39:27.125000,2.14
17:39:27.140625,0.51
17:39:27.156250,7.25
17:39:27.171875,21.18
17:39:27.187500,38.82
17:39:27.203125,55.28
17:39:27.218750,65.83
17:39:27.234375,67.35
17:39:27.250000,59.23
17:39:27.265625,43.30
17:39:27.281250,23.08
17:39:27.296875,2.60
17:39:27.312500,-14.68
17:39:27.328125,-26.65
17:39:27.343750,-32.84
17:39:27.359375,-34.27
17:39:27.375000,-32.75
17:39:27.390625,-30.19
17:39:27.406250,-27.92
17:39:27.421875,-26.47
17:39:27.437500,-25.82
17:39:27.453125,-25.94
17:39:27.468750,-27.18
17:39:27.484375,-30.47
17:39:27.500000,-37.03
17:39:27.515625,-47.41
17:39:27.531250,-60.51
17:39:27.546875,-73.00
17:39:27.562500,-79.71
17:39:27.578125,-75.46
17:39:27.593750,-57.52
17:39:27.609375,-27.61
17:39:27.625000,7.85
17:39:27.640625,39.85
17:39:27.656250,60.62
17:39:27.671875,66.91
17:39:27.687500,61.18
17:39:27.703125,49.62
17:39:27.718750,38.29
17:39:27.734375,29.70
17:39:27.750000,22.00
17:39:27.765625,11.18
17:39:27.781250,-5.27
17:39:27.796875,-25.56
17:39:27.812500,-43.79
17:39:27.828125,-52.79
17:39:27.843750,-48.07
17:39:27.859375,-30.37
17:39:27.875000,-5.33
17:39:27.890625,19.32
17:39:27.906250,37.56
17:39:27.921875,47.61
17:39:27.937500,52.26
17:39:27.953125,57.12
17:39:27.968750,67.90
17:39:27.984375,88.22
17:39:28,118.01
17:39:28.015625,153.54
17:39:28.031250,188.46
17:39:28.046875,215.58
17:39:28.062500,228.75
17:39:28.078125,224.39
17:39:28.093750,202.33
17:39:28.109375,165.82
17:39:28.125000,120.89
17:39:28.140625,75.05
17:39:28.156250,35.73
17:39:28.171875,8.60
17:39:28.187500,-3.97
17:39:28.203125,-3.82
17:39:28.218750,3.18
17:39:28.234375,8.45
17:39:28.250000,3.46
17:39:28.265625,-16.98
17:39:28.281250,-52.19
17:39:28.296875,-95.40
17:39:28.312500,-136.13
17:39:28.328125,-164.47
17:39:28.343750,-175.08
17:39:28.359375,-168.65
17:39:28.375000,-150.61
17:39:28.390625,-127.57
17:39:28.406250,-103.63
17:39:28.421875,-78.87
17:39:28.437500,-50.90
17:39:28.453125,-18.22
17:39:28.468750,16.66
17:39:28.484375,47.13
17:39:28.500000,65.46
17:39:28.515625,67.40
17:39:28.531250,55.38
17:39:28.546875,38.07
17:39:28.562500,26.11
17:39:28.578125,26.54
17:39:28.593750,38.99
17:39:28.609375,55.97
17:39:28.625000,66.99
17:39:28.640625,64.29
17:39:28.656250,46.76
17:39:28.671875,20.22
17:39:28.687500,-5.96
17:39:28.703125,-23.76
17:39:28.718750,-30.00
17:39:28.734375,-26.96
17:39:28.750000,-20.29
17:39:28.765625,-15.79
17:39:28.781250,-17.11
17:39:28.796875,-25.43
17:39:28.812500,-40.60
17:39:28.828125,-62.49
17:39:28.843750,-91.33
17:39:28.859375,-126.49
17:39:28.875000,-164.85
17:39:28.890625,-199.87
17:39:28.906250,-222.71
17:39:28.921875,-225.36
17:39:28.937500,-204.30
17:39:28.953125,-162.93
17:39:28.968750,-111.02
17:39:28.984375,-61.32
17:39:29,-24.78
17:39:29.015625,-6.68
17:39:29.031250,-5.18
17:39:29.046875,-12.87
17:39:29.062500,-20.37
17:39:29.078125,-20.06
17:39:29.093750,-8.54
17:39:29.109375,12.87
17:39:29.125000,39.47
17:39:29.140625,65.46
17:39:29.156250,86.15
17:39:29.171875,99.28
17:39:29.187500,105.25
17:39:29.203125,106.31
17:39:29.218750,105.47
17:39:29.234375,105.22
17:39:29.250000,106.86
17:39:29.265625,110.39
17:39:29.281250,114.86
17:39:29.296875,118.81
17:39:29.312500,120.65
17:39:29.328125,118.82
17:39:29.343750,112.05
17:39:29.359375,99.75
17:39:29.375000,82.27
17:39:29.390625,61.16
17:39:29.406250,38.98
17:39:29.421875,18.60
17:39:29.437500,2.43
17:39:29.453125,-8.36
17:39:29.468750,-13.94
17:39:29.484375,-15.48
17:39:29.500000,-14.37
17:39:29.515625,-11.27
17:39:29.531250,-5.56
17:39:29.546875,4.54
17:39:29.562500,21.09
17:39:29.578125,45.11
17:39:29.593750,75.30
17:39:29.609375,107.63
17:39:29.625000,136.06
17:39:29.640625,154.23
17:39:29.656250,157.70
17:39:29.671875,145.67
17:39:29.687500,121.51
17:39:29.703125,91.57
17:39:29.718750,62.73
17:39:29.734375,39.51
17:39:29.750000,22.19
17:39:29.765625,7.07
17:39:29.781250,-10.93
17:39:29.796875,-34.67
17:39:29.812500,-62.07
17:39:29.828125,-86.12
17:39:29.843750,-98.06
17:39:29.859375,-91.95
17:39:29.875000,-68.43
17:39:29.890625,-34.87
17:39:29.906250,-1.82
17:39:29.921875,22.09
17:39:29.937500,34.13
17:39:29.953125,37.75
17:39:29.968750,39.68
17:39:29.984375,45.37
17:39:30,55.87
17:39:30.015625,67.87
17:39:30.031250,76.22
17:39:30.046875,77.25
17:39:30.062500,70.71
17:39:30.078125,59.41
17:39:30.093750,46.98
17:39:30.109375,35.54
17:39:30.125000,24.42
17:39:30.140625,10.74
17:39:30.156250,-8.60
17:39:30.171875,-34.56
17:39:30.187500,-64.36
17:39:30.203125,-91.63
17:39:30.218750,-108.38
17:39:30.234375,-108.23
17:39:30.250000,-89.43
17:39:30.265625,-56.28
17:39:30.281250,-17.78
17:39:30.296875,15.88
17:39:30.312500,37.35
17:39:30.328125,44.69
17:39:30.343750,41.08
17:39:30.359375,32.14
17:39:30.375000,22.24
17:39:30.390625,12.30
17:39:30.406250,0.18
17:39:30.421875,-16.73
17:39:30.437500,-38.76
17:39:30.453125,-62.75
17:39:30.468750,-83.23
