10:25:17,-0.00
10:25:17.015625,-0.00
10:25:17.031250,-0.00
10:25:17.046875,-0.00
10:25:17.062500,-0.00
10:25:17.078125,-0.00
10:25:17.093750,-0.00
10:25:17.109375,-0.00
10:25:17.125000,-0.00
10:25:17.140625,-0.01
10:25:17.156250,-0.00
10:25:17.171875,0.00
10:25:17.187500,0.01
10:25:17.203125,0.01
10:25:17.218750,-0.00
10:25:17.234375,-0.03
10:25:17.250000,-0.05
10:25:17.265625,-0.05
10:25:17.281250,-0.00
10:25:17.296875,0.13
10:25:17.312500,0.36
10:25:17.328125,0.66
10:25:17.343750,1.01
10:25:17.359375,1.37
10:25:17.375000,1.72
10:25:17.390625,2.06
10:25:17.406250,2.40
10:25:17.421875,2.77
10:25:17.437500,3.24
10:25:17.453125,3.80
10:25:17.468750,4.42
10:25:17.484375,5.06
10:25:17.500000,5.66
10:25:17.515625,6.20
10:25:17.531250,6.68
10:25:17.546875,7.15
10:25:17.562500,7.64
10:25:17.578125,8.31
10:25:17.593750,9.14
10:25:17.609375,10.09
10:25:17.625000,11.04
10:25:17.640625,11.88
10:25:17.656250,12.56
10:25:17.671875,13.14
10:25:17.687500,13.76
10:25:17.703125,14.58
10:25:17.718750,15.96
10:25:17.734375,17.91
10:25:17.750000,20.32
10:25:17.765625,22.90
10:25:17.781250,25.38
10:25:17.796875,27.58
10:25:17.812500,29.57
10:25:17.828125,31.68
10:25:17.843750,34.20
10:25:17.859375,37.81
10:25:17.875000,42.54
10:25:17.890625,48.15
10:25:17.906250,54.10
10:25:17.921875,59.83
10:25:17.937500,64.97
10:25:17.953125,69.58
10:25:17.968750,74.14
10:25:17.984375,79.19
10:25:18,85.71
10:25:18.015625,93.76
10:25:18.031250,103.00
10:25:18.046875,112.62
10:25:18.062500,121.73
10:25:18.078125,129.77
10:25:18.093750,136.75
10:25:18.109375,144.29
10:25:18.125000,150.58
10:25:18.140625,157.77
10:25:18.156250,166.64
10:25:18.171875,177.95
10:25:18.187500,191.79
10:25:18.203125,206.97
10:25:18.218750,220.57
10:25:18.234375,228.25
10:25:18.250000,225.36
10:25:18.265625,208.37
10:25:18.281250,176.87
10:25:18.296875,132.76
10:25:18.312500,80.05
10:25:18.328125,23.07
10:25:18.343750,-34.94
10:25:18.359375,-92.44
10:25:18.375000,-149.16
10:25:18.390625,-205.23
10:25:18.406250,-260.49
10:25:18.421875,-313.74
10:25:18.437500,-363.87
10:25:18.453125,-409.83
10:25:18.468750,-450.91
10:25:18.484375,-486.50
10:25:18.500000,-515.74
10:25:18.515625,-537.23
10:25:18.531250,-549.22
10:25:18.546875,-550.04
10:25:18.562500,-538.37
10:25:18.578125,-514.20
10:25:18.593750,-478.67
10:25:18.609375,-433.88
10:25:18.625000,-382.45
10:25:18.640625,-327.02
10:25:18.656250,-269.84
10:25:18.671875,-212.63
10:25:18.687500,-156.70
10:25:18.703125,-102.95
10:25:18.718750,-52.37
10:25:18.734375,-5.90
10:25:18.750000,35.58
10:25:18.765625,71.43
10:25:18.781250,101.35
10:25:18.796875,125.50
10:25:18.812500,144.38
10:25:18.828125,158.68
10:25:18.843750,169.15
10:25:18.859375,176.37
10:25:18.875000,180.75
10:25:18.890625,182.57
10:25:18.906250,182.07
10:25:18.921875,179.51
10:25:18.937500,175.23
10:25:18.953125,169.65
10:25:18.968750,163.18
10:25:18.984375,156.15
10:25:19,148.81
10:25:19.015625,141.30
10:25:19.031250,133.69
10:25:19.046875,126.02
10:25:19.062500,118.33
10:25:19.078125,110.69
10:25:19.093750,103.16
10:25:19.109375,95.80
10:25:19.125000,88.68
10:25:19.140625,81.83
10:25:19.156250,75.25
10:25:19.171875,68.95
10:25:19.187500,62.95
10:25:19.203125,57.25
10:25:19.218750,51.86
10:25:19.234375,46.78
10:25:19.250000,42.03
10:25:19.265625,37.59
10:25:19.281250,33.45
10:25:19.296875,29.61
10:25:19.312500,26.07
10:25:19.328125,22.81
10:25:19.343750,19.82
10:25:19.359375,17.11
10:25:19.375000,14.67
10:25:19.390625,12.48
10:25:19.406250,10.54
10:25:19.421875,8.83
10:25:19.437500,7.35
10:25:19.453125,6.07
10:25:19.468750,4.97
10:25:19.484375,4.05
10:25:19.500000,3.27
10:25:19.515625,2.62
10:25:19.531250,2.09
10:25:19.546875,1.65
10:25:19.562500,1.30
10:25:19.578125,1.01
10:25:19.593750,0.78
10:25:19.609375,0.61
10:25:19.625000,0.48
10:25:19.640625,0.39
10:25:19.656250,0.32
10:25:19.671875,0.28
10:25:19.687500,0.23
10:25:19.703125,0.16
10:25:19.718750,0.07
10:25:19.734375,-0.02
10:25:19.750000,-0.10
10:25:19.765625,-0.15
10:25:19.781250,-0.15
10:25:19.796875,-0.12
10:25:19.812500,-0.07
10:25:19.828125,-0.03
10:25:19.843750,-0.04
10:25:19.859375,-0.08
10:25:19.875000,-0.14
10:25:19.890625,-0.19
10:25:19.906250,-0.20
10:25:19.921875,-0.17
10:25:19.937500,-0.09
10:25:19.953125,-0.01
10:25:19.968750,0.02
10:25:19.984375,-0.03
10:25:20,-0.17
10:25:20.015625,-0.35
10:25:20.031250,-0.49
10:25:20.046875,-0.53
10:25:20.062500,-0.43
10:25:20.078125,-0.22
10:25:20.093750,-0.03
10:25:20.109375,0.05
10:25:20.125000,-0.10
10:25:20.140625,-0.46
10:25:20.156250,-0.94
10:25:20.171875,-1.34
10:25:20.187500,-1.48
10:25:20.203125,-1.29
10:25:20.218750,-0.85
10:25:20.234375,-0.38
10:25:20.250000,-0.15
10:25:20.265625,-0.38
10:25:20.281250,-1.07
10:25:20.296875,-1.99
10:25:20.312500,-2.78
10:25:20.328125,-3.11
10:25:20.343750,-2.81
10:25:20.359375,-2.02
10:25:20.375000,-1.15
10:25:20.390625,-0.66
10:25:20.406250,-0.90
10:25:20.421875,-1.89
10:25:20.437500,-3.27
10:25:20.453125,-4.48
10:25:20.468750,-5.07
10:25:20.484375,-4.76
10:25:20.500000,-3.74
10:25:20.515625,-2.43
10:25:20.531250,-1.34
10:25:20.546875,-0.90
10:25:20.562500,-1.43
10:25:20.578125,-3.15
10:25:20.593750,-6.07
10:25:20.609375,-9.74
10:25:20.625000,-13.03
10:25:20.640625,-14.26
10:25:20.656250,-11.80
10:25:20.671875,-4.99
10:25:20.687500,5.33
10:25:20.703125,16.82
10:25:20.718750,26.64
10:25:20.734375,32.51
10:25:20.750000,33.60
10:25:20.765625,30.72
10:25:20.781250,25.59
10:25:20.796875,19.89
10:25:20.812500,14.62
10:25:20.828125,9.90
10:25:20.843750,5.48
10:25:20.859375,1.33
10:25:20.875000,-2.22
10:25:20.890625,-4.58
10:25:20.906250,-5.36
10:25:20.921875,-4.70
10:25:20.937500,-3.26
10:25:20.953125,-1.89
10:25:20.968750,-1.32
10:25:20.984375,-1.77
10:25:21,-2.93
10:25:21.015625,-4.22
10:25:21.031250,-5.02
10:25:21.046875,-5.03
10:25:21.062500,-4.34
10:25:21.078125,-3.35
10:25:21.093750,-2.53
10:25:21.109375,-2.22
10:25:21.125000,-2.46
10:25:21.140625,-3.08
10:25:21.156250,-3.76
10:25:21.171875,-4.21
10:25:21.187500,-4.25
10:25:21.203125,-3.88
10:25:21.218750,-3.26
10:25:21.234375,-2.59
10:25:21.250000,-2.10
10:25:21.265625,-1.93
10:25:21.281250,-2.09
10:25:21.296875,-2.50
10:25:21.312500,-2.96
10:25:21.328125,-3.28
10:25:21.343750,-3.31
10:25:21.359375,-3.04
10:25:21.375000,-2.56
10:25:21.390625,-2.04
10:25:21.406250,-1.67
10:25:21.421875,-1.56
10:25:21.437500,-1.71
10:25:21.453125,-2.06
10:25:21.468750,-2.48
10:25:21.484375,-2.87
10:25:21.500000,-3.13
10:25:21.515625,-3.21
10:25:21.531250,-3.07
10:25:21.546875,-2.74
10:25:21.562500,-2.24
10:25:21.578125,-1.63
10:25:21.593750,-0.96
10:25:21.609375,-0.25
10:25:21.625000,0.48
10:25:21.640625,1.18
10:25:21.656250,1.83
10:25:21.671875,2.40
10:25:21.687500,2.87
10:25:21.703125,3.27
10:25:21.718750,3.56
10:25:21.734375,3.75
10:25:21.750000,3.83
10:25:21.765625,3.80
10:25:21.781250,3.65
10:25:21.796875,3.40
10:25:21.812500,3.10
10:25:21.828125,2.83
10:25:21.843750,2.69
10:25:21.859375,2.71
10:25:21.875000,2.89
10:25:21.890625,3.12
10:25:21.906250,3.31
10:25:21.921875,3.37
10:25:21.937500,3.29
10:25:21.953125,3.13
10:25:21.968750,2.98
10:25:21.984375,2.89
10:25:22,2.83
10:25:22.015625,2.72
10:25:22.031250,2.48
10:25:22.046875,2.04
10:25:22.062500,1.44
10:25:22.078125,0.78
10:25:22.093750,0.12
10:25:22.109375,-0.49
10:25:22.125000,-1.03
10:25:22.140625,-1.50
10:25:22.156250,-1.88
10:25:22.171875,-2.11
10:25:22.187500,-2.18
10:25:22.203125,-2.14
10:25:22.218750,-2.18
10:25:22.234375,-2.52
10:25:22.250000,-3.37
10:25:22.265625,-4.81
10:25:22.281250,-6.78
10:25:22.296875,-9.10
10:25:22.312500,-11.58
10:25:22.328125,-14.12
10:25:22.343750,-16.66
10:25:22.359375,-19.21
10:25:22.375000,-21.71
10:25:22.390625,-23.95
10:25:22.406250,-25.64
10:25:22.421875,-26.55
10:25:22.437500,-26.63
10:25:22.453125,-26.12
10:25:22.468750,-25.49
10:25:22.484375,-25.33
10:25:22.500000,-26.10
10:25:22.515625,-27.97
10:25:22.531250,-30.82
10:25:22.546875,-34.30
10:25:22.562500,-38.04
10:25:22.578125,-41.74
10:25:22.593750,-45.28
10:25:22.609375,-48.63
10:25:22.625000,-51.78
10:25:22.640625,-54.71
10:25:22.656250,-57.42
10:25:22.671875,-59.95
10:25:22.687500,-62.40
10:25:22.703125,-64.94
10:25:22.718750,-67.71
10:25:22.734375,-70.71
10:25:22.750000,-73.84
10:25:22.765625,-76.86
10:25:22.781250,-79.46
10:25:22.796875,-81.26
10:25:22.812500,-81.83
10:25:22.828125,-80.67
10:25:22.843750,-77.19
10:25:22.859375,-70.81
10:25:22.875000,-61.04
10:25:22.890625,-47.63
10:25:22.906250,-30.60
10:25:22.921875,-10.35
10:25:22.937500,12.29
10:25:22.953125,36.03
10:25:22.968750,59.13
10:25:22.984375,79.61
10:25:23,95.58
10:25:23.015625,105.68
10:25:23.031250,109.38
10:25:23.046875,107.25
10:25:23.062500,100.72
10:25:23.078125,91.71
10:25:23.093750,82.12
10:25:23.109375,73.33
10:25:23.125000,66.01
10:25:23.140625,60.10
10:25:23.156250,55.08
10:25:23.171875,50.32
10:25:23.187500,45.45
10:25:23.203125,40.58
10:25:23.218750,36.21
10:25:23.234375,33.01
10:25:23.250000,31.46
10:25:23.265625,31.53
10:25:23.281250,32.74
10:25:23.296875,34.25
10:25:23.312500,35.26
10:25:23.328125,35.26
10:25:23.343750,34.13
10:25:23.359375,32.04
10:25:23.375000,29.40
10:25:23.390625,26.63
10:25:23.406250,24.12
10:25:23.421875,22.15
10:25:23.437500,20.87
10:25:23.453125,20.14
10:25:23.468750,19.51
10:25:23.484375,18.24
10:25:23.500000,15.44
10:25:23.515625,10.52
10:25:23.531250,3.39
10:25:23.546875,-5.29
10:25:23.562500,-14.36
10:25:23.578125,-22.53
10:25:23.593750,-28.88
10:25:23.609375,-33.21
10:25:23.625000,-36.01
10:25:23.640625,-38.32
10:25:23.656250,-41.28
10:25:23.671875,-45.81
10:25:23.687500,-52.33
10:25:23.703125,-60.67
10:25:23.718750,-70.01
10:25:23.734375,-78.93
10:25:23.750000,-85.61
10:25:23.765625,-88.21
10:25:23.781250,-85.27
10:25:23.796875,-76.16
10:25:23.812500,-61.27
10:25:23.828125,-41.91
10:25:23.843750,-19.95
10:25:23.859375,2.68
10:25:23.875000,24.38
10:25:23.890625,44.12
10:25:23.906250,61.41
10:25:23.921875,76.19
10:25:23.937500,88.61
10:25:23.953125,98.97
10:25:23.968750,107.48
10:25:23.984375,114.33
10:25:24,119.66
10:25:24.015625,123.60
10:25:24.031250,126.40
10:25:24.046875,128.29
10:25:24.062500,129.46
10:25:24.078125,129.91
10:25:24.093750,129.45
10:25:24.109375,127.85
10:25:24.125000,125.08
10:25:24.140625,121.48
10:25:24.156250,117.72
10:25:24.171875,114.54
10:25:24.187500,112.34
10:25:24.203125,110.86
10:25:24.218750,109.23
10:25:24.234375,106.17
10:25:24.250000,100.42
10:25:24.265625,91.22
10:25:24.281250,78.63
10:25:24.296875,63.51
10:25:24.312500,47.39
10:25:24.328125,32.00
10:25:24.343750,18.72
10:25:24.359375,8.13
10:25:24.375000,-0.11
10:25:24.390625,-6.93
10:25:24.406250,-13.32
10:25:24.421875,-19.78
10:25:24.437500,-26.15
10:25:24.453125,-31.87
10:25:24.468750,-36.56
10:25:24.484375,-40.43
10:25:24.500000,-44.35
10:25:24.515625,-49.57
10:25:24.531250,-56.98
10:25:24.546875,-66.69
10:25:24.562500,-77.81
10:25:24.578125,-88.66
10:25:24.593750,-97.23
10:25:24.609375,-101.72
10:25:24.625000,-100.93
10:25:24.640625,-94.46
10:25:24.656250,-82.72
10:25:24.671875,-66.88
10:25:24.687500,-48.71
10:25:24.703125,-30.41
10:25:24.718750,-14.42
10:25:24.734375,-2.92
10:25:24.750000,2.62
10:25:24.765625,1.97
10:25:24.781250,-3.75
10:25:24.796875,-12.43
10:25:24.812500,-21.69
10:25:24.828125,-29.63
10:25:24.843750,-35.30
10:25:24.859375,-38.53
10:25:24.875000,-39.56
10:25:24.890625,-38.58
10:25:24.906250,-35.70
10:25:24.921875,-31.18
10:25:24.937500,-25.70
10:25:24.953125,-20.41
10:25:24.968750,-16.59
10:25:24.984375,-15.16
10:25:25,-16.19
10:25:25.015625,-18.92
10:25:25.031250,-22.20
10:25:25.046875,-25.03
10:25:25.062500,-26.97
10:25:25.078125,-28.20
10:25:25.093750,-29.17
10:25:25.109375,-30.28
10:25:25.125000,-31.55
10:25:25.140625,-32.69
10:25:25.156250,-33.26
10:25:25.171875,-32.98
10:25:25.187500,-31.85
10:25:25.203125,-30.15
10:25:25.218750,-28.28
10:25:25.234375,-26.55
10:25:25.250000,-25.15
10:25:25.265625,-24.03
10:25:25.281250,-23.07
10:25:25.296875,-22.06
10:25:25.312500,-20.84
10:25:25.328125,-19.32
10:25:25.343750,-17.47
10:25:25.359375,-15.39
10:25:25.375000,-13.25
10:25:25.390625,-11.23
10:25:25.406250,-9.42
10:25:25.421875,-7.78
10:25:25.437500,-6.16
10:25:25.453125,-4.39
10:25:25.468750,-2.38
10:25:25.484375,-0.18
10:25:25.500000,2.03
10:25:25.515625,4.04
10:25:25.531250,5.70
10:25:25.546875,6.93
10:25:25.562500,7.74
10:25:25.578125,8.20
10:25:25.593750,8.37
10:25:25.609375,8.29
10:25:25.625000,8.05
10:25:25.640625,7.79
10:25:25.656250,7.63
10:25:25.671875,7.65
10:25:25.687500,7.79
10:25:25.703125,7.94
10:25:25.718750,7.90
10:25:25.734375,7.56
10:25:25.750000,6.90
10:25:25.765625,5.99
10:25:25.781250,4.97
10:25:25.796875,3.92
10:25:25.812500,2.85
10:25:25.828125,1.69
10:25:25.843750,0.39
10:25:25.859375,-1.04
10:25:25.875000,-2.55
10:25:25.890625,-4.05
10:25:25.906250,-5.49
10:25:25.921875,-6.85
10:25:25.937500,-8.17
10:25:25.953125,-9.40
10:25:25.968750,-10.38
10:25:25.984375,-10.89
10:25:26,-10.67
10:25:26.015625,-9.63
10:25:26.031250,-7.84
10:25:26.046875,-5.55
10:25:26.062500,-3.11
10:25:26.078125,-0.83
10:25:26.093750,1.04
10:25:26.109375,2.31
10:25:26.125000,2.83
10:25:26.140625,2.46
10:25:26.156250,1.06
10:25:26.171875,-1.36
10:25:26.187500,-4.64
10:25:26.203125,-8.46
10:25:26.218750,-12.42
10:25:26.234375,-16.18
10:25:26.250000,-19.48
10:25:26.265625,-22.10
10:25:26.281250,-23.79
10:25:26.296875,-24.12
10:25:26.312500,-22.54
10:25:26.328125,-18.50
10:25:26.343750,-11.68
10:25:26.359375,-2.23
10:25:26.375000,9.13
10:25:26.390625,21.22
10:25:26.406250,32.70
10:25:26.421875,42.38
10:25:26.437500,49.51
10:25:26.453125,53.86
10:25:26.468750,55.67
10:25:26.484375,55.40
10:25:26.500000,53.56
10:25:26.515625,50.58
10:25:26.531250,46.77
10:25:26.546875,42.39
10:25:26.562500,37.67
10:25:26.578125,32.93
10:25:26.593750,28.57
10:25:26.609375,25.03
10:25:26.625000,22.77
10:25:26.640625,22.12
10:25:26.656250,23.19
10:25:26.671875,25.82
10:25:26.687500,29.46
10:25:26.703125,33.33
10:25:26.718750,36.58
10:25:26.734375,38.53
10:25:26.750000,38.86
10:25:26.765625,37.68
10:25:26.781250,35.48
10:25:26.796875,32.94
10:25:26.812500,30.73
10:25:26.828125,29.39
10:25:26.843750,29.15
10:25:26.859375,29.93
10:25:26.875000,31.34
10:25:26.890625,32.76
10:25:26.906250,33.58
10:25:26.921875,33.41
10:25:26.937500,32.30
10:25:26.953125,30.72
10:25:26.968750,29.46
10:25:26.984375,29.26
10:25:27,30.50
10:25:27.015625,33.14
10:25:27.031250,36.82
10:25:27.046875,41.05
10:25:27.062500,45.46
10:25:27.078125,49.73
10:25:27.093750,53.49
10:25:27.109375,56.27
10:25:27.125000,57.65
10:25:27.140625,57.56
10:25:27.156250,56.35
10:25:27.171875,54.69
10:25:27.187500,52.90
10:25:27.203125,50.46
10:25:27.218750,45.84
10:25:27.234375,37.13
10:25:27.250000,23.13
10:25:27.265625,4.34
10:25:27.281250,-16.82
10:25:27.296875,-36.67
10:25:27.312500,-51.75
10:25:27.328125,-60.16
10:25:27.343750,-62.08
10:25:27.359375,-59.33
10:25:27.375000,-54.19
10:25:27.390625,-48.31
10:25:27.406250,-42.24
10:25:27.421875,-35.68
10:25:27.437500,-28.30
10:25:27.453125,-20.22
10:25:27.468750,-12.14
10:25:27.484375,-4.91
10:25:27.500000,1.02
10:25:27.515625,5.86
10:25:27.531250,10.40
10:25:27.546875,15.49
10:25:27.562500,21.64
10:25:27.578125,28.85
10:25:27.593750,36.74
10:25:27.609375,44.78
10:25:27.625000,52.46
10:25:27.640625,59.35
10:25:27.656250,64.95
10:25:27.671875,68.75
10:25:27.687500,70.31
10:25:27.703125,69.46
10:25:27.718750,66.35
10:25:27.734375,61.39
10:25:27.750000,55.02
10:25:27.765625,47.49
10:25:27.781250,38.76
10:25:27.796875,28.74
10:25:27.812500,17.51
10:25:27.828125,5.37
10:25:27.843750,-6.83
10:25:27.859375,-17.93
10:25:27.875000,-26.89
10:25:27.890625,-33.31
10:25:27.906250,-37.49
10:25:27.921875,-40.14
10:25:27.937500,-42.02
10:25:27.953125,-43.56
10:25:27.968750,-45.01
10:25:27.984375,-46.35
10:25:28,-47.44
10:25:28.015625,-48.33
10:25:28.031250,-49.31
10:25:28.046875,-50.70
10:25:28.062500,-52.54
10:25:28.078125,-54.38
10:25:28.093750,-55.44
10:25:28.109375,-55.50
10:25:28.125000,-54.58
10:25:28.140625,-52.89
10:25:28.156250,-50.94
10:25:28.171875,-49.47
10:25:28.187500,-49.23
10:25:28.203125,-50.53
10:25:28.218750,-53.06
10:25:28.234375,-55.96
10:25:28.250000,-59.61
10:25:28.265625,-63.73
10:25:28.281250,-67.25
10:25:28.296875,-68.74
10:25:28.312500,-67.45
10:25:28.328125,-63.58
10:25:28.343750,-57.97
10:25:28.359375,-51.63
10:25:28.375000,-45.36
10:25:28.390625,-42.58
10:25:28.406250,-45.05
10:25:28.421875,-51.91
10:25:28.437500,-60.74
10:25:28.453125,-69.62
10:25:28.468750,-78.04
10:25:28.484375,-86.42
10:25:28.500000,-95.37
10:25:28.515625,-105.31
10:25:28.531250,-121.10
10:25:28.546875,-145.18
10:25:28.562500,-176.00
10:25:28.578125,-209.38
10:25:28.593750,-241.62
10:25:28.609375,-270.99
10:25:28.625000,-297.12
10:25:28.640625,-320.16
10:25:28.656250,-340.25
10:25:28.671875,-363.20
10:25:28.687500,-391.30
10:25:28.703125,-421.10
10:25:28.718750,-445.38
10:25:28.734375,-458.02
10:25:28.750000,-456.76
10:25:28.765625,-442.87
10:25:28.781250,-419.89
10:25:28.796875,-354.72
10:25:28.812500,-239.55
10:25:28.828125,-94.55
10:25:28.843750,46.05
10:25:28.859375,158.79
10:25:28.875000,238.37
10:25:28.890625,290.03
10:25:28.906250,321.63
10:25:28.921875,340.12
10:25:28.937500,351.02
10:25:28.953125,352.72
10:25:28.968750,345.63
10:25:28.984375,334.08
10:25:29,324.52
10:25:29.015625,320.59
10:25:29.031250,321.49
10:25:29.046875,323.64
10:25:29.062500,323.20
10:25:29.078125,317.97
10:25:29.093750,303.46
10:25:29.109375,279.41
10:25:29.125000,250.27
10:25:29.140625,222.58
10:25:29.156250,200.71
10:25:29.171875,185.34
10:25:29.187500,174.62
10:25:29.203125,165.87
10:25:29.218750,156.91
10:25:29.234375,143.34
10:25:29.250000,122.84
10:25:29.265625,96.11
10:25:29.281250,65.97
10:25:29.296875,35.32
10:25:29.312500,6.13
10:25:29.328125,-20.31
10:25:29.343750,-43.17
10:25:29.359375,-61.97
10:25:29.375000,-78.08
10:25:29.390625,-92.58
10:25:29.406250,-105.62
10:25:29.421875,-116.61
10:25:29.437500,-125.11
10:25:29.453125,-131.07
10:25:29.468750,-134.59
10:25:29.484375,-135.63
10:25:29.500000,-133.87
10:25:29.515625,-129.36
10:25:29.531250,-121.87
10:25:29.546875,-111.02
10:25:29.562500,-96.54
10:25:29.578125,-78.77
10:25:29.593750,-58.78
10:25:29.609375,-38.11
10:25:29.625000,-18.32
10:25:29.640625,-0.63
10:25:29.656250,14.27
10:25:29.671875,26.36
10:25:29.687500,35.96
10:25:29.703125,43.56
10:25:29.718750,49.46
10:25:29.734375,53.84
10:25:29.750000,56.71
10:25:29.765625,58.21
10:25:29.781250,58.61
10:25:29.796875,58.33
10:25:29.812500,57.78
10:25:29.828125,57.16
10:25:29.843750,56.44
10:25:29.859375,55.39
10:25:29.875000,53.76
10:25:29.890625,51.39
10:25:29.906250,48.35
10:25:29.921875,44.92
10:25:29.937500,41.43
10:25:29.953125,38.14
10:25:29.968750,35.18
10:25:29.984375,32.56
10:25:30,30.17
10:25:30.015625,27.94
10:25:30.031250,25.81
10:25:30.046875,23.82
10:25:30.062500,21.98
10:25:30.078125,20.32
10:25:30.093750,18.84
10:25:30.109375,17.49
10:25:30.125000,16.21
10:25:30.140625,14.89
10:25:30.156250,13.44
10:25:30.171875,11.78
10:25:30.187500,9.90
10:25:30.203125,7.93
10:25:30.218750,6.04
10:25:30.234375,4.43
10:25:30.250000,3.21
10:25:30.265625,2.37
10:25:30.281250,1.77
10:25:30.296875,1.31
10:25:30.312500,0.88
10:25:30.328125,0.48
10:25:30.343750,0.12
10:25:30.359375,-0.24
10:25:30.375000,-0.68
10:25:30.390625,-1.29
10:25:30.406250,-2.10
10:25:30.421875,-3.02
10:25:30.437500,-3.87
10:25:30.453125,-4.47
10:25:30.468750,-4.72
10:25:30.484375,-4.60
10:25:30.500000,-4.22
10:25:30.515625,-3.68
10:25:30.531250,-3.04
10:25:30.546875,-2.31
10:25:30.562500,-1.50
10:25:30.578125,-0.59
10:25:30.593750,0.36
10:25:30.609375,1.25
10:25:30.625000,1.97
10:25:30.640625,2.39
10:25:30.656250,2.45
10:25:30.671875,2.08
10:25:30.687500,1.34
10:25:30.703125,0.29
10:25:30.718750,-0.92
10:25:30.734375,-2.21
10:25:30.750000,-3.47
10:25:30.765625,-4.65
10:25:30.781250,-5.72
10:25:30.796875,-6.63
10:25:30.812500,-7.34
10:25:30.828125,-7.83
10:25:30.843750,-8.15
10:25:30.859375,-8.47
10:25:30.875000,-9.00
10:25:30.890625,-9.95
10:25:30.906250,-11.34
10:25:30.921875,-13.02
10:25:30.937500,-14.67
10:25:30.953125,-15.95
10:25:30.968750,-16.60
10:25:30.984375,-16.52
10:25:31,-15.80
10:25:31.015625,-14.60
10:25:31.031250,-13.12
10:25:31.046875,-11.51
10:25:31.062500,-9.93
10:25:31.078125,-8.57
10:25:31.093750,-7.63
10:25:31.109375,-7.29
10:25:31.125000,-7.59
10:25:31.140625,-8.38
10:25:31.156250,-9.31
10:25:31.171875,-10.00
10:25:31.187500,-10.08
10:25:31.203125,-9.37
10:25:31.218750,-7.85
10:25:31.234375,-5.59
10:25:31.250000,-2.80
10:25:31.265625,0.31
10:25:31.281250,3.46
10:25:31.296875,6.39
10:25:31.312500,8.86
10:25:31.328125,10.77
10:25:31.343750,12.10
10:25:31.359375,12.96
10:25:31.375000,13.37
10:25:31.390625,13.32
10:25:31.406250,12.70
10:25:31.421875,11.44
10:25:31.437500,9.63
10:25:31.453125,7.57
10:25:31.468750,5.62
10:25:31.484375,4.03
10:25:31.500000,2.83
10:25:31.515625,1.83
10:25:31.531250,0.73
10:25:31.546875,-0.64
10:25:31.562500,-2.16
10:25:31.578125,-3.52
10:25:31.593750,-4.29
10:25:31.609375,-4.20
10:25:31.625000,-3.20
10:25:31.640625,-1.53
10:25:31.656250,0.42
10:25:31.671875,2.10
10:25:31.687500,3.06
10:25:31.703125,2.96
10:25:31.718750,1.69
10:25:31.734375,-0.57
10:25:31.750000,-3.40
10:25:31.765625,-6.15
10:25:31.781250,-8.13
10:25:31.796875,-8.66
10:25:31.812500,-7.33
10:25:31.828125,-4.08
10:25:31.843750,0.76
10:25:31.859375,6.66
10:25:31.875000,13.07
10:25:31.890625,19.66
10:25:31.906250,26.39
10:25:31.921875,33.23
10:25:31.937500,39.98
10:25:31.953125,45.91
10:25:31.968750,49.94
10:25:31.984375,50.91
10:25:32,48.21
10:25:32.015625,42.10
10:25:32.031250,33.74
10:25:32.046875,24.71
10:25:32.062500,16.48
10:25:32.078125,9.96
10:25:32.093750,5.33
10:25:32.109375,2.27
10:25:32.125000,0.22
10:25:32.140625,-1.33
10:25:32.156250,-2.82
10:25:32.171875,-4.57
10:25:32.187500,-6.83
10:25:32.203125,-9.66
10:25:32.218750,-12.95
10:25:32.234375,-16.35
10:25:32.250000,-19.44
10:25:32.265625,-21.87
10:25:32.281250,-23.51
10:25:32.296875,-24.44
10:25:32.312500,-24.88
10:25:32.328125,-24.98
10:25:32.343750,-24.75
10:25:32.359375,-24.13
10:25:32.375000,-23.11
10:25:32.390625,-21.80
10:25:32.406250,-20.45
10:25:32.421875,-19.32
10:25:32.437500,-18.49
10:25:32.453125,-17.92
10:25:32.468750,-17.39
10:25:32.484375,-16.82
10:25:32.500000,-16.27
10:25:32.515625,-16.00
10:25:32.531250,-16.22
10:25:32.546875,-16.90
10:25:32.562500,-17.69
10:25:32.578125,-18.00
10:25:32.593750,-17.31
10:25:32.609375,-15.40
10:25:32.625000,-12.53
10:25:32.640625,-9.28
10:25:32.656250,-6.42
10:25:32.671875,-4.58
10:25:32.687500,-4.10
10:25:32.703125,-4.93
10:25:32.718750,-6.68
10:25:32.734375,-8.68
10:25:32.750000,-10.21
10:25:32.765625,-10.76
10:25:32.781250,-10.17
10:25:32.796875,-8.73
10:25:32.812500,-7.07
10:25:32.828125,-5.89
10:25:32.843750,-5.70
10:25:32.859375,-6.58
10:25:32.875000,-8.32
10:25:32.890625,-10.56
10:25:32.906250,-13.04
10:25:32.921875,-15.61
10:25:32.937500,-18.14
10:25:32.953125,-20.37
10:25:32.968750,-21.80
10:25:32.984375,-21.84
10:25:33,-20.03
10:25:33.015625,-16.34
10:25:33.031250,-11.23
10:25:33.046875,-5.54
10:25:33.062500,-0.30
10:25:33.078125,3.65
10:25:33.093750,5.82
10:25:33.109375,6.14
10:25:33.125000,4.87
10:25:33.140625,2.55
10:25:33.156250,-0.23
10:25:33.171875,-2.93
10:25:33.187500,-5.18
10:25:33.203125,-6.81
10:25:33.218750,-7.85
10:25:33.234375,-8.37
10:25:33.250000,-8.45
10:25:33.265625,-8.12
10:25:33.281250,-7.39
10:25:33.296875,-6.29
10:25:33.312500,-4.85
10:25:33.328125,-3.09
10:25:33.343750,-0.93
10:25:33.359375,1.73
10:25:33.375000,4.97
10:25:33.390625,8.75
10:25:33.406250,12.85
10:25:33.421875,16.80
10:25:33.437500,20.06
10:25:33.453125,22.13
10:25:33.468750,22.69
10:25:33.484375,21.77
10:25:33.500000,19.71
10:25:33.515625,17.16
10:25:33.531250,14.88
10:25:33.546875,13.50
10:25:33.562500,13.33
10:25:33.578125,14.25
10:25:33.593750,15.79
10:25:33.609375,17.27
10:25:33.625000,18.15
10:25:33.640625,18.19
10:25:33.656250,17.55
10:25:33.671875,16.63
10:25:33.687500,15.89
10:25:33.703125,15.66
10:25:33.718750,16.01
10:25:33.734375,16.80
10:25:33.750000,17.77
10:25:33.765625,18.71
10:25:33.781250,19.48
10:25:33.796875,20.03
10:25:33.812500,20.41
10:25:33.828125,20.70
10:25:33.843750,20.98
10:25:33.859375,21.38
10:25:33.875000,22.00
10:25:33.890625,22.88
10:25:33.906250,23.98
10:25:33.921875,25.13
10:25:33.937500,26.08
10:25:33.953125,26.67
10:25:33.968750,26.84
10:25:33.984375,26.73
10:25:34,26.54
10:25:34.015625,26.53
10:25:34.031250,26.88
10:25:34.046875,27.68
10:25:34.062500,28.86
10:25:34.078125,30.31
10:25:34.093750,31.82
10:25:34.109375,33.13
10:25:34.125000,33.95
10:25:34.140625,34.05
10:25:34.156250,33.27
10:25:34.171875,31.58
10:25:34.187500,29.14
10:25:34.203125,26.29
10:25:34.218750,23.49
10:25:34.234375,21.18
10:25:34.250000,19.75
10:25:34.265625,19.55
10:25:34.281250,20.80
10:25:34.296875,23.73
10:25:34.312500,28.48
10:25:34.328125,34.93
10:25:34.343750,42.52
10:25:34.359375,50.20
10:25:34.375000,56.56
10:25:34.390625,60.10
10:25:34.406250,59.65
10:25:34.421875,54.66
10:25:34.437500,45.44
10:25:34.453125,33.04
10:25:34.468750,19.00
10:25:34.484375,4.95
10:25:34.500000,-7.71
10:25:34.515625,-18.05
10:25:34.531250,-25.62
10:25:34.546875,-30.39
10:25:34.562500,-32.67
10:25:34.578125,-33.12
10:25:34.593750,-32.87
10:25:34.609375,-33.54
10:25:34.625000,-37.11
10:25:34.640625,-45.42
10:25:34.656250,-59.53
10:25:34.671875,-79.14
10:25:34.687500,-102.34
10:25:34.703125,-125.88
10:25:34.718750,-145.79
10:25:34.734375,-158.13
10:25:34.750000,-159.73
10:25:34.765625,-148.76
10:25:34.781250,-125.28
10:25:34.796875,-91.41
10:25:34.812500,-51.21
10:25:34.828125,-10.10
10:25:34.843750,26.09
10:25:34.859375,52.37
10:25:34.875000,65.64
10:25:34.890625,65.18
10:25:34.906250,52.83
10:25:34.921875,32.42
10:25:34.937500,8.90
10:25:34.953125,-12.78
10:25:34.968750,-28.82
10:25:34.984375,-37.44
10:25:35,-39.22
10:25:35.015625,-36.62
10:25:35.031250,-32.95
10:25:35.046875,-30.98
10:25:35.062500,-31.97
10:25:35.078125,-35.42
10:25:35.093750,-39.58
10:25:35.109375,-42.35
10:25:35.125000,-42.21
10:25:35.140625,-38.65
10:25:35.156250,-32.15
10:25:35.171875,-23.81
10:25:35.187500,-14.83
10:25:35.203125,-6.23
10:25:35.218750,1.31
10:25:35.234375,7.47
10:25:35.250000,12.19
10:25:35.265625,15.61
10:25:35.281250,17.94
10:25:35.296875,19.45
10:25:35.312500,20.39
10:25:35.328125,21.09
10:25:35.343750,21.93
10:25:35.359375,23.36
10:25:35.375000,25.81
10:25:35.390625,29.51
10:25:35.406250,34.30
10:25:35.421875,39.52
10:25:35.437500,44.12
10:25:35.453125,46.91
10:25:35.468750,46.92
10:25:35.484375,43.78
10:25:35.500000,37.73
10:25:35.515625,29.55
10:25:35.531250,20.17
10:25:35.546875,10.34
10:25:35.562500,0.41
10:25:35.578125,-9.60
10:25:35.593750,-19.81
10:25:35.609375,-30.20
10:25:35.625000,-40.42
10:25:35.640625,-49.85
10:25:35.656250,-57.75
10:25:35.671875,-63.58
10:25:35.687500,-67.19
10:25:35.703125,-68.83
10:25:35.718750,-69.16
10:25:35.734375,-69.04
10:25:35.750000,-69.31
10:25:35.765625,-70.55
10:25:35.781250,-72.96
10:25:35.796875,-76.31
10:25:35.812500,-79.97
10:25:35.828125,-83.20
10:25:35.843750,-85.24
10:25:35.859375,-85.47
10:25:35.875000,-83.48
10:25:35.890625,-79.14
10:25:35.906250,-72.50
10:25:35.921875,-63.96
10:25:35.937500,-54.11
10:25:35.953125,-43.74
10:25:35.968750,-33.50
10:25:35.984375,-23.72
10:25:36,-14.26
10:25:36.015625,-4.58
10:25:36.031250,5.82
10:25:36.046875,17.02
10:25:36.062500,28.41
10:25:36.078125,38.79
10:25:36.093750,46.86
10:25:36.109375,51.76
10:25:36.125000,53.49
10:25:36.140625,52.88
10:25:36.156250,51.16
10:25:36.171875,49.46
10:25:36.187500,48.45
10:25:36.203125,48.36
10:25:36.218750,49.29
10:25:36.234375,51.45
10:25:36.250000,55.26
10:25:36.265625,61.08
10:25:36.281250,68.87
10:25:36.296875,77.85
10:25:36.312500,86.70
10:25:36.328125,93.81
10:25:36.343750,97.87
10:25:36.359375,98.18
10:25:36.375000,94.85
10:25:36.390625,88.67
10:25:36.406250,80.78
10:25:36.421875,72.44
10:25:36.437500,64.74
10:25:36.453125,58.56
10:25:36.468750,54.41
10:25:36.484375,52.38
10:25:36.500000,52.06
10:25:36.515625,52.59
10:25:36.531250,52.87
10:25:36.546875,51.82
10:25:36.562500,48.69
10:25:36.578125,43.24
10:25:36.593750,35.72
10:25:36.609375,26.68
10:25:36.625000,16.81
10:25:36.640625,6.87
10:25:36.656250,-2.32
10:25:36.671875,-9.80
10:25:36.687500,-14.66
10:25:36.703125,-16.22
10:25:36.718750,-14.40
10:25:36.734375,-9.75
10:25:36.750000,-3.39
10:25:36.765625,3.47
10:25:36.781250,9.91
10:25:36.796875,15.42
10:25:36.812500,19.90
10:25:36.828125,23.26
10:25:36.843750,25.22
10:25:36.859375,25.17
10:25:36.875000,22.40
10:25:36.890625,16.33
10:25:36.906250,6.77
10:25:36.921875,-6.04
10:25:36.937500,-21.49
10:25:36.953125,-38.71
10:25:36.968750,-56.53
10:25:36.984375,-73.51
10:25:37,-87.91
10:25:37.015625,-97.92
10:25:37.031250,-102.06
10:25:37.046875,-99.58
10:25:37.062500,-90.82
10:25:37.078125,-77.20
10:25:37.093750,-60.72
10:25:37.109375,-43.45
10:25:37.125000,-26.98
10:25:37.140625,-12.26
10:25:37.156250,0.25
10:25:37.171875,10.18
10:25:37.187500,16.96
10:25:37.203125,19.93
10:25:37.218750,18.69
10:25:37.234375,13.54
10:25:37.250000,5.72
10:25:37.265625,-2.90
10:25:37.281250,-10.42
10:25:37.296875,-15.65
10:25:37.312500,-18.40
10:25:37.328125,-19.39
10:25:37.343750,-19.54
10:25:37.359375,-19.33
10:25:37.375000,-18.44
10:25:37.390625,-15.99
10:25:37.406250,-11.21
10:25:37.421875,-4.09
10:25:37.437500,4.35
10:25:37.453125,12.45
10:25:37.468750,18.61
10:25:37.484375,22.00
10:25:37.500000,22.85
10:25:37.515625,22.18
10:25:37.531250,21.18
10:25:37.546875,20.57
10:25:37.562500,20.36
10:25:37.578125,20.05
10:25:37.593750,19.05
10:25:37.609375,17.15
10:25:37.625000,14.65
10:25:37.640625,12.22
10:25:37.656250,10.55
10:25:37.671875,10.08
10:25:37.687500,10.83
10:25:37.703125,12.50
10:25:37.718750,14.56
10:25:37.734375,16.40
10:25:37.750000,17.39
10:25:37.765625,16.95
10:25:37.781250,14.66
10:25:37.796875,10.43
10:25:37.812500,4.52
10:25:37.828125,-2.44
10:25:37.843750,-9.56
10:25:37.859375,-16.03
10:25:37.875000,-21.28
10:25:37.890625,-25.07
10:25:37.906250,-27.54
10:25:37.921875,-29.00
10:25:37.937500,-29.80
10:25:37.953125,-30.20
10:25:37.968750,-30.38
10:25:37.984375,-30.38
10:25:38,-30.13
10:25:38.015625,-29.43
10:25:38.031250,-27.93
10:25:38.046875,-25.30
10:25:38.062500,-21.31
10:25:38.078125,-16.06
10:25:38.093750,-10.04
10:25:38.109375,-4.05
10:25:38.125000,1.09
10:25:38.140625,4.73
10:25:38.156250,6.62
10:25:38.171875,6.83
10:25:38.187500,5.69
10:25:38.203125,3.52
10:25:38.218750,0.55
10:25:38.234375,-3.04
10:25:38.250000,-7.01
10:25:38.265625,-11.03
10:25:38.281250,-14.68
10:25:38.296875,-17.58
10:25:38.312500,-19.56
10:25:38.328125,-20.74
10:25:38.343750,-21.43
10:25:38.359375,-22.04
10:25:38.375000,-22.84
10:25:38.390625,-23.93
10:25:38.406250,-25.16
10:25:38.421875,-26.23
10:25:38.437500,-26.86
10:25:38.453125,-26.80
10:25:38.468750,-25.89
10:25:38.484375,-24.05
10:25:38.500000,-21.24
10:25:38.515625,-17.52
10:25:38.531250,-13.08
10:25:38.546875,-8.33
10:25:38.562500,-3.75
10:25:38.578125,0.25
10:25:38.593750,3.62
10:25:38.609375,6.66
10:25:38.625000,9.93
10:25:38.640625,13.93
10:25:38.656250,18.83
10:25:38.671875,24.32
10:25:38.687500,29.81
10:25:38.703125,34.69
10:25:38.718750,38.68
10:25:38.734375,42.02
10:25:38.750000,45.27
10:25:38.765625,49.10
10:25:38.781250,53.86
10:25:38.796875,59.41
10:25:38.812500,65.15
10:25:38.828125,70.33
10:25:38.843750,74.31
10:25:38.859375,76.73
10:25:38.875000,77.52
10:25:38.890625,76.62
10:25:38.906250,73.85
10:25:38.921875,68.91
10:25:38.937500,61.55
10:25:38.953125,51.98
10:25:38.968750,41.02
10:25:38.984375,29.92
10:25:39,20.00
10:25:39.015625,12.17
10:25:39.031250,6.63
10:25:39.046875,3.04
10:25:39.062500,0.78
10:25:39.078125,-0.63
10:25:39.093750,-1.43
10:25:39.109375,-1.66
10:25:39.125000,-1.41
10:25:39.140625,-0.95
10:25:39.156250,-0.72
10:25:39.171875,-1.21
10:25:39.187500,-2.68
10:25:39.203125,-5.07
10:25:39.218750,-7.97
10:25:39.234375,-10.85
10:25:39.250000,-13.23
10:25:39.265625,-14.92
10:25:39.281250,-16.02
10:25:39.296875,-16.87
10:25:39.312500,-17.79
10:25:39.328125,-18.90
10:25:39.343750,-20.01
10:25:39.359375,-20.76
10:25:39.375000,-20.77
10:25:39.390625,-19.84
10:25:39.406250,-18.01
10:25:39.421875,-15.54
10:25:39.437500,-12.75
10:25:39.453125,-9.96
10:25:39.468750,-7.44
10:25:39.484375,-5.38
10:25:39.500000,-3.87
10:25:39.515625,-2.91
10:25:39.531250,-2.43
10:25:39.546875,-2.30
10:25:39.562500,-2.41
10:25:39.578125,-2.65
10:25:39.593750,-2.90
10:25:39.609375,-2.95
10:25:39.625000,-2.55
10:25:39.640625,-1.45
10:25:39.656250,0.44
10:25:39.671875,2.99
10:25:39.687500,5.85
10:25:39.703125,8.60
10:25:39.718750,11.01
10:25:39.734375,13.03
10:25:39.750000,14.81
10:25:39.765625,16.41
10:25:39.781250,17.71
10:25:39.796875,18.41
10:25:39.812500,18.21
10:25:39.828125,17.05
10:25:39.843750,15.18
10:25:39.859375,13.00
10:25:39.875000,10.93
10:25:39.890625,9.10
10:25:39.906250,7.45
10:25:39.921875,5.82
10:25:39.937500,4.13
10:25:39.953125,2.50
10:25:39.968750,1.19
10:25:39.984375,0.37
10:25:40,-0.01
10:25:40.015625,-0.22
10:25:40.031250,-0.65
10:25:40.046875,-1.61
10:25:40.062500,-3.13
10:25:40.078125,-4.98
10:25:40.093750,-6.79
10:25:40.109375,-8.28
10:25:40.125000,-9.50
10:25:40.140625,-10.90
10:25:40.156250,-13.30
10:25:40.171875,-17.71
10:25:40.187500,-24.93
10:25:40.203125,-35.33
10:25:40.218750,-48.66
10:25:40.234375,-63.99
10:25:40.250000,-79.85
10:25:40.265625,-94.38
10:25:40.281250,-105.65
10:25:40.296875,-111.93
10:25:40.312500,-112.17
10:25:40.328125,-106.22
10:25:40.343750,-94.97
10:25:40.359375,-80.12
10:25:40.375000,-63.65
10:25:40.390625,-47.32
10:25:40.406250,-32.17
10:25:40.421875,-18.50
10:25:40.437500,-6.17
10:25:40.453125,4.92
10:25:40.468750,14.55
10:25:40.484375,22.14
10:25:40.500000,27.11
10:25:40.515625,29.29
10:25:40.531250,29.12
10:25:40.546875,27.61
10:25:40.562500,25.90
10:25:40.578125,24.71
10:25:40.593750,23.99
10:25:40.609375,23.00
10:25:40.625000,20.72
10:25:40.640625,16.47
10:25:40.656250,10.44
10:25:40.671875,3.74
10:25:40.687500,-2.09
10:25:40.703125,-5.63
10:25:40.718750,-6.22
10:25:40.734375,-4.18
10:25:40.750000,-0.57
10:25:40.765625,3.26
10:25:40.781250,6.24
10:25:40.796875,7.83
10:25:40.812500,8.01
10:25:40.828125,7.11
10:25:40.843750,5.38
10:25:40.859375,3.02
10:25:40.875000,0.10
10:25:40.890625,-3.22
10:25:40.906250,-6.56
10:25:40.921875,-9.35
10:25:40.937500,-10.99
10:25:40.953125,-11.14
10:25:40.968750,-9.96
10:25:40.984375,-8.10
10:25:41,-6.43
10:25:41.015625,-5.71
10:25:41.031250,-6.19
10:25:41.046875,-7.63
10:25:41.062500,-9.43
10:25:41.078125,-10.99
10:25:41.093750,-12.03
10:25:41.109375,-12.64
10:25:41.125000,-13.13
10:25:41.140625,-13.82
10:25:41.156250,-14.86
10:25:41.171875,-16.20
10:25:41.187500,-17.68
10:25:41.203125,-19.08
10:25:41.218750,-20.18
10:25:41.234375,-20.73
10:25:41.250000,-20.47
10:25:41.265625,-19.19
10:25:41.281250,-16.92
10:25:41.296875,-13.94
10:25:41.312500,-10.74
10:25:41.328125,-7.84
10:25:41.343750,-5.56
10:25:41.359375,-3.92
10:25:41.375000,-2.74
10:25:41.390625,-1.75
10:25:41.406250,-0.68
10:25:41.421875,0.70
10:25:41.437500,2.70
10:25:41.453125,5.71
10:25:41.468750,10.09
10:25:41.484375,15.91
10:25:41.500000,22.79
10:25:41.515625,29.88
10:25:41.531250,36.15
10:25:41.546875,40.82
10:25:41.562500,43.70
10:25:41.578125,45.22
10:25:41.593750,46.26
10:25:41.609375,47.76
10:25:41.625000,50.36
10:25:41.640625,54.38
10:25:41.656250,59.77
10:25:41.671875,66.21
10:25:41.687500,73.08
10:25:41.703125,79.37
10:25:41.718750,83.81
10:25:41.734375,85.15
10:25:41.750000,82.78
10:25:41.765625,77.12
10:25:41.781250,69.76
10:25:41.796875,62.89
10:25:41.812500,58.61
10:25:41.828125,58.09
10:25:41.843750,61.24
10:25:41.859375,67.02
10:25:41.875000,74.08
10:25:41.890625,81.45
10:25:41.906250,88.89
10:25:41.921875,96.96
10:25:41.937500,106.50
10:25:41.953125,118.02
10:25:41.968750,131.20
10:25:41.984375,144.54
10:25:42,155.45
10:25:42.015625,160.91
10:25:42.031250,158.22
10:25:42.046875,145.86
10:25:42.062500,123.86
10:25:42.078125,93.79
10:25:42.093750,58.16
10:25:42.109375,19.94
10:25:42.125000,-17.90
10:25:42.140625,-52.41
10:25:42.156250,-80.61
10:25:42.171875,-99.69
10:25:42.187500,-107.59
10:25:42.203125,-103.84
10:25:42.218750,-90.12
10:25:42.234375,-70.07
10:25:42.250000,-48.38
10:25:42.265625,-29.39
10:25:42.281250,-15.89
10:25:42.296875,-8.78
10:25:42.312500,-7.42
10:25:42.328125,-10.50
10:25:42.343750,-16.80
10:25:42.359375,-25.47
10:25:42.375000,-35.95
10:25:42.390625,-47.58
10:25:42.406250,-59.60
10:25:42.421875,-71.25
10:25:42.437500,-82.16
10:25:42.453125,-92.49
10:25:42.468750,-102.63
10:25:42.484375,-112.79
10:25:42.500000,-122.50
10:25:42.515625,-130.48
10:25:42.531250,-134.83
10:25:42.546875,-133.60
10:25:42.562500,-125.36
10:25:42.578125,-109.70
10:25:42.593750,-87.71
10:25:42.609375,-62.01
10:25:42.625000,-36.53
10:25:42.640625,-15.72
10:25:42.656250,-3.46
10:25:42.671875,-1.91
10:25:42.687500,-10.93
10:25:42.703125,-28.18
10:25:42.718750,-50.05
10:25:42.734375,-72.86
10:25:42.750000,-93.71
10:25:42.765625,-110.78
10:25:42.781250,-122.90
10:25:42.796875,-128.95
10:25:42.812500,-127.70
10:25:42.828125,-118.17
10:25:42.843750,-100.31
10:25:42.859375,-75.72
10:25:42.875000,-47.54
10:25:42.890625,-19.72
10:25:42.906250,4.14
10:25:42.921875,21.79
10:25:42.937500,32.67
10:25:42.953125,37.62
10:25:42.968750,38.11
10:25:42.984375,35.44
10:25:43,30.50
10:25:43.015625,23.82
10:25:43.031250,16.00
10:25:43.046875,7.92
10:25:43.062500,0.69
10:25:43.078125,-4.74
10:25:43.093750,-8.10
10:25:43.109375,-9.98
10:25:43.125000,-11.64
10:25:43.140625,-14.54
10:25:43.156250,-19.61
10:25:43.171875,-26.89
10:25:43.187500,-35.43
10:25:43.203125,-43.70
10:25:43.218750,-50.21
10:25:43.234375,-54.11
10:25:43.250000,-55.34
10:25:43.265625,-54.58
10:25:43.281250,-52.71
10:25:43.296875,-50.33
10:25:43.312500,-47.44
10:25:43.328125,-43.40
10:25:43.343750,-37.25
10:25:43.359375,-28.18
10:25:43.375000,-15.91
10:25:43.390625,-0.95
10:25:43.406250,15.49
10:25:43.421875,31.70
10:25:43.437500,45.91
10:25:43.453125,56.65
10:25:43.468750,63.13
10:25:43.484375,65.30
10:25:43.500000,63.78
10:25:43.515625,59.51
10:25:43.531250,53.35
10:25:43.546875,45.82
10:25:43.562500,36.89
10:25:43.578125,26.28
10:25:43.593750,13.82
10:25:43.609375,-0.17
10:25:43.625000,-14.77
10:25:43.640625,-28.63
10:25:43.656250,-40.30
10:25:43.671875,-48.72
10:25:43.687500,-53.39
10:25:43.703125,-54.54
10:25:43.718750,-52.86
10:25:43.734375,-49.39
10:25:43.750000,-45.06
10:25:43.765625,-40.56
10:25:43.781250,-36.07
10:25:43.796875,-31.24
10:25:43.812500,-25.21
10:25:43.828125,-16.91
10:25:43.843750,-5.38
10:25:43.859375,9.75
10:25:43.875000,27.75
10:25:43.890625,46.67
10:25:43.906250,63.57
10:25:43.921875,75.28
10:25:43.937500,79.49
10:25:43.953125,75.66
10:25:43.968750,65.27
10:25:43.984375,51.39
10:25:44,37.47
10:25:44.015625,26.21
10:25:44.031250,18.72
10:25:44.046875,14.69
10:25:44.062500,12.97
10:25:44.078125,12.42
10:25:44.093750,12.46
10:25:44.109375,13.02
10:25:44.125000,14.20
10:25:44.140625,15.81
10:25:44.156250,17.31
10:25:44.171875,17.94
10:25:44.187500,17.16
10:25:44.203125,14.91
10:25:44.218750,11.68
10:25:44.234375,8.26
10:25:44.250000,5.36
10:25:44.265625,3.36
10:25:44.281250,2.07
10:25:44.296875,0.98
10:25:44.312500,-0.54
10:25:44.328125,-2.93
10:25:44.343750,-6.29
10:25:44.359375,-10.47
10:25:44.375000,-15.17
10:25:44.390625,-20.09
10:25:44.406250,-24.91
10:25:44.421875,-29.19
10:25:44.437500,-32.25
10:25:44.453125,-33.32
10:25:44.468750,-31.76
10:25:44.484375,-27.33
10:25:44.500000,-20.33
10:25:44.515625,-11.53
10:25:44.531250,-1.83
10:25:44.546875,8.06
10:25:44.562500,17.75
10:25:44.578125,27.16
10:25:44.593750,36.29
10:25:44.609375,45.01
10:25:44.625000,53.01
10:25:44.640625,59.84
10:25:44.656250,65.14
10:25:44.671875,68.78
10:25:44.687500,70.91
10:25:44.703125,71.92
10:25:44.718750,72.26
10:25:44.734375,72.31
10:25:44.750000,72.19
10:25:44.765625,71.83
10:25:44.781250,71.02
10:25:44.796875,69.66
10:25:44.812500,67.82
10:25:44.828125,65.84
10:25:44.843750,64.15
10:25:44.859375,63.03
10:25:44.875000,62.48
10:25:44.890625,62.10
10:25:44.906250,61.38
10:25:44.921875,59.90
10:25:44.937500,57.72
10:25:44.953125,55.35
10:25:44.968750,53.59
10:25:44.984375,53.22
10:25:45,54.53
10:25:45.015625,57.07
10:25:45.031250,59.58
10:25:45.046875,60.23
10:25:45.062500,57.06
10:25:45.078125,48.64
10:25:45.093750,34.53
10:25:45.109375,15.65
10:25:45.125000,-5.82
10:25:45.140625,-26.91
10:25:45.156250,-44.55
10:25:45.171875,-56.42
10:25:45.187500,-61.43
10:25:45.203125,-59.82
10:25:45.218750,-52.78
10:25:45.234375,-41.82
10:25:45.250000,-28.12
10:25:45.265625,-12.19
10:25:45.281250,6.05
10:25:45.296875,26.84
10:25:45.312500,49.94
10:25:45.328125,74.25
10:25:45.343750,97.61
10:25:45.359375,117.16
10:25:45.375000,130.00
10:25:45.390625,133.92
10:25:45.406250,128.10
10:25:45.421875,113.38
10:25:45.437500,92.09
10:25:45.453125,67.47
10:25:45.468750,42.74
10:25:45.484375,20.25
10:25:45.500000,0.86
10:25:45.515625,-16.00
10:25:45.531250,-31.74
10:25:45.546875,-47.69
10:25:45.562500,-64.37
10:25:45.578125,-81.08
10:25:45.593750,-96.29
10:25:45.609375,-108.26
10:25:45.625000,-115.88
10:25:45.640625,-118.99
10:25:45.656250,-118.31
10:25:45.671875,-114.89
10:25:45.687500,-109.68
10:25:45.703125,-103.26
10:25:45.718750,-95.98
10:25:45.734375,-88.25
10:25:45.750000,-80.75
10:25:45.765625,-74.27
10:25:45.781250,-69.43
10:25:45.796875,-66.19
10:25:45.812500,-63.82
10:25:45.828125,-61.16
10:25:45.843750,-57.14
10:25:45.859375,-51.27
10:25:45.875000,-43.81
10:25:45.890625,-35.51
10:25:45.906250,-27.13
10:25:45.921875,-18.97
10:25:45.937500,-10.79
10:25:45.953125,-2.09
10:25:45.968750,7.59
10:25:45.984375,18.21
10:25:46,29.19
10:25:46.015625,39.53
10:25:46.031250,48.10
10:25:46.046875,54.01
10:25:46.062500,56.82
10:25:46.078125,56.68
10:25:46.093750,54.21
10:25:46.109375,50.38
10:25:46.125000,46.15
10:25:46.140625,42.24
10:25:46.156250,39.02
10:25:46.171875,36.55
10:25:46.187500,34.79
10:25:46.203125,33.79
10:25:46.218750,33.75
10:25:46.234375,34.84
10:25:46.250000,36.91
10:25:46.265625,39.25
10:25:46.281250,40.63
10:25:46.296875,39.56
10:25:46.312500,34.91
10:25:46.328125,26.38
10:25:46.343750,14.75
10:25:46.359375,1.71
10:25:46.375000,-10.77
10:25:46.390625,-21.10
10:25:46.406250,-28.57
10:25:46.421875,-33.37
10:25:46.437500,-36.23
10:25:46.453125,-37.93
10:25:46.468750,-38.84
10:25:46.484375,-38.96
10:25:46.500000,-38.13
10:25:46.515625,-36.40
10:25:46.531250,-34.16
10:25:46.546875,-32.04
10:25:46.562500,-30.58
10:25:46.578125,-29.93
10:25:46.593750,-29.88
10:25:46.609375,-30.02
10:25:46.625000,-30.06
10:25:46.640625,-30.06
10:25:46.656250,-30.30
10:25:46.671875,-31.09
10:25:46.687500,-32.51
10:25:46.703125,-34.31
10:25:46.718750,-36.01
10:25:46.734375,-37.14
10:25:46.750000,-37.34
10:25:46.765625,-36.49
10:25:46.781250,-34.61
10:25:46.796875,-31.86
10:25:46.812500,-28.48
10:25:46.828125,-24.89
10:25:46.843750,-21.68
10:25:46.859375,-19.47
10:25:46.875000,-18.65
10:25:46.890625,-19.15
10:25:46.906250,-20.38
10:25:46.921875,-21.37
10:25:46.937500,-21.23
10:25:46.953125,-19.47
10:25:46.968750,-16.31
10:25:46.984375,-12.51
10:25:47,-9.07
10:25:47.015625,-6.81
10:25:47.031250,-6.05
10:25:47.046875,-6.59
10:25:47.062500,-7.93
10:25:47.078125,-9.50
10:25:47.093750,-10.96
10:25:47.109375,-12.22
10:25:47.125000,-13.36
10:25:47.140625,-14.51
10:25:47.156250,-15.74
10:25:47.171875,-17.07
10:25:47.187500,-18.56
10:25:47.203125,-20.35
10:25:47.218750,-22.64
10:25:47.234375,-25.54
10:25:47.250000,-28.95
10:25:47.265625,-32.56
10:25:47.281250,-35.90
10:25:47.296875,-38.59
10:25:47.312500,-40.43
10:25:47.328125,-41.43
10:25:47.343750,-41.81
10:25:47.359375,-41.78
10:25:47.375000,-41.46
10:25:47.390625,-40.72
10:25:47.406250,-39.35
10:25:47.421875,-37.12
10:25:47.437500,-33.89
10:25:47.453125,-29.66
10:25:47.468750,-24.59
10:25:47.484375,-18.85
10:25:47.500000,-12.58
10:25:47.515625,-5.84
10:25:47.531250,1.36
10:25:47.546875,8.96
10:25:47.562500,16.84
10:25:47.578125,24.79
10:25:47.593750,32.56
10:25:47.609375,39.93
10:25:47.625000,46.70
10:25:47.640625,52.72
10:25:47.656250,57.80
10:25:47.671875,61.77
10:25:47.687500,64.51
10:25:47.703125,66.09
10:25:47.718750,66.74
10:25:47.734375,66.97
10:25:47.750000,67.49
10:25:47.765625,69.20
10:25:47.781250,73.21
10:25:47.796875,80.70
10:25:47.812500,92.60
10:25:47.828125,109.12
10:25:47.843750,129.24
10:25:47.859375,150.37
10:25:47.875000,168.71
10:25:47.890625,179.98
10:25:47.906250,180.56
10:25:47.921875,168.63
10:25:47.937500,144.78
10:25:47.953125,111.87
10:25:47.968750,74.29
10:25:47.984375,36.78
10:25:48,3.41
10:25:48.015625,-23.15
10:25:48.031250,-41.73
10:25:48.046875,-52.51
10:25:48.062500,-56.61
10:25:48.078125,-55.67
10:25:48.093750,-51.48
10:25:48.109375,-45.69
10:25:48.125000,-39.58
10:25:48.140625,-33.91
10:25:48.156250,-28.88
10:25:48.171875,-24.38
10:25:48.187500,-20.28
10:25:48.203125,-16.79
10:25:48.218750,-14.47
10:25:48.234375,-14.15
10:25:48.250000,-16.41
10:25:48.265625,-21.28
10:25:48.281250,-28.14
10:25:48.296875,-35.89
10:25:48.312500,-43.44
10:25:48.328125,-50.03
10:25:48.343750,-55.35
10:25:48.359375,-59.42
10:25:48.375000,-62.36
10:25:48.390625,-64.27
10:25:48.406250,-65.23
10:25:48.421875,-65.40
10:25:48.437500,-65.07
10:25:48.453125,-64.56
10:25:48.468750,-64.10
10:25:48.484375,-63.63
10:25:48.500000,-62.82
10:25:48.515625,-61.25
10:25:48.531250,-58.61
10:25:48.546875,-54.85
10:25:48.562500,-50.25
10:25:48.578125,-45.23
10:25:48.593750,-40.17
10:25:48.609375,-35.23
10:25:48.625000,-30.29
10:25:48.640625,-25.04
10:25:48.656250,-19.14
10:25:48.671875,-12.41
10:25:48.687500,-5.02
10:25:48.703125,2.52
10:25:48.718750,9.55
10:25:48.734375,15.39
10:25:48.750000,19.71
10:25:48.765625,22.49
10:25:48.781250,24.04
10:25:48.796875,24.81
10:25:48.812500,25.19
10:25:48.828125,25.45
10:25:48.843750,25.69
10:25:48.859375,25.94
10:25:48.875000,26.19
10:25:48.890625,26.32
10:25:48.906250,26.16
10:25:48.921875,25.49
10:25:48.937500,24.09
10:25:48.953125,21.93
10:25:48.968750,19.13
10:25:48.984375,15.93
10:25:49,12.60
10:25:49.015625,9.32
10:25:49.031250,6.22
10:25:49.046875,3.37
10:25:49.062500,0.89
10:25:49.078125,-1.12
10:25:49.093750,-2.66
10:25:49.109375,-3.86
10:25:49.125000,-4.98
10:25:49.140625,-6.27
10:25:49.156250,-7.80
10:25:49.171875,-9.43
10:25:49.187500,-10.86
10:25:49.203125,-11.79
10:25:49.218750,-12.09
10:25:49.234375,-11.81
10:25:49.250000,-11.14
10:25:49.265625,-10.31
10:25:49.281250,-9.44
10:25:49.296875,-8.52
10:25:49.312500,-7.43
10:25:49.328125,-5.98
10:25:49.343750,-3.99
10:25:49.359375,-1.29
10:25:49.375000,2.21
10:25:49.390625,6.58
10:25:49.406250,11.77
10:25:49.421875,17.64
10:25:49.437500,23.88
10:25:49.453125,30.02
10:25:49.468750,35.44
10:25:49.484375,39.47
10:25:49.500000,41.48
10:25:49.515625,41.16
10:25:49.531250,38.57
10:25:49.546875,34.22
10:25:49.562500,28.99
10:25:49.578125,23.81
10:25:49.593750,19.41
10:25:49.609375,16.02
10:25:49.625000,13.39
10:25:49.640625,10.91
10:25:49.656250,7.98
10:25:49.671875,4.31
10:25:49.687500,0.07
10:25:49.703125,-4.21
10:25:49.718750,-7.94
10:25:49.734375,-10.84
10:25:49.750000,-13.00
10:25:49.765625,-14.79
10:25:49.781250,-16.56
10:25:49.796875,-18.35
10:25:49.812500,-19.89
10:25:49.828125,-20.75
10:25:49.843750,-20.71
10:25:49.859375,-19.90
10:25:49.875000,-18.75
10:25:49.890625,-17.77
10:25:49.906250,-17.27
10:25:49.921875,-17.26
10:25:49.937500,-17.53
10:25:49.953125,-17.84
10:25:49.968750,-18.04
10:25:49.984375,-18.11
10:25:50,-18.14
10:25:50.015625,-18.17
10:25:50.031250,-18.17
10:25:50.046875,-18.04
10:25:50.062500,-17.65
10:25:50.078125,-16.90
10:25:50.093750,-15.68
10:25:50.109375,-13.96
10:25:50.125000,-11.82
10:25:50.140625,-9.39
10:25:50.156250,-6.87
10:25:50.171875,-4.30
10:25:50.187500,-1.65
10:25:50.203125,1.25
10:25:50.218750,4.52
10:25:50.234375,8.06
10:25:50.250000,11.46
10:25:50.265625,14.20
10:25:50.281250,15.87
10:25:50.296875,16.37
10:25:50.312500,15.93
10:25:50.328125,15.01
10:25:50.343750,13.98
10:25:50.359375,13.02
10:25:50.375000,12.04
10:25:50.390625,10.79
10:25:50.406250,8.99
10:25:50.421875,6.48
10:25:50.437500,3.11
10:25:50.453125,-1.22
10:25:50.468750,-6.51
10:25:50.484375,-12.41
10:25:50.500000,-18.11
10:25:50.515625,-22.38
10:25:50.531250,-23.97
10:25:50.546875,-22.21
10:25:50.562500,-17.47
10:25:50.578125,-11.14
10:25:50.593750,-5.10
10:25:50.609375,-0.91
10:25:50.625000,0.81
10:25:50.640625,0.52
10:25:50.656250,-0.69
10:25:50.671875,-1.75
10:25:50.687500,-2.17
10:25:50.703125,-2.07
10:25:50.718750,-1.93
10:25:50.734375,-2.12
10:25:50.750000,-2.61
10:25:50.765625,-3.06
10:25:50.781250,-3.06
10:25:50.796875,-2.44
10:25:50.812500,-1.31
10:25:50.828125,0.00
10:25:50.843750,1.15
10:25:50.859375,1.96
10:25:50.875000,2.47
10:25:50.890625,2.82
10:25:50.906250,3.18
10:25:50.921875,3.66
10:25:50.937500,4.24
10:25:50.953125,4.82
10:25:50.968750,5.29
10:25:50.984375,5.61
10:25:51,5.86
10:25:51.015625,6.15
10:25:51.031250,6.63
10:25:51.046875,7.36
10:25:51.062500,8.27
10:25:51.078125,9.28
10:25:51.093750,10.25
10:25:51.109375,11.08
10:25:51.125000,11.76
10:25:51.140625,12.27
10:25:51.156250,12.63
10:25:51.171875,12.80
10:25:51.187500,12.76
10:25:51.203125,12.48
10:25:51.218750,11.96
10:25:51.234375,11.18
10:25:51.250000,10.14
10:25:51.265625,8.83
10:25:51.281250,7.28
10:25:51.296875,5.63
10:25:51.312500,4.04
10:25:51.328125,2.75
10:25:51.343750,1.90
10:25:51.359375,1.51
10:25:51.375000,1.50
10:25:51.390625,1.71
10:25:51.406250,1.98
10:25:51.421875,2.29
10:25:51.437500,2.70
10:25:51.453125,3.36
10:25:51.468750,4.42
10:25:51.484375,5.84
10:25:51.500000,7.38
10:25:51.515625,8.47
10:25:51.531250,8.44
10:25:51.546875,6.73
10:25:51.562500,3.09
10:25:51.578125,-2.24
10:25:51.593750,-8.61
10:25:51.609375,-15.13
10:25:51.625000,-20.98
10:25:51.640625,-25.65
10:25:51.656250,-29.01
10:25:51.671875,-31.25
10:25:51.687500,-32.69
10:25:51.703125,-33.57
10:25:51.718750,-34.05
10:25:51.734375,-34.18
10:25:51.750000,-33.99
10:25:51.765625,-33.53
10:25:51.781250,-32.86
10:25:51.796875,-31.97
10:25:51.812500,-30.80
10:25:51.828125,-29.21
10:25:51.843750,-27.09
10:25:51.859375,-24.35
10:25:51.875000,-21.04
10:25:51.890625,-17.23
10:25:51.906250,-13.01
10:25:51.921875,-8.38
10:25:51.937500,-3.41
10:25:51.953125,1.67
10:25:51.968750,6.42
10:25:51.984375,10.20
10:25:52,12.46
10:25:52.015625,12.99
10:25:52.031250,12.05
10:25:52.046875,10.24
10:25:52.062500,8.23
10:25:52.078125,6.46
10:25:52.093750,4.96
10:25:52.109375,3.45
10:25:52.125000,1.49
10:25:52.140625,-1.25
10:25:52.156250,-4.92
10:25:52.171875,-9.46
10:25:52.187500,-14.59
10:25:52.203125,-19.74
10:25:52.218750,-24.06
10:25:52.234375,-26.54
10:25:52.250000,-26.33
10:25:52.265625,-23.19
10:25:52.281250,-17.72
10:25:52.296875,-11.25
10:25:52.312500,-5.32
10:25:52.328125,-1.08
10:25:52.343750,1.05
10:25:52.359375,1.42
10:25:52.375000,0.80
10:25:52.390625,-0.14
10:25:52.406250,-0.98
10:25:52.421875,-1.60
10:25:52.437500,-1.96
10:25:52.453125,-1.94
10:25:52.468750,-1.33
10:25:52.484375,-0.04
10:25:52.500000,1.80
10:25:52.515625,3.80
10:25:52.531250,5.48
10:25:52.546875,6.41
10:25:52.562500,6.40
10:25:52.578125,5.60
10:25:52.593750,4.41
10:25:52.609375,3.33
10:25:52.625000,2.76
10:25:52.640625,2.85
10:25:52.656250,3.48
10:25:52.671875,4.29
10:25:52.687500,4.87
10:25:52.703125,4.91
10:25:52.718750,4.19
10:25:52.734375,2.58
10:25:52.750000,0.00
10:25:52.765625,-3.63
10:25:52.781250,-8.31
10:25:52.796875,-13.75
10:25:52.812500,-19.44
10:25:52.828125,-24.73
10:25:52.843750,-29.06
10:25:52.859375,-32.15
10:25:52.875000,-34.06
10:25:52.890625,-35.05
10:25:52.906250,-35.34
10:25:52.921875,-35.00
10:25:52.937500,-33.99
10:25:52.953125,-32.22
10:25:52.968750,-29.86
10:25:52.984375,-27.21
10:25:53,-24.71
10:25:53.015625,-22.69
10:25:53.031250,-21.14
10:25:53.046875,-19.80
10:25:53.062500,-18.20
10:25:53.078125,-15.91
10:25:53.093750,-12.73
10:25:53.109375,-8.75
10:25:53.125000,-4.25
10:25:53.140625,0.40
10:25:53.156250,4.89
10:25:53.171875,9.03
10:25:53.187500,12.77
10:25:53.203125,16.12
10:25:53.218750,19.15
10:25:53.234375,21.93
10:25:53.250000,24.45
10:25:53.265625,26.64
10:25:53.281250,28.33
10:25:53.296875,29.35
10:25:53.312500,29.57
10:25:53.328125,28.99
10:25:53.343750,27.83
10:25:53.359375,26.48
10:25:53.375000,25.39
10:25:53.390625,24.95
10:25:53.406250,25.33
10:25:53.421875,26.45
10:25:53.437500,27.99
10:25:53.453125,29.58
10:25:53.468750,30.89
10:25:53.484375,31.82
10:25:53.500000,32.47
10:25:53.515625,33.06
10:25:53.531250,33.87
10:25:53.546875,34.93
10:25:53.562500,36.03
10:25:53.578125,36.74
10:25:53.593750,36.57
10:25:53.609375,35.21
10:25:53.625000,32.74
10:25:53.640625,29.62
10:25:53.656250,26.60
10:25:53.671875,24.42
10:25:53.687500,23.64
10:25:53.703125,24.45
10:25:53.718750,26.64
10:25:53.734375,29.59
10:25:53.750000,32.31
10:25:53.765625,33.67
10:25:53.781250,32.58
10:25:53.796875,28.41
10:25:53.812500,21.12
10:25:53.828125,11.49
10:25:53.843750,0.76
10:25:53.859375,-9.66
10:25:53.875000,-18.58
10:25:53.890625,-25.37
10:25:53.906250,-29.83
10:25:53.921875,-32.19
10:25:53.937500,-32.80
10:25:53.953125,-32.12
10:25:53.968750,-30.68
10:25:53.984375,-29.05
10:25:54,-27.69
10:25:54.015625,-26.89
10:25:54.031250,-26.57
10:25:54.046875,-26.40
10:25:54.062500,-25.99
10:25:54.078125,-25.03
10:25:54.093750,-23.49
10:25:54.109375,-21.48
10:25:54.125000,-19.24
10:25:54.140625,-16.89
10:25:54.156250,-14.43
10:25:54.171875,-11.77
10:25:54.187500,-8.73
10:25:54.203125,-5.21
10:25:54.218750,-1.23
10:25:54.234375,3.07
10:25:54.250000,7.42
10:25:54.265625,11.48
10:25:54.281250,14.96
10:25:54.296875,17.69
10:25:54.312500,19.69
10:25:54.328125,21.13
10:25:54.343750,22.22
10:25:54.359375,23.10
10:25:54.375000,23.83
10:25:54.390625,24.33
10:25:54.406250,24.48
10:25:54.421875,24.20
10:25:54.437500,23.54
10:25:54.453125,22.58
10:25:54.468750,21.47
10:25:54.484375,20.30
10:25:54.500000,19.06
10:25:54.515625,17.72
10:25:54.531250,16.26
10:25:54.546875,14.75
10:25:54.562500,13.38
10:25:54.578125,12.41
10:25:54.593750,12.05
10:25:54.609375,12.36
10:25:54.625000,13.23
10:25:54.640625,14.38
10:25:54.656250,15.48
10:25:54.671875,16.17
10:25:54.687500,16.29
10:25:54.703125,15.76
10:25:54.718750,14.75
10:25:54.734375,13.54
10:25:54.750000,12.60
10:25:54.765625,12.37
10:25:54.781250,13.14
10:25:54.796875,14.92
10:25:54.812500,17.26
10:25:54.828125,19.36
10:25:54.843750,20.21
10:25:54.859375,18.92
10:25:54.875000,15.02
10:25:54.890625,8.64
10:25:54.906250,0.50
10:25:54.921875,-8.23
10:25:54.937500,-16.36
10:25:54.953125,-22.90
10:25:54.968750,-27.40
10:25:54.984375,-29.88
10:25:55,-30.77
10:25:55.015625,-30.63
10:25:55.031250,-30.00
10:25:55.046875,-29.24
10:25:55.062500,-28.61
10:25:55.078125,-28.25
10:25:55.093750,-28.28
10:25:55.109375,-28.74
10:25:55.125000,-29.61
10:25:55.140625,-30.69
10:25:55.156250,-31.72
10:25:55.171875,-32.43
10:25:55.187500,-32.66
10:25:55.203125,-32.47
10:25:55.218750,-32.00
10:25:55.234375,-31.47
10:25:55.250000,-30.95
10:25:55.265625,-30.35
10:25:55.281250,-29.49
10:25:55.296875,-28.18
10:25:55.312500,-26.38
10:25:55.328125,-24.20
10:25:55.343750,-21.89
10:25:55.359375,-19.68
10:25:55.375000,-17.71
10:25:55.390625,-15.95
10:25:55.406250,-14.26
10:25:55.421875,-12.48
10:25:55.437500,-10.50
10:25:55.453125,-8.31
10:25:55.468750,-6.00
10:25:55.484375,-3.75
10:25:55.500000,-1.73
10:25:55.515625,-0.07
10:25:55.531250,1.19
10:25:55.546875,2.11
10:25:55.562500,2.79
10:25:55.578125,3.27
10:25:55.593750,3.57
10:25:55.609375,3.64
10:25:55.625000,3.44
10:25:55.640625,3.03
10:25:55.656250,2.54
10:25:55.671875,2.11
10:25:55.687500,1.83
10:25:55.703125,1.67
10:25:55.718750,1.52
10:25:55.734375,1.23
10:25:55.750000,0.70
10:25:55.765625,-0.05
10:25:55.781250,-0.94
10:25:55.796875,-1.88
10:25:55.812500,-2.80
10:25:55.828125,-3.76
10:25:55.843750,-4.89
10:25:55.859375,-6.34
10:25:55.875000,-8.15
10:25:55.890625,-10.20
10:25:55.906250,-12.18
10:25:55.921875,-13.70
10:25:55.937500,-14.37
10:25:55.953125,-14.01
10:25:55.968750,-12.65
10:25:55.984375,-10.59
10:25:56,-8.30
10:25:56.015625,-6.32
10:25:56.031250,-5.21
10:25:56.046875,-5.52
10:25:56.062500,-7.59
10:25:56.078125,-11.37
10:25:56.093750,-16.15
10:25:56.109375,-20.56
10:25:56.125000,-23.00
10:25:56.140625,-22.32
10:25:56.156250,-18.54
10:25:56.171875,-13.06
10:25:56.187500,-8.12
10:25:56.203125,-5.79
10:25:56.218750,-7.02
10:25:56.234375,-11.24
10:25:56.250000,-16.71
10:25:56.265625,-21.53
10:25:56.281250,-24.56
10:25:56.296875,-25.74
10:25:56.312500,-25.88
10:25:56.328125,-25.93
10:25:56.343750,-26.41
10:25:56.359375,-27.28
10:25:56.375000,-28.18
10:25:56.390625,-28.80
10:25:56.406250,-29.04
10:25:56.421875,-28.85
10:25:56.437500,-27.95
10:25:56.453125,-25.89
10:25:56.468750,-22.09
10:25:56.484375,-16.25
10:25:56.500000,-8.63
10:25:56.515625,-0.04
10:25:56.531250,8.46
10:25:56.546875,15.93
10:25:56.562500,21.85
10:25:56.578125,26.16
10:25:56.593750,29.08
10:25:56.609375,30.88
10:25:56.625000,31.80
10:25:56.640625,32.01
10:25:56.656250,31.76
10:25:56.671875,31.33
10:25:56.687500,31.02
10:25:56.703125,30.94
10:25:56.718750,31.01
10:25:56.734375,30.98
10:25:56.750000,30.57
10:25:56.765625,29.71
10:25:56.781250,28.43
10:25:56.796875,26.91
10:25:56.812500,25.33
10:25:56.828125,23.76
10:25:56.843750,22.23
10:25:56.859375,20.71
10:25:56.875000,19.20
10:25:56.890625,17.73
10:25:56.906250,16.37
10:25:56.921875,15.17
10:25:56.937500,14.25
10:25:56.953125,13.72
10:25:56.968750,13.72
10:25:56.984375,14.28
10:25:57,15.31
10:25:57.015625,16.50
10:25:57.031250,17.46
10:25:57.046875,17.84
10:25:57.062500,17.52
10:25:57.078125,16.69
10:25:57.093750,15.74
10:25:57.109375,15.10
10:25:57.125000,14.96
10:25:57.140625,15.24
10:25:57.156250,15.69
10:25:57.171875,15.96
10:25:57.187500,15.82
10:25:57.203125,15.20
10:25:57.218750,14.16
10:25:57.234375,12.76
10:25:57.250000,10.90
10:25:57.265625,8.40
10:25:57.281250,5.00
10:25:57.296875,0.54
10:25:57.312500,-5.02
10:25:57.328125,-11.60
10:25:57.343750,-19.19
10:25:57.359375,-27.91
10:25:57.375000,-38.08
10:25:57.390625,-50.05
10:25:57.406250,-64.01
10:25:57.421875,-79.85
10:25:57.437500,-97.15
10:25:57.453125,-115.35
10:25:57.468750,-134.04
10:25:57.484375,-153.15
10:25:57.500000,-172.92
10:25:57.515625,-193.75
10:25:57.531250,-215.97
10:25:57.546875,-239.73
10:25:57.562500,-265.02
10:25:57.578125,-291.47
10:25:57.593750,-318.11
10:25:57.609375,-342.92
10:25:57.625000,-362.75
10:25:57.640625,-373.71
10:25:57.656250,-372.31
10:25:57.671875,-356.68
10:25:57.687500,-327.59
10:25:57.703125,-288.24
10:25:57.718750,-243.31
10:25:57.734375,-197.23
10:25:57.750000,-152.85
10:25:57.765625,-110.92
10:25:57.781250,-70.57
10:25:57.796875,-30.27
10:25:57.812500,11.33
10:25:57.828125,54.88
10:25:57.843750,100.18
10:25:57.859375,146.21
10:25:57.875000,190.99
10:25:57.890625,231.71
10:25:57.906250,265.16
10:25:57.921875,288.54
10:25:57.937500,300.64
10:25:57.953125,302.37
10:25:57.968750,296.60
10:25:57.984375,286.88
10:25:58,275.89
10:25:58.015625,264.44
10:25:58.031250,251.64
10:25:58.046875,236.00
10:25:58.062500,216.94
10:25:58.078125,195.59
10:25:58.093750,174.40
10:25:58.109375,156.02
10:25:58.125000,141.94
10:25:58.140625,131.92
10:25:58.156250,124.33
10:25:58.171875,117.17
10:25:58.187500,108.99
10:25:58.203125,99.45
10:25:58.218750,88.99
10:25:58.234375,78.29
10:25:58.250000,67.78
10:25:58.265625,57.55
10:25:58.281250,47.60
10:25:58.296875,38.10
10:25:58.312500,29.62
10:25:58.328125,22.93
10:25:58.343750,18.66
10:25:58.359375,17.13
10:25:58.375000,18.08
10:25:58.390625,20.84
10:25:58.406250,24.55
10:25:58.421875,28.39
10:25:58.437500,31.67
10:25:58.453125,33.82
10:25:58.468750,34.35
10:25:58.484375,32.94
10:25:58.500000,29.62
10:25:58.515625,24.99
10:25:58.531250,20.14
10:25:58.546875,16.42
10:25:58.562500,15.03
10:25:58.578125,16.63
10:25:58.593750,21.29
10:25:58.609375,28.70
10:25:58.625000,38.38
10:25:58.640625,49.88
10:25:58.656250,62.64
10:25:58.671875,75.93
10:25:58.687500,88.70
10:25:58.703125,99.80
10:25:58.718750,108.20
10:25:58.734375,113.32
10:25:58.750000,115.06
10:25:58.765625,113.69
10:25:58.781250,109.73
10:25:58.796875,103.75
10:25:58.812500,96.42
10:25:58.828125,88.54
10:25:58.843750,81.04
10:25:58.859375,74.86
10:25:58.875000,70.67
10:25:58.890625,68.63
10:25:58.906250,68.20
10:25:58.921875,68.15
10:25:58.937500,66.76
10:25:58.953125,62.35
10:25:58.968750,53.75
10:25:58.984375,40.76
10:25:59,24.17
10:25:59.015625,5.59
10:25:59.031250,-13.11
10:25:59.046875,-30.31
10:25:59.062500,-44.93
10:25:59.078125,-56.61
10:25:59.093750,-65.40
10:25:59.109375,-71.67
10:25:59.125000,-75.82
10:25:59.140625,-78.23
10:25:59.156250,-79.29
10:25:59.171875,-79.28
10:25:59.187500,-78.44
10:25:59.203125,-76.88
10:25:59.218750,-74.57
10:25:59.234375,-71.44
10:25:59.250000,-67.42
10:25:59.265625,-62.58
10:25:59.281250,-57.17
10:25:59.296875,-51.59
10:25:59.312500,-46.35
10:25:59.328125,-41.96
10:25:59.343750,-38.80
10:25:59.359375,-37.01
10:25:59.375000,-36.38
10:25:59.390625,-36.43
10:25:59.406250,-36.50
10:25:59.421875,-35.95
10:25:59.437500,-34.38
10:25:59.453125,-31.75
10:25:59.468750,-28.30
10:25:59.484375,-24.37
10:25:59.500000,-20.21
10:25:59.515625,-15.92
10:25:59.531250,-11.46
10:25:59.546875,-6.81
10:25:59.562500,-2.11
10:25:59.578125,2.28
10:25:59.593750,5.97
10:25:59.609375,8.60
10:25:59.625000,10.04
10:25:59.640625,10.39
10:25:59.656250,9.90
10:25:59.671875,8.83
10:25:59.687500,7.36
10:25:59.703125,5.55
10:25:59.718750,3.39
10:25:59.734375,0.89
10:25:59.750000,-1.83
10:25:59.765625,-4.55
10:25:59.781250,-6.96
10:25:59.796875,-8.82
10:25:59.812500,-9.95
10:25:59.828125,-10.36
10:25:59.843750,-10.13
10:25:59.859375,-9.40
10:25:59.875000,-8.32
10:25:59.890625,-7.00
10:25:59.906250,-5.64
10:25:59.921875,-4.60
10:25:59.937500,-4.32
10:25:59.953125,-5.19
10:25:59.968750,-7.39
10:25:59.984375,-10.74
10:26:00,-14.75
10:26:00.015625,-18.81
10:26:00.031250,-22.43
10:26:00.046875,-25.32
10:26:00.062500,-27.28
10:26:00.078125,-27.99
10:26:00.093750,-27.03
10:26:00.109375,-24.00
10:26:00.125000,-18.79
10:26:00.140625,-11.90
10:26:00.156250,-4.33
10:26:00.171875,2.73
10:26:00.187500,8.30
10:26:00.203125,12.00
10:26:00.218750,13.99
10:26:00.234375,14.84
10:26:00.250000,15.05
10:26:00.265625,14.94
10:26:00.281250,14.52
10:26:00.296875,13.74
10:26:00.312500,12.64
10:26:00.328125,11.38
10:26:00.343750,10.22
10:26:00.359375,9.30
10:26:00.375000,8.61
10:26:00.390625,7.97
10:26:00.406250,7.11
10:26:00.421875,5.84
10:26:00.437500,4.13
10:26:00.453125,2.09
10:26:00.468750,-0.10
10:26:00.484375,-2.27
10:26:00.500000,-4.33
10:26:00.515625,-6.21
10:26:00.531250,-7.82
10:26:00.546875,-9.02
10:26:00.562500,-9.61
10:26:00.578125,-9.47
10:26:00.593750,-8.56
10:26:00.609375,-6.99
10:26:00.625000,-4.98
10:26:00.640625,-2.78
10:26:00.656250,-0.60
10:26:00.671875,1.39
10:26:00.687500,3.11
10:26:00.703125,4.54
10:26:00.718750,5.66
10:26:00.734375,6.52
10:26:00.750000,7.18
10:26:00.765625,7.69
10:26:00.781250,8.10
10:26:00.796875,8.37
10:26:00.812500,8.43
10:26:00.828125,8.18
10:26:00.843750,7.55
10:26:00.859375,6.57
10:26:00.875000,5.32
10:26:00.890625,3.99
10:26:00.906250,2.71
10:26:00.921875,1.58
10:26:00.937500,0.61
10:26:00.953125,-0.22
10:26:00.968750,-0.96
10:26:00.984375,-1.59
10:26:01,-2.14
10:26:01.015625,-2.66
10:26:01.031250,-3.25
10:26:01.046875,-4.04
10:26:01.062500,-5.02
10:26:01.078125,-6.10
10:26:01.093750,-7.01
10:26:01.109375,-7.41
10:26:01.125000,-7.06
10:26:01.140625,-5.85
10:26:01.156250,-3.92
10:26:01.171875,-1.54
10:26:01.187500,1.02
10:26:01.203125,3.50
10:26:01.218750,5.82
10:26:01.234375,7.99
10:26:01.250000,10.05
10:26:01.265625,12.07
10:26:01.281250,14.01
10:26:01.296875,15.75
10:26:01.312500,17.14
10:26:01.328125,17.95
10:26:01.343750,18.07
10:26:01.359375,17.51
10:26:01.375000,16.46
10:26:01.390625,15.26
10:26:01.406250,14.25
10:26:01.421875,13.68
10:26:01.437500,13.57
10:26:01.453125,13.78
10:26:01.468750,14.09
10:26:01.484375,14.35
10:26:01.500000,14.49
10:26:01.515625,14.56
10:26:01.531250,14.60
10:26:01.546875,14.52
10:26:01.562500,14.18
10:26:01.578125,13.42
10:26:01.593750,12.15
10:26:01.609375,10.48
10:26:01.625000,8.67
10:26:01.640625,7.04
10:26:01.656250,5.91
10:26:01.671875,5.45
10:26:01.687500,5.68
10:26:01.703125,6.45
10:26:01.718750,7.58
10:26:01.734375,8.89
10:26:01.750000,10.27
10:26:01.765625,11.68
10:26:01.781250,13.11
10:26:01.796875,14.53
10:26:01.812500,15.81
10:26:01.828125,16.82
10:26:01.843750,17.46
10:26:01.859375,17.74
10:26:01.875000,17.74
10:26:01.890625,17.61
10:26:01.906250,17.44
10:26:01.921875,17.25
10:26:01.937500,16.98
10:26:01.953125,16.51
10:26:01.968750,15.80
10:26:01.984375,14.88
10:26:02,13.89
10:26:02.015625,12.99
10:26:02.031250,12.28
10:26:02.046875,11.73
10:26:02.062500,11.16
10:26:02.078125,10.36
10:26:02.093750,9.16
10:26:02.109375,7.54
10:26:02.125000,5.67
10:26:02.140625,3.75
10:26:02.156250,1.97
10:26:02.171875,0.34
10:26:02.187500,-1.23
10:26:02.203125,-2.86
10:26:02.218750,-4.62
10:26:02.234375,-6.47
10:26:02.250000,-8.31
10:26:02.265625,-10.06
10:26:02.281250,-11.67
10:26:02.296875,-13.09
10:26:02.312500,-14.21
10:26:02.328125,-14.86
10:26:02.343750,-14.88
10:26:02.359375,-14.18
10:26:02.375000,-12.87
10:26:02.390625,-11.22
10:26:02.406250,-9.49
10:26:02.421875,-7.86
10:26:02.437500,-6.31
10:26:02.453125,-4.70
10:26:02.468750,-2.87
10:26:02.484375,-0.83
10:26:02.500000,1.27
10:26:02.515625,3.14
10:26:02.531250,4.51
10:26:02.546875,5.29
10:26:02.562500,5.57
10:26:02.578125,5.54
10:26:02.593750,5.39
10:26:02.609375,5.20
10:26:02.625000,4.94
10:26:02.640625,4.56
10:26:02.656250,4.10
10:26:02.671875,3.71
10:26:02.687500,3.56
10:26:02.703125,3.78
10:26:02.718750,4.30
10:26:02.734375,4.89
10:26:02.750000,5.25
10:26:02.765625,5.17
10:26:02.781250,4.60
10:26:02.796875,3.65
10:26:02.812500,2.48
10:26:02.828125,1.24
10:26:02.843750,0.03
10:26:02.859375,-1.14
10:26:02.875000,-2.24
10:26:02.890625,-3.27
10:26:02.906250,-4.26
10:26:02.921875,-5.24
10:26:02.937500,-6.28
10:26:02.953125,-7.41
10:26:02.968750,-8.65
10:26:02.984375,-9.95
10:26:03,-11.19
10:26:03.015625,-12.25
10:26:03.031250,-13.00
10:26:03.046875,-13.34
10:26:03.062500,-13.22
10:26:03.078125,-12.61
10:26:03.093750,-11.55
10:26:03.109375,-10.19
10:26:03.125000,-8.67
10:26:03.140625,-7.13
10:26:03.156250,-5.64
10:26:03.171875,-4.12
10:26:03.187500,-2.48
10:26:03.203125,-0.65
10:26:03.218750,1.31
10:26:03.234375,3.21
10:26:03.250000,4.81
10:26:03.265625,5.94
10:26:03.281250,6.52
10:26:03.296875,6.65
10:26:03.312500,6.53
10:26:03.328125,6.39
10:26:03.343750,6.37
10:26:03.359375,6.53
10:26:03.375000,6.87
10:26:03.390625,7.28
10:26:03.406250,7.67
10:26:03.421875,7.91
10:26:03.437500,7.89
10:26:03.453125,7.59
10:26:03.468750,7.03
10:26:03.484375,6.30
10:26:03.500000,5.51
10:26:03.515625,4.74
10:26:03.531250,4.04
10:26:03.546875,3.38
10:26:03.562500,2.74
10:26:03.578125,2.10
10:26:03.593750,1.56
10:26:03.609375,1.19
10:26:03.625000,1.06
10:26:03.640625,1.12
10:26:03.656250,1.21
10:26:03.671875,1.09
10:26:03.687500,0.55
10:26:03.703125,-0.56
10:26:03.718750,-2.17
10:26:03.734375,-4.09
10:26:03.750000,-6.06
10:26:03.765625,-7.77
10:26:03.781250,-8.93
10:26:03.796875,-9.34
10:26:03.812500,-8.90
10:26:03.828125,-7.69
10:26:03.843750,-5.91
10:26:03.859375,-3.85
10:26:03.875000,-1.84
10:26:03.890625,-0.14
10:26:03.906250,1.09
10:26:03.921875,1.84
10:26:03.937500,2.25
10:26:03.953125,2.46
10:26:03.968750,2.68
10:26:03.984375,3.07
10:26:04,3.74
10:26:04.015625,4.67
10:26:04.031250,5.81
10:26:04.046875,7.05
10:26:04.062500,8.34
10:26:04.078125,9.63
10:26:04.093750,10.88
10:26:04.109375,12.02
10:26:04.125000,12.87
10:26:04.140625,13.24
10:26:04.156250,13.06
10:26:04.171875,12.38
10:26:04.187500,11.49
10:26:04.203125,10.71
10:26:04.218750,10.35
10:26:04.234375,10.51
10:26:04.250000,11.13
10:26:04.265625,12.01
10:26:04.281250,12.93
10:26:04.296875,13.69
10:26:04.312500,14.11
10:26:04.328125,14.05
10:26:04.343750,13.43
10:26:04.359375,12.34
10:26:04.375000,11.02
10:26:04.390625,9.84
10:26:04.406250,9.08
10:26:04.421875,8.80
10:26:04.437500,8.76
10:26:04.453125,8.59
10:26:04.468750,8.08
10:26:04.484375,7.30
10:26:04.500000,6.71
10:26:04.515625,6.86
10:26:04.531250,8.13
10:26:04.546875,10.49
10:26:04.562500,13.44
10:26:04.578125,16.25
10:26:04.593750,18.31
10:26:04.609375,19.39
10:26:04.625000,19.74
10:26:04.640625,19.93
10:26:04.656250,20.63
10:26:04.671875,22.20
10:26:04.687500,24.57
10:26:04.703125,27.26
10:26:04.718750,29.58
10:26:04.734375,30.98
10:26:04.750000,31.15
10:26:04.765625,30.05
10:26:04.781250,27.85
10:26:04.796875,24.86
10:26:04.812500,21.53
10:26:04.828125,18.46
10:26:04.843750,16.30
10:26:04.859375,15.57
10:26:04.875000,16.28
10:26:04.890625,17.89
10:26:04.906250,19.35
10:26:04.921875,19.68
10:26:04.937500,18.60
10:26:04.953125,16.96
10:26:04.968750,16.60
10:26:04.984375,19.64
10:26:05,27.40
10:26:05.015625,39.59
10:26:05.031250,54.06
10:26:05.046875,67.41
10:26:05.062500,76.12
10:26:05.078125,77.72
10:26:05.093750,71.49
10:26:05.109375,58.52
10:26:05.125000,41.16
10:26:05.140625,22.06
10:26:05.156250,3.49
10:26:05.171875,-13.12
10:26:05.187500,-27.15
10:26:05.203125,-38.54
10:26:05.218750,-47.49
10:26:05.234375,-54.23
10:26:05.250000,-58.97
10:26:05.265625,-61.93
10:26:05.281250,-63.38
10:26:05.296875,-63.57
10:26:05.312500,-62.78
10:26:05.328125,-61.19
10:26:05.343750,-58.84
10:26:05.359375,-55.70
10:26:05.375000,-51.77
10:26:05.390625,-47.22
10:26:05.406250,-42.49
10:26:05.421875,-38.23
10:26:05.437500,-35.15
10:26:05.453125,-33.72
10:26:05.468750,-34.01
10:26:05.484375,-35.63
10:26:05.500000,-37.82
10:26:05.515625,-39.72
10:26:05.531250,-40.65
10:26:05.546875,-40.25
10:26:05.562500,-38.60
10:26:05.578125,-36.06
10:26:05.593750,-33.21
10:26:05.609375,-30.51
10:26:05.625000,-28.24
10:26:05.640625,-26.41
10:26:05.656250,-24.85
10:26:05.671875,-23.34
10:26:05.687500,-21.84
10:26:05.703125,-20.51
10:26:05.718750,-19.68
10:26:05.734375,-19.68
10:26:05.750000,-20.59
10:26:05.765625,-22.22
10:26:05.781250,-24.14
10:26:05.796875,-25.93
10:26:05.812500,-27.36
10:26:05.828125,-28.52
10:26:05.843750,-29.64
10:26:05.859375,-31.00
10:26:05.875000,-32.66
10:26:05.890625,-34.49
10:26:05.906250,-36.22
10:26:05.921875,-37.55
10:26:05.937500,-38.25
10:26:05.953125,-38.29
10:26:05.968750,-37.77
10:26:05.984375,-36.88
10:26:06,-35.86
10:26:06.015625,-34.88
10:26:06.031250,-33.93
10:26:06.046875,-32.75
10:26:06.062500,-30.93
10:26:06.078125,-28.00
10:26:06.093750,-23.69
10:26:06.109375,-18.16
10:26:06.125000,-12.03
10:26:06.140625,-6.17
10:26:06.156250,-1.49
10:26:06.171875,1.45
10:26:06.187500,2.51
10:26:06.203125,2.00
10:26:06.218750,0.42
10:26:06.234375,-1.73
10:26:06.250000,-4.16
10:26:06.265625,-6.76
10:26:06.281250,-9.57
10:26:06.296875,-12.65
10:26:06.312500,-16.00
10:26:06.328125,-19.46
10:26:06.343750,-22.77
10:26:06.359375,-25.54
10:26:06.375000,-27.26
10:26:06.390625,-27.50
10:26:06.406250,-26.01
10:26:06.421875,-22.87
10:26:06.437500,-18.50
10:26:06.453125,-13.60
10:26:06.468750,-8.96
10:26:06.484375,-5.23
10:26:06.500000,-2.84
10:26:06.515625,-1.93
10:26:06.531250,-2.42
10:26:06.546875,-4.08
10:26:06.562500,-6.58
10:26:06.578125,-9.58
10:26:06.593750,-12.72
10:26:06.609375,-15.71
10:26:06.625000,-18.34
10:26:06.640625,-20.51
10:26:06.656250,-22.17
10:26:06.671875,-23.28
10:26:06.687500,-23.72
10:26:06.703125,-23.35
10:26:06.718750,-21.98
10:26:06.734375,-19.51
10:26:06.750000,-15.95
10:26:06.765625,-11.51
10:26:06.781250,-6.51
10:26:06.796875,-1.38
10:26:06.812500,3.44
10:26:06.828125,7.61
10:26:06.843750,10.98
10:26:06.859375,13.53
10:26:06.875000,15.42
10:26:06.890625,16.72
10:26:06.906250,17.51
10:26:06.921875,17.72
10:26:06.937500,17.28
10:26:06.953125,16.21
10:26:06.968750,14.65
10:26:06.984375,12.89
10:26:07,11.41
10:26:07.015625,10.90
10:26:07.031250,12.19
10:26:07.046875,16.19
10:26:07.062500,23.47
10:26:07.078125,33.92
10:26:07.093750,46.48
10:26:07.109375,59.35
10:26:07.125000,70.57
10:26:07.140625,78.77
10:26:07.156250,83.66
10:26:07.171875,85.97
10:26:07.187500,86.88
10:26:07.203125,87.27
10:26:07.218750,87.26
10:26:07.234375,86.28
10:26:07.250000,83.68
10:26:07.265625,79.15
10:26:07.281250,73.04
10:26:07.296875,66.04
10:26:07.312500,58.65
10:26:07.328125,50.95
10:26:07.343750,42.61
10:26:07.359375,33.37
10:26:07.375000,23.51
10:26:07.390625,13.99
10:26:07.406250,6.10
10:26:07.421875,0.93
10:26:07.437500,-1.09
10:26:07.453125,-0.44
10:26:07.468750,1.86
10:26:07.484375,4.66
10:26:07.500000,7.16
10:26:07.515625,8.97
10:26:07.531250,10.07
10:26:07.546875,10.49
10:26:07.562500,10.15
10:26:07.578125,8.90
10:26:07.593750,6.69
10:26:07.609375,3.68
10:26:07.625000,0.23
10:26:07.640625,-3.19
10:26:07.656250,-6.22
10:26:07.671875,-8.71
10:26:07.687500,-10.75
10:26:07.703125,-12.55
10:26:07.718750,-14.29
10:26:07.734375,-16.00
10:26:07.750000,-17.52
10:26:07.765625,-18.51
10:26:07.781250,-18.67
10:26:07.796875,-17.80
10:26:07.812500,-15.99
10:26:07.828125,-13.65
10:26:07.843750,-11.38
10:26:07.859375,-9.79
10:26:07.875000,-9.34
10:26:07.890625,-10.16
10:26:07.906250,-12.17
10:26:07.921875,-15.08
10:26:07.937500,-18.64
10:26:07.953125,-22.65
10:26:07.968750,-27.01
10:26:07.984375,-31.61
10:26:08,-36.36
10:26:08.015625,-41.17
10:26:08.031250,-45.99
10:26:08.046875,-50.81
10:26:08.062500,-55.57
10:26:08.078125,-60.08
10:26:08.093750,-63.99
10:26:08.109375,-66.75
10:26:08.125000,-67.86
10:26:08.140625,-67.01
10:26:08.156250,-64.27
10:26:08.171875,-60.14
10:26:08.187500,-55.27
10:26:08.203125,-50.17
10:26:08.218750,-45.01
10:26:08.234375,-39.47
10:26:08.250000,-33.06
10:26:08.265625,-25.39
10:26:08.281250,-16.51
10:26:08.296875,-6.94
10:26:08.312500,2.53
10:26:08.328125,11.21
10:26:08.343750,18.73
10:26:08.359375,25.07
10:26:08.375000,30.37
10:26:08.390625,34.61
10:26:08.406250,37.55
10:26:08.421875,38.87
10:26:08.437500,38.43
10:26:08.453125,36.55
10:26:08.468750,33.92
10:26:08.484375,31.43
10:26:08.500000,29.75
10:26:08.515625,29.09
10:26:08.531250,29.12
10:26:08.546875,29.22
10:26:08.562500,28.79
10:26:08.578125,27.51
10:26:08.593750,25.46
10:26:08.609375,22.95
10:26:08.625000,20.38
10:26:08.640625,17.99
10:26:08.656250,15.91
10:26:08.671875,14.15
10:26:08.687500,12.71
10:26:08.703125,11.66
10:26:08.718750,11.04
10:26:08.734375,10.81
10:26:08.750000,10.69
10:26:08.765625,10.27
10:26:08.781250,9.05
10:26:08.796875,6.70
10:26:08.812500,3.18
10:26:08.828125,-1.25
10:26:08.843750,-6.03
10:26:08.859375,-10.64
10:26:08.875000,-14.66
10:26:08.890625,-17.91
10:26:08.906250,-20.41
10:26:08.921875,-22.23
10:26:08.937500,-23.45
10:26:08.953125,-24.05
10:26:08.968750,-24.01
10:26:08.984375,-23.37
10:26:09,-22.31
10:26:09.015625,-21.11
10:26:09.031250,-20.12
10:26:09.046875,-19.62
10:26:09.062500,-19.75
10:26:09.078125,-20.46
10:26:09.093750,-21.56
10:26:09.109375,-22.68
10:26:09.125000,-23.41
10:26:09.140625,-23.37
10:26:09.156250,-22.37
10:26:09.171875,-20.63
10:26:09.187500,-18.73
10:26:09.203125,-17.53
10:26:09.218750,-17.86
10:26:09.234375,-20.21
10:26:09.250000,-24.55
10:26:09.265625,-30.31
10:26:09.281250,-36.60
10:26:09.296875,-42.52
10:26:09.312500,-47.33
10:26:09.328125,-50.58
10:26:09.343750,-52.05
10:26:09.359375,-51.80
10:26:09.375000,-50.04
10:26:09.390625,-47.23
10:26:09.406250,-43.89
10:26:09.421875,-40.59
10:26:09.437500,-37.71
10:26:09.453125,-35.41
10:26:09.468750,-33.58
10:26:09.484375,-31.88
10:26:09.500000,-29.94
10:26:09.515625,-27.46
10:26:09.531250,-24.29
10:26:09.546875,-20.43
10:26:09.562500,-16.09
10:26:09.578125,-11.54
10:26:09.593750,-7.11
10:26:09.609375,-3.13
10:26:09.625000,0.16
10:26:09.640625,2.57
10:26:09.656250,4.06
10:26:09.671875,4.61
10:26:09.687500,4.35
10:26:09.703125,3.43
10:26:09.718750,2.09
10:26:09.734375,0.63
10:26:09.750000,-0.71
10:26:09.765625,-1.71
10:26:09.781250,-2.31
10:26:09.796875,-2.51
10:26:09.812500,-2.40
10:26:09.828125,-2.05
10:26:09.843750,-1.51
10:26:09.859375,-0.87
10:26:09.875000,-0.25
10:26:09.890625,0.14
10:26:09.906250,0.17
10:26:09.921875,-0.20
10:26:09.937500,-0.82
10:26:09.953125,-1.43
10:26:09.968750,-1.81
10:26:09.984375,-1.86
10:26:10,-1.67
10:26:10.015625,-1.43
10:26:10.031250,-1.32
10:26:10.046875,-1.43
10:26:10.062500,-1.73
10:26:10.078125,-2.17
10:26:10.093750,-2.73
10:26:10.109375,-3.34
10:26:10.125000,-3.78
10:26:10.140625,-3.65
10:26:10.156250,-2.39
10:26:10.171875,0.42
10:26:10.187500,4.88
10:26:10.203125,10.59
10:26:10.218750,16.79
10:26:10.234375,22.56
10:26:10.250000,27.21
10:26:10.265625,30.42
10:26:10.281250,32.29
10:26:10.296875,33.20
10:26:10.312500,33.57
10:26:10.328125,33.79
10:26:10.343750,34.09
10:26:10.359375,34.58
10:26:10.375000,35.25
10:26:10.390625,36.01
10:26:10.406250,36.65
10:26:10.421875,36.96
10:26:10.437500,36.71
10:26:10.453125,35.79
10:26:10.468750,34.13
10:26:10.484375,31.84
10:26:10.500000,29.10
10:26:10.515625,26.13
10:26:10.531250,23.19
10:26:10.546875,20.45
10:26:10.562500,18.04
10:26:10.578125,15.95
10:26:10.593750,14.09
10:26:10.609375,12.33
10:26:10.625000,10.55
10:26:10.640625,8.70
10:26:10.656250,6.75
10:26:10.671875,4.71
10:26:10.687500,2.59
10:26:10.703125,0.44
10:26:10.718750,-1.58
10:26:10.734375,-3.23
10:26:10.750000,-4.19
10:26:10.765625,-4.28
10:26:10.781250,-3.50
10:26:10.796875,-2.12
10:26:10.812500,-0.50
10:26:10.828125,1.04
10:26:10.843750,2.38
10:26:10.859375,3.51
10:26:10.875000,4.57
10:26:10.890625,5.58
10:26:10.906250,6.50
10:26:10.921875,7.20
10:26:10.937500,7.63
10:26:10.953125,7.89
10:26:10.968750,8.15
10:26:10.984375,8.56
10:26:11,9.15
10:26:11.015625,9.76
10:26:11.031250,10.21
10:26:11.046875,10.35
10:26:11.062500,10.23
10:26:11.078125,10.02
10:26:11.093750,9.92
10:26:11.109375,9.98
10:26:11.125000,10.10
10:26:11.140625,10.06
10:26:11.156250,9.64
10:26:11.171875,8.78
10:26:11.187500,7.53
10:26:11.203125,6.10
10:26:11.218750,4.70
10:26:11.234375,3.50
10:26:11.250000,2.57
10:26:11.265625,1.94
10:26:11.281250,1.55
10:26:11.296875,1.29
10:26:11.312500,0.97
10:26:11.328125,0.38
10:26:11.343750,-0.63
10:26:11.359375,-2.16
10:26:11.375000,-4.12
10:26:11.390625,-6.29
10:26:11.406250,-8.41
10:26:11.421875,-10.25
10:26:11.437500,-11.67
10:26:11.453125,-12.65
10:26:11.468750,-13.22
10:26:11.484375,-13.44
10:26:11.500000,-13.34
10:26:11.515625,-12.96
10:26:11.531250,-12.25
10:26:11.546875,-11.23
10:26:11.562500,-9.92
10:26:11.578125,-8.31
10:26:11.593750,-6.42
10:26:11.609375,-4.25
10:26:11.625000,-1.85
10:26:11.640625,0.75
10:26:11.656250,3.45
10:26:11.671875,6.13
10:26:11.687500,8.63
10:26:11.703125,10.77
10:26:11.718750,12.41
10:26:11.734375,13.45
10:26:11.750000,13.91
10:26:11.765625,13.92
10:26:11.781250,13.61
10:26:11.796875,13.16
10:26:11.812500,12.69
10:26:11.828125,12.31
10:26:11.843750,12.12
10:26:11.859375,12.19
10:26:11.875000,12.57
10:26:11.890625,13.19
10:26:11.906250,13.78
10:26:11.921875,14.02
10:26:11.937500,13.58
10:26:11.953125,12.35
10:26:11.968750,10.51
10:26:11.984375,8.45
10:26:12,6.60
10:26:12.015625,5.24
10:26:12.031250,4.46
10:26:12.046875,4.11
10:26:12.062500,4.01
10:26:12.078125,4.01
10:26:12.093750,3.98
10:26:12.109375,3.85
10:26:12.125000,3.53
10:26:12.140625,2.92
10:26:12.156250,1.99
10:26:12.171875,0.81
10:26:12.187500,-0.49
10:26:12.203125,-1.79
10:26:12.218750,-3.08
10:26:12.234375,-4.45
10:26:12.250000,-5.98
10:26:12.265625,-7.67
10:26:12.281250,-9.32
10:26:12.296875,-10.65
10:26:12.312500,-11.36
10:26:12.328125,-11.36
10:26:12.343750,-10.69
10:26:12.359375,-9.53
10:26:12.375000,-8.08
10:26:12.390625,-6.48
10:26:12.406250,-4.84
10:26:12.421875,-3.27
10:26:12.437500,-1.94
10:26:12.453125,-1.01
10:26:12.468750,-0.58
10:26:12.484375,-0.57
10:26:12.500000,-0.75
10:26:12.515625,-0.82
10:26:12.531250,-0.54
10:26:12.546875,0.15
10:26:12.562500,1.12
10:26:12.578125,2.17
10:26:12.593750,3.12
10:26:12.609375,3.91
10:26:12.625000,4.55
10:26:12.640625,5.11
10:26:12.656250,5.55
10:26:12.671875,5.82
10:26:12.687500,5.80
10:26:12.703125,5.43
10:26:12.718750,4.77
10:26:12.734375,3.93
10:26:12.750000,3.10
10:26:12.765625,2.43
10:26:12.781250,1.99
10:26:12.796875,1.79
10:26:12.812500,1.77
10:26:12.828125,1.88
10:26:12.843750,2.09
10:26:12.859375,2.41
10:26:12.875000,2.82
10:26:12.890625,3.33
10:26:12.906250,3.93
10:26:12.921875,4.60
10:26:12.937500,5.25
10:26:12.953125,5.76
10:26:12.968750,6.01
10:26:12.984375,5.85
10:26:13,5.19
10:26:13.015625,3.99
10:26:13.031250,2.28
10:26:13.046875,0.12
10:26:13.062500,-2.40
10:26:13.078125,-5.16
10:26:13.093750,-8.02
10:26:13.109375,-10.76
10:26:13.125000,-13.13
10:26:13.140625,-14.89
10:26:13.156250,-15.88
10:26:13.171875,-16.07
10:26:13.187500,-15.63
10:26:13.203125,-14.83
10:26:13.218750,-14.02
10:26:13.234375,-13.46
10:26:13.250000,-13.24
10:26:13.265625,-13.29
10:26:13.281250,-13.43
10:26:13.296875,-13.43
10:26:13.312500,-13.12
10:26:13.328125,-12.45
10:26:13.343750,-11.48
10:26:13.359375,-10.35
10:26:13.375000,-9.28
10:26:13.390625,-8.42
10:26:13.406250,-7.95
10:26:13.421875,-8.00
10:26:13.437500,-8.62
10:26:13.453125,-9.82
10:26:13.468750,-11.55
10:26:13.484375,-13.69
10:26:13.500000,-16.16
10:26:13.515625,-18.86
10:26:13.531250,-21.69
10:26:13.546875,-24.51
10:26:13.562500,-27.05
10:26:13.578125,-28.94
10:26:13.593750,-29.85
10:26:13.609375,-29.61
10:26:13.625000,-28.29
10:26:13.640625,-26.16
10:26:13.656250,-23.62
10:26:13.671875,-20.98
10:26:13.687500,-18.45
10:26:13.703125,-16.09
10:26:13.718750,-13.89
10:26:13.734375,-11.86
10:26:13.750000,-9.99
10:26:13.765625,-8.28
10:26:13.781250,-6.70
10:26:13.796875,-5.29
10:26:13.812500,-4.15
10:26:13.828125,-3.54
10:26:13.843750,-3.77
10:26:13.859375,-5.04
10:26:13.875000,-7.26
10:26:13.890625,-9.96
10:26:13.906250,-12.34
10:26:13.921875,-13.50
10:26:13.937500,-12.70
10:26:13.953125,-9.58
10:26:13.968750,-4.25
10:26:13.984375,2.78
10:26:14,10.84
10:26:14.015625,19.35
10:26:14.031250,27.97
10:26:14.046875,36.60
10:26:14.062500,45.24
10:26:14.078125,53.78
10:26:14.093750,61.86
10:26:14.109375,68.93
10:26:14.125000,74.54
10:26:14.140625,78.52
10:26:14.156250,81.20
10:26:14.171875,83.22
10:26:14.187500,85.25
10:26:14.203125,87.65
10:26:14.218750,90.31
10:26:14.234375,92.74
10:26:14.250000,94.27
10:26:14.265625,94.43
10:26:14.281250,93.06
10:26:14.296875,90.37
10:26:14.312500,86.80
10:26:14.328125,82.85
10:26:14.343750,78.98
10:26:14.359375,75.58
10:26:14.375000,72.99
10:26:14.390625,71.44
10:26:14.406250,71.00
10:26:14.421875,71.48
10:26:14.437500,72.45
10:26:14.453125,73.24
10:26:14.468750,73.11
10:26:14.484375,71.38
10:26:14.500000,67.62
10:26:14.515625,61.70
10:26:14.531250,53.80
10:26:14.546875,44.24
10:26:14.562500,33.38
10:26:14.578125,21.53
10:26:14.593750,8.91
10:26:14.609375,-4.28
10:26:14.625000,-17.79
10:26:14.640625,-31.24
10:26:14.656250,-44.07
10:26:14.671875,-55.65
10:26:14.687500,-65.38
10:26:14.703125,-72.89
10:26:14.718750,-78.11
10:26:14.734375,-81.29
10:26:14.750000,-82.87
10:26:14.765625,-83.30
10:26:14.781250,-82.94
10:26:14.796875,-82.02
10:26:14.812500,-80.66
10:26:14.828125,-78.95
10:26:14.843750,-77.01
10:26:14.859375,-74.96
10:26:14.875000,-72.91
10:26:14.890625,-70.89
10:26:14.906250,-68.90
10:26:14.921875,-66.91
10:26:14.937500,-64.93
10:26:14.953125,-62.97
10:26:14.968750,-61.12
10:26:14.984375,-59.45
10:26:15,-58.00
10:26:15.015625,-56.78
10:26:15.031250,-55.79
10:26:15.046875,-55.02
10:26:15.062500,-54.49
10:26:15.078125,-54.34
10:26:15.093750,-54.79
10:26:15.109375,-56.15
10:26:15.125000,-58.65
10:26:15.140625,-62.34
10:26:15.156250,-66.94
10:26:15.171875,-71.86
10:26:15.187500,-76.32
10:26:15.203125,-79.55
10:26:15.218750,-81.05
10:26:15.234375,-80.70
10:26:15.250000,-78.79
10:26:15.265625,-75.87
10:26:15.281250,-72.53
10:26:15.296875,-69.32
10:26:15.312500,-66.56
10:26:15.328125,-64.38
10:26:15.343750,-62.69
10:26:15.359375,-61.27
10:26:15.375000,-59.76
10:26:15.390625,-57.81
10:26:15.406250,-55.09
10:26:15.421875,-51.42
10:26:15.437500,-46.76
10:26:15.453125,-41.22
10:26:15.468750,-35.00
10:26:15.484375,-28.43
10:26:15.500000,-21.94
10:26:15.515625,-15.99
10:26:15.531250,-11.02
10:26:15.546875,-7.23
10:26:15.562500,-4.42
10:26:15.578125,-1.99
10:26:15.593750,0.87
10:26:15.609375,4.80
10:26:15.625000,9.98
10:26:15.640625,15.98
10:26:15.656250,22.04
10:26:15.671875,27.39
10:26:15.687500,31.71
10:26:15.703125,35.18
10:26:15.718750,38.26
10:26:15.734375,41.43
10:26:15.750000,44.82
10:26:15.765625,48.16
10:26:15.781250,50.99
10:26:15.796875,52.87
10:26:15.812500,53.60
10:26:15.828125,53.29
10:26:15.843750,52.25
10:26:15.859375,50.82
10:26:15.875000,49.28
10:26:15.890625,47.73
10:26:15.906250,46.13
10:26:15.921875,44.37
10:26:15.937500,42.24
10:26:15.953125,39.62
10:26:15.968750,36.54
10:26:15.984375,33.20
10:26:16,29.93
10:26:16.015625,27.03
10:26:16.031250,24.70
10:26:16.046875,22.96
10:26:16.062500,21.74
10:26:16.078125,20.96
10:26:16.093750,20.64
10:26:16.109375,20.89
10:26:16.125000,21.72
10:26:16.140625,22.99
10:26:16.156250,24.33
10:26:16.171875,25.32
10:26:16.187500,25.61
10:26:16.203125,25.14
10:26:16.218750,24.09
10:26:16.234375,22.74
10:26:16.250000,21.31
10:26:16.265625,19.88
10:26:16.281250,18.35
10:26:16.296875,16.62
10:26:16.312500,14.66
10:26:16.328125,12.61
10:26:16.343750,10.67
10:26:16.359375,9.06
10:26:16.375000,7.93
10:26:16.390625,7.23
10:26:16.406250,6.78
10:26:16.421875,6.26
10:26:16.437500,5.35
10:26:16.453125,3.85
10:26:16.468750,1.82
10:26:16.484375,-0.49
10:26:16.500000,-2.68
10:26:16.515625,-4.42
10:26:16.531250,-5.57
10:26:16.546875,-6.19
10:26:16.562500,-6.48
10:26:16.578125,-6.60
10:26:16.593750,-6.61
10:26:16.609375,-6.46
10:26:16.625000,-6.06
10:26:16.640625,-5.41
10:26:16.656250,-4.53
10:26:16.671875,-3.44
10:26:16.687500,-2.10
10:26:16.703125,-0.44
10:26:16.718750,1.52
10:26:16.734375,3.64
10:26:16.750000,5.64
10:26:16.765625,7.22
10:26:16.781250,8.14
10:26:16.796875,8.36
10:26:16.812500,7.94
10:26:16.828125,7.04
10:26:16.843750,5.82
10:26:16.859375,4.46
10:26:16.875000,3.17
10:26:16.890625,2.24
10:26:16.906250,1.94
10:26:16.921875,2.45
10:26:16.937500,3.74
10:26:16.953125,5.54
10:26:16.968750,7.46
10:26:16.984375,9.09
10:26:17,10.09
10:26:17.015625,10.28
10:26:17.031250,9.57
10:26:17.046875,8.01
10:26:17.062500,5.77
10:26:17.078125,3.19
10:26:17.093750,0.63
10:26:17.109375,-1.55
10:26:17.125000,-3.16
10:26:17.140625,-4.11
10:26:17.156250,-4.42
10:26:17.171875,-4.17
10:26:17.187500,-3.45
10:26:17.203125,-2.41
10:26:17.218750,-1.29
10:26:17.234375,-0.41
10:26:17.250000,-0.11
10:26:17.265625,-0.59
10:26:17.281250,-1.86
10:26:17.296875,-3.74
10:26:17.312500,-5.92
10:26:17.328125,-8.15
10:26:17.343750,-10.26
10:26:17.359375,-12.19
10:26:17.375000,-13.89
10:26:17.390625,-15.34
10:26:17.406250,-16.50
10:26:17.421875,-17.30
10:26:17.437500,-17.77
10:26:17.453125,-17.99
10:26:17.468750,-18.10
10:26:17.484375,-18.17
10:26:17.500000,-18.28
10:26:17.515625,-18.35
10:26:17.531250,-18.24
10:26:17.546875,-17.73
10:26:17.562500,-16.68
10:26:17.578125,-15.06
10:26:17.593750,-12.98
10:26:17.609375,-10.58
10:26:17.625000,-8.02
10:26:17.640625,-5.38
10:26:17.656250,-2.65
10:26:17.671875,0.15
10:26:17.687500,2.99
10:26:17.703125,5.81
10:26:17.718750,8.49
10:26:17.734375,10.93
10:26:17.750000,13.07
10:26:17.765625,14.88
10:26:17.781250,16.34
10:26:17.796875,17.40
10:26:17.812500,18.06
10:26:17.828125,18.31
10:26:17.843750,18.18
10:26:17.859375,17.76
10:26:17.875000,17.13
10:26:17.890625,16.41
10:26:17.906250,15.70
10:26:17.921875,15.14
10:26:17.937500,14.84
10:26:17.953125,14.86
10:26:17.968750,15.19
10:26:17.984375,15.69
10:26:18,16.13
10:26:18.015625,16.29
10:26:18.031250,15.99
10:26:18.046875,15.22
10:26:18.062500,14.10
10:26:18.078125,12.84
10:26:18.093750,11.68
10:26:18.109375,10.75
10:26:18.125000,10.13
10:26:18.140625,9.82
10:26:18.156250,9.79
10:26:18.171875,9.92
10:26:18.187500,9.94
10:26:18.203125,9.45
10:26:18.218750,7.99
10:26:18.234375,5.22
10:26:18.250000,1.17
10:26:18.265625,-3.72
10:26:18.281250,-8.65
10:26:18.296875,-12.74
10:26:18.312500,-15.33
10:26:18.328125,-16.17
10:26:18.343750,-15.48
10:26:18.359375,-13.74
10:26:18.375000,-11.50
10:26:18.390625,-9.13
10:26:18.406250,-6.82
10:26:18.421875,-4.55
10:26:18.437500,-2.29
10:26:18.453125,-0.03
10:26:18.468750,2.16
10:26:18.484375,4.14
10:26:18.500000,5.85
10:26:18.515625,7.24
10:26:18.531250,8.36
10:26:18.546875,9.24
10:26:18.562500,9.85
10:26:18.578125,10.09
10:26:18.593750,9.91
10:26:18.609375,9.33
10:26:18.625000,8.49
10:26:18.640625,7.62
10:26:18.656250,6.91
10:26:18.671875,6.45
10:26:18.687500,6.17
10:26:18.703125,5.92
10:26:18.718750,5.54
10:26:18.734375,5.00
10:26:18.750000,4.22
10:26:18.765625,3.18
10:26:18.781250,1.88
10:26:18.796875,0.31
10:26:18.812500,-1.45
10:26:18.828125,-3.24
10:26:18.843750,-4.86
10:26:18.859375,-6.21
10:26:18.875000,-7.32
10:26:18.890625,-8.39
10:26:18.906250,-9.66
10:26:18.921875,-11.25
10:26:18.937500,-13.14
10:26:18.953125,-15.08
10:26:18.968750,-16.81
10:26:18.984375,-18.15
10:26:19,-19.18
10:26:19.015625,-20.13
10:26:19.031250,-21.25
10:26:19.046875,-22.64
10:26:19.062500,-24.10
10:26:19.078125,-25.26
10:26:19.093750,-25.69
10:26:19.109375,-25.14
10:26:19.125000,-23.69
10:26:19.140625,-21.70
10:26:19.156250,-19.62
10:26:19.171875,-17.81
10:26:19.187500,-16.27
10:26:19.203125,-14.65
10:26:19.218750,-12.42
10:26:19.234375,-9.10
10:26:19.250000,-4.53
10:26:19.265625,1.00
10:26:19.281250,6.82
10:26:19.296875,12.14
10:26:19.312500,16.26
10:26:19.328125,18.86
10:26:19.343750,19.99
10:26:19.359375,20.04
10:26:19.375000,19.52
10:26:19.390625,18.88
10:26:19.406250,18.38
10:26:19.421875,18.07
10:26:19.437500,17.83
10:26:19.453125,17.57
10:26:19.468750,17.15
10:26:19.484375,16.61
10:26:19.500000,16.05
10:26:19.515625,15.61
10:26:19.531250,15.53
10:26:19.546875,16.22
10:26:19.562500,18.21
10:26:19.578125,21.94
10:26:19.593750,27.33
10:26:19.609375,33.35
10:26:19.625000,37.96
10:26:19.640625,38.70
10:26:19.656250,33.64
10:26:19.671875,22.30
10:26:19.687500,6.06
10:26:19.703125,-12.32
10:26:19.718750,-29.65
10:26:19.734375,-43.38
10:26:19.750000,-52.24
10:26:19.765625,-56.06
10:26:19.781250,-55.33
10:26:19.796875,-50.69
10:26:19.812500,-42.76
10:26:19.828125,-32.35
10:26:19.843750,-20.70
10:26:19.859375,-9.40
10:26:19.875000,-0.10
10:26:19.890625,6.12
10:26:19.906250,9.07
10:26:19.921875,9.46
10:26:19.937500,8.56
10:26:19.953125,7.72
10:26:19.968750,7.80
10:26:19.984375,9.03
10:26:20,11.02
10:26:20.015625,13.15
10:26:20.031250,14.84
10:26:20.046875,15.82
10:26:20.062500,16.15
10:26:20.078125,16.06
10:26:20.093750,15.76
10:26:20.109375,15.26
10:26:20.125000,14.41
10:26:20.140625,13.01
10:26:20.156250,11.01
10:26:20.171875,8.57
10:26:20.187500,6.10
10:26:20.203125,4.10
10:26:20.218750,2.95
10:26:20.234375,2.80
10:26:20.250000,3.46
10:26:20.265625,4.53
10:26:20.281250,5.59
10:26:20.296875,6.33
10:26:20.312500,6.66
10:26:20.328125,6.70
10:26:20.343750,6.66
10:26:20.359375,6.68
10:26:20.375000,6.75
10:26:20.390625,6.79
10:26:20.406250,6.66
10:26:20.421875,6.25
10:26:20.437500,5.54
10:26:20.453125,4.53
10:26:20.468750,3.19
10:26:20.484375,1.51
10:26:20.500000,-0.53
10:26:20.515625,-2.82
10:26:20.531250,-5.18
10:26:20.546875,-7.35
10:26:20.562500,-9.07
10:26:20.578125,-10.15
10:26:20.593750,-10.55
10:26:20.609375,-10.37
10:26:20.625000,-9.84
10:26:20.640625,-9.20
10:26:20.656250,-8.66
10:26:20.671875,-8.29
10:26:20.687500,-7.95
10:26:20.703125,-7.44
10:26:20.718750,-6.54
10:26:20.734375,-5.18
10:26:20.750000,-3.44
10:26:20.765625,-1.58
10:26:20.781250,0.13
10:26:20.796875,1.50
10:26:20.812500,2.42
10:26:20.828125,2.90
10:26:20.843750,3.06
10:26:20.859375,3.02
10:26:20.875000,2.90
10:26:20.890625,2.83
10:26:20.906250,2.93
10:26:20.921875,3.24
10:26:20.937500,3.77
10:26:20.953125,4.47
10:26:20.968750,5.25
10:26:20.984375,5.99
10:26:21,6.52
10:26:21.015625,6.71
10:26:21.031250,6.46
10:26:21.046875,5.79
10:26:21.062500,4.86
10:26:21.078125,3.94
10:26:21.093750,3.26
10:26:21.109375,2.95
10:26:21.125000,2.95
10:26:21.140625,3.14
10:26:21.156250,3.40
10:26:21.171875,3.64
10:26:21.187500,3.86
10:26:21.203125,4.07
10:26:21.218750,4.25
10:26:21.234375,4.31
10:26:21.250000,4.12
10:26:21.265625,3.57
10:26:21.281250,2.61
10:26:21.296875,1.23
10:26:21.312500,-0.51
10:26:21.328125,-2.47
10:26:21.343750,-4.49
10:26:21.359375,-6.39
10:26:21.375000,-8.11
10:26:21.390625,-9.61
10:26:21.406250,-10.91
10:26:21.421875,-11.99
10:26:21.437500,-12.75
10:26:21.453125,-12.97
10:26:21.468750,-12.51
10:26:21.484375,-11.36
10:26:21.500000,-9.74
10:26:21.515625,-8.00
10:26:21.531250,-6.47
10:26:21.546875,-5.32
10:26:21.562500,-4.53
10:26:21.578125,-3.94
10:26:21.593750,-3.39
10:26:21.609375,-2.77
10:26:21.625000,-2.06
10:26:21.640625,-1.31
10:26:21.656250,-0.57
10:26:21.671875,0.12
10:26:21.687500,0.70
10:26:21.703125,1.12
10:26:21.718750,1.36
10:26:21.734375,1.42
10:26:21.750000,1.34
10:26:21.765625,1.19
10:26:21.781250,1.05
10:26:21.796875,1.01
10:26:21.812500,1.12
10:26:21.828125,1.49
10:26:21.843750,2.16
10:26:21.859375,3.10
10:26:21.875000,4.17
10:26:21.890625,5.16
10:26:21.906250,5.82
10:26:21.921875,5.98
10:26:21.937500,5.52
10:26:21.953125,4.43
10:26:21.968750,2.87
10:26:21.984375,1.07
10:26:22,-0.62
10:26:22.015625,-1.92
10:26:22.031250,-2.68
10:26:22.046875,-3.01
10:26:22.062500,-3.19
10:26:22.078125,-3.60
10:26:22.093750,-4.54
10:26:22.109375,-6.08
10:26:22.125000,-8.15
10:26:22.140625,-10.53
10:26:22.156250,-12.92
10:26:22.171875,-15.01
10:26:22.187500,-16.46
10:26:22.203125,-16.93
10:26:22.218750,-16.21
10:26:22.234375,-14.34
10:26:22.250000,-11.66
10:26:22.265625,-8.69
10:26:22.281250,-5.98
10:26:22.296875,-3.86
10:26:22.312500,-2.39
10:26:22.328125,-1.46
10:26:22.343750,-0.87
10:26:22.359375,-0.47
10:26:22.375000,-0.21
10:26:22.390625,-0.04
10:26:22.406250,0.05
10:26:22.421875,0.08
10:26:22.437500,0.04
10:26:22.453125,-0.12
10:26:22.468750,-0.46
10:26:22.484375,-0.97
10:26:22.500000,-1.61
10:26:22.515625,-2.30
10:26:22.531250,-3.00
10:26:22.546875,-3.69
10:26:22.562500,-4.36
10:26:22.578125,-4.94
10:26:22.593750,-5.26
10:26:22.609375,-5.05
10:26:22.625000,-4.03
10:26:22.640625,-2.02
10:26:22.656250,0.99
10:26:22.671875,4.85
10:26:22.687500,9.25
10:26:22.703125,13.78
10:26:22.718750,18.01
10:26:22.734375,21.51
10:26:22.750000,23.91
10:26:22.765625,25.01
10:26:22.781250,24.83
10:26:22.796875,23.59
10:26:22.812500,21.66
10:26:22.828125,19.45
10:26:22.843750,17.35
10:26:22.859375,15.66
10:26:22.875000,14.52
10:26:22.890625,13.86
10:26:22.906250,13.43
10:26:22.921875,12.81
10:26:22.937500,11.47
10:26:22.953125,9.02
10:26:22.968750,5.34
10:26:22.984375,0.67
10:26:23,-4.43
10:26:23.015625,-9.29
10:26:23.031250,-13.31
10:26:23.046875,-16.13
10:26:23.062500,-17.70
10:26:23.078125,-18.13
10:26:23.093750,-17.64
10:26:23.109375,-16.43
10:26:23.125000,-14.68
10:26:23.140625,-12.51
10:26:23.156250,-10.13
10:26:23.171875,-7.78
10:26:23.187500,-5.73
10:26:23.203125,-4.19
10:26:23.218750,-3.27
10:26:23.234375,-2.93
10:26:23.250000,-3.04
10:26:23.265625,-3.43
10:26:23.281250,-3.96
10:26:23.296875,-4.52
10:26:23.312500,-5.04
10:26:23.328125,-5.43
10:26:23.343750,-5.59
10:26:23.359375,-5.50
10:26:23.375000,-5.22
10:26:23.390625,-4.91
10:26:23.406250,-4.83
10:26:23.421875,-5.14
10:26:23.437500,-5.90
10:26:23.453125,-7.02
10:26:23.468750,-8.28
10:26:23.484375,-9.46
10:26:23.500000,-10.40
10:26:23.515625,-11.04
10:26:23.531250,-11.39
10:26:23.546875,-11.60
10:26:23.562500,-11.80
10:26:23.578125,-12.09
10:26:23.593750,-12.50
10:26:23.609375,-12.94
10:26:23.625000,-13.26
10:26:23.640625,-13.26
10:26:23.656250,-12.76
10:26:23.671875,-11.62
10:26:23.687500,-9.84
10:26:23.703125,-7.47
10:26:23.718750,-4.70
10:26:23.734375,-1.74
10:26:23.750000,1.21
10:26:23.765625,4.00
10:26:23.781250,6.56
10:26:23.796875,8.85
10:26:23.812500,10.80
10:26:23.828125,12.25
10:26:23.843750,13.04
10:26:23.859375,13.12
10:26:23.875000,12.57
10:26:23.890625,11.70
10:26:23.906250,10.85
10:26:23.921875,10.29
10:26:23.937500,10.06
10:26:23.953125,9.98
10:26:23.968750,9.75
10:26:23.984375,9.11
10:26:24,7.98
10:26:24.015625,6.52
10:26:24.031250,5.05
10:26:24.046875,3.95
10:26:24.062500,3.48
10:26:24.078125,3.71
10:26:24.093750,4.52
10:26:24.109375,5.67
10:26:24.125000,6.98
10:26:24.140625,8.35
10:26:24.156250,9.80
10:26:24.171875,11.38
10:26:24.187500,13.00
10:26:24.203125,14.44
10:26:24.218750,15.36
10:26:24.234375,15.55
10:26:24.250000,14.98
10:26:24.265625,13.97
10:26:24.281250,12.97
10:26:24.296875,12.42
10:26:24.312500,12.56
10:26:24.328125,13.27
10:26:24.343750,14.19
10:26:24.359375,14.85
10:26:24.375000,14.81
10:26:24.390625,13.82
10:26:24.406250,11.92
10:26:24.421875,9.44
10:26:24.437500,7.09
10:26:24.453125,5.83
10:26:24.468750,6.61
10:26:24.484375,10.01
10:26:24.500000,15.97
10:26:24.515625,23.60
10:26:24.531250,31.36
10:26:24.546875,37.63
10:26:24.562500,41.21
10:26:24.578125,41.85
10:26:24.593750,40.26
10:26:24.609375,37.73
10:26:24.625000,35.51
10:26:24.640625,34.35
10:26:24.656250,34.20
10:26:24.671875,34.35
10:26:24.687500,33.84
10:26:24.703125,31.77
10:26:24.718750,27.56
10:26:24.734375,21.04
10:26:24.750000,12.33
10:26:24.765625,1.85
10:26:24.781250,-9.80
10:26:24.796875,-21.80
10:26:24.812500,-33.37
10:26:24.828125,-43.80
10:26:24.843750,-52.70
10:26:24.859375,-60.12
10:26:24.875000,-66.48
10:26:24.890625,-72.44
10:26:24.906250,-78.59
10:26:24.921875,-85.13
10:26:24.937500,-91.73
10:26:24.953125,-97.42
10:26:24.968750,-100.86
10:26:24.984375,-100.62
10:26:25,-95.61
10:26:25.015625,-85.43
10:26:25.031250,-70.52
10:26:25.046875,-52.21
10:26:25.062500,-32.39
10:26:25.078125,-13.14
10:26:25.093750,3.67
10:26:25.109375,16.72
10:26:25.125000,25.42
10:26:25.140625,29.92
10:26:25.156250,30.98
10:26:25.171875,29.80
10:26:25.187500,27.72
10:26:25.203125,25.97
10:26:25.218750,25.39
10:26:25.234375,26.23
10:26:25.250000,28.15
10:26:25.265625,30.48
10:26:25.281250,32.51
10:26:25.296875,33.88
10:26:25.312500,34.60
10:26:25.328125,34.92
10:26:25.343750,34.96
10:26:25.359375,34.39
10:26:25.375000,32.46
10:26:25.390625,28.29
10:26:25.406250,21.35
10:26:25.421875,11.73
10:26:25.437500,0.25
10:26:25.453125,-11.88
10:26:25.468750,-23.45
10:26:25.484375,-33.56
10:26:25.500000,-41.85
10:26:25.515625,-48.46
10:26:25.531250,-53.84
10:26:25.546875,-58.68
10:26:25.562500,-63.69
10:26:25.578125,-69.42
10:26:25.593750,-76.12
10:26:25.609375,-83.59
10:26:25.625000,-91.13
10:26:25.640625,-97.70
10:26:25.656250,-102.19
10:26:25.671875,-103.84
10:26:25.687500,-102.49
10:26:25.703125,-98.57
10:26:25.718750,-92.82
10:26:25.734375,-85.68
10:26:25.750000,-77.00
10:26:25.765625,-65.98
10:26:25.781250,-51.72
10:26:25.796875,-34.07
10:26:25.812500,-14.12
10:26:25.828125,5.78
10:26:25.843750,22.82
10:26:25.859375,34.76
10:26:25.875000,40.80
10:26:25.890625,41.69
10:26:25.906250,39.16
10:26:25.921875,34.99
10:26:25.937500,30.29
10:26:25.953125,25.46
10:26:25.968750,20.52
10:26:25.984375,15.69
10:26:26,11.62
10:26:26.015625,9.10
10:26:26.031250,8.65
10:26:26.046875,10.01
10:26:26.062500,12.11
10:26:26.078125,13.53
10:26:26.093750,13.06
10:26:26.109375,10.22
10:26:26.125000,5.42
10:26:26.140625,-0.30
10:26:26.156250,-5.74
10:26:26.171875,-9.97
10:26:26.187500,-12.49
10:26:26.203125,-13.25
10:26:26.218750,-12.53
10:26:26.234375,-10.81
10:26:26.250000,-8.68
10:26:26.265625,-6.81
10:26:26.281250,-5.68
10:26:26.296875,-5.42
10:26:26.312500,-5.59
10:26:26.328125,-5.36
10:26:26.343750,-3.72
10:26:26.359375,0.07
10:26:26.375000,6.34
10:26:26.390625,14.95
10:26:26.406250,25.47
10:26:26.421875,37.26
10:26:26.437500,49.42
10:26:26.453125,60.75
10:26:26.468750,69.86
10:26:26.484375,75.50
10:26:26.500000,77.00
10:26:26.515625,74.64
10:26:26.531250,69.60
10:26:26.546875,63.56
10:26:26.562500,58.09
10:26:26.578125,54.21
10:26:26.593750,52.22
10:26:26.609375,51.65
10:26:26.625000,51.53
10:26:26.640625,50.51
10:26:26.656250,47.10
10:26:26.671875,40.12
10:26:26.687500,29.22
10:26:26.703125,15.19
10:26:26.718750,-0.10
10:26:26.734375,-14.21
10:26:26.750000,-24.98
10:26:26.765625,-31.14
10:26:26.781250,-32.57
10:26:26.796875,-29.95
10:26:26.812500,-24.27
10:26:26.828125,-16.33
10:26:26.843750,-6.66
10:26:26.859375,4.35
10:26:26.875000,16.19
10:26:26.890625,28.12
10:26:26.906250,39.28
10:26:26.921875,48.88
10:26:26.937500,56.27
10:26:26.953125,60.78
10:26:26.968750,61.55
10:26:26.984375,57.63
10:26:27,48.47
10:26:27.015625,34.60
10:26:27.031250,18.03
10:26:27.046875,1.80
10:26:27.062500,-11.10
10:26:27.078125,-18.75
10:26:27.093750,-20.67
10:26:27.109375,-17.30
10:26:27.125000,-9.17
10:26:27.140625,3.35
10:26:27.156250,19.30
10:26:27.171875,36.13
10:26:27.187500,49.34
10:26:27.203125,53.86
10:26:27.218750,46.68
10:26:27.234375,29.24
10:26:27.250000,7.90
10:26:27.265625,-8.11
10:26:27.281250,-10.48
10:26:27.296875,4.83
10:26:27.312500,36.26
10:26:27.328125,77.78
10:26:27.343750,121.50
10:26:27.359375,160.11
10:26:27.375000,188.24
10:26:27.390625,202.45
10:26:27.406250,200.81
10:26:27.421875,182.93
10:26:27.437500,150.89
10:26:27.453125,110.07
10:26:27.468750,68.79
10:26:27.484375,36.30
10:26:27.500000,19.53
10:26:27.515625,20.20
10:26:27.531250,33.99
10:26:27.546875,52.34
10:26:27.562500,66.23
10:26:27.578125,70.02
10:26:27.593750,63.38
10:26:27.609375,50.36
10:26:27.625000,36.50
10:26:27.640625,25.52
10:26:27.656250,17.65
10:26:27.671875,10.27
10:26:27.687500,0.09
10:26:27.703125,-14.49
10:26:27.718750,-32.48
10:26:27.734375,-50.94
10:26:27.750000,-66.66
10:26:27.765625,-77.76
10:26:27.781250,-84.22
10:26:27.796875,-87.55
10:26:27.812500,-89.56
10:26:27.828125,-91.33
10:26:27.843750,-92.70
10:26:27.859375,-92.63
10:26:27.875000,-90.12
10:26:27.890625,-85.05
10:26:27.906250,-78.54
10:26:27.921875,-72.58
10:26:27.937500,-69.12
10:26:27.953125,-69.23
10:26:27.968750,-72.72
10:26:27.984375,-78.36
10:26:28,-84.56
10:26:28.015625,-89.96
10:26:28.031250,-93.70
10:26:28.046875,-95.32
10:26:28.062500,-94.48
10:26:28.078125,-90.76
10:26:28.093750,-83.77
10:26:28.109375,-73.39
10:26:28.125000,-60.12
10:26:28.140625,-45.09
10:26:28.156250,-29.97
10:26:28.171875,-16.45
10:26:28.187500,-5.87
10:26:28.203125,1.05
10:26:28.218750,4.29
10:26:28.234375,4.38
10:26:28.250000,2.26
10:26:28.265625,-0.95
10:26:28.281250,-4.13
10:26:28.296875,-6.41
10:26:28.312500,-7.24
10:26:28.328125,-6.54
10:26:28.343750,-4.67
10:26:28.359375,-2.31
10:26:28.375000,-0.22
10:26:28.390625,1.09
10:26:28.406250,1.41
10:26:28.421875,0.92
10:26:28.437500,0.02
10:26:28.453125,-0.91
10:26:28.468750,-1.68
10:26:28.484375,-2.25
10:26:28.500000,-2.73
10:26:28.515625,-3.18
10:26:28.531250,-3.58
10:26:28.546875,-3.83
10:26:28.562500,-3.83
10:26:28.578125,-3.52
10:26:28.593750,-2.92
10:26:28.609375,-2.12
10:26:28.625000,-1.25
10:26:28.640625,-0.44
10:26:28.656250,0.19
10:26:28.671875,0.54
10:26:28.687500,0.63
10:26:28.703125,0.54
10:26:28.718750,0.44
10:26:28.734375,0.47
10:26:28.750000,0.69
10:26:28.765625,1.03
10:26:28.781250,1.33
10:26:28.796875,1.47
10:26:28.812500,1.37
10:26:28.828125,1.04
10:26:28.843750,0.50
10:26:28.859375,-0.22
10:26:28.875000,-1.23
10:26:28.890625,-2.62
10:26:28.906250,-4.42
10:26:28.921875,-6.51
10:26:28.937500,-8.64
10:26:28.953125,-10.50
10:26:28.968750,-11.86
10:26:28.984375,-12.68
10:26:29,-13.17
10:26:29.015625,-13.69
10:26:29.031250,-14.62
10:26:29.046875,-16.18
10:26:29.062500,-18.40
10:26:29.078125,-21.10
10:26:29.093750,-23.98
10:26:29.109375,-26.76
10:26:29.125000,-29.31
10:26:29.140625,-31.71
10:26:29.156250,-34.22
10:26:29.171875,-37.17
10:26:29.187500,-40.74
10:26:29.203125,-44.86
10:26:29.218750,-49.16
10:26:29.234375,-53.09
10:26:29.250000,-56.30
10:26:29.265625,-58.84
10:26:29.281250,-61.27
10:26:29.296875,-64.46
10:26:29.312500,-69.18
10:26:29.328125,-75.70
10:26:29.343750,-83.60
10:26:29.359375,-91.96
10:26:29.375000,-99.72
10:26:29.390625,-106.05
10:26:29.406250,-110.48
10:26:29.421875,-112.89
10:26:29.437500,-113.50
10:26:29.453125,-113.11
10:26:29.468750,-113.32
10:26:29.484375,-116.42
10:26:29.500000,-124.45
10:26:29.515625,-137.71
10:26:29.531250,-153.51
10:26:29.546875,-166.24
10:26:29.562500,-169.10
10:26:29.578125,-156.95
10:26:29.593750,-128.62
10:26:29.609375,-87.57
10:26:29.625000,-40.32
10:26:29.640625,6.29
10:26:29.656250,47.46
10:26:29.671875,81.20
10:26:29.687500,107.54
10:26:29.703125,126.97
10:26:29.718750,139.67
10:26:29.734375,145.72
10:26:29.750000,145.97
10:26:29.765625,142.58
10:26:29.781250,138.57
10:26:29.796875,136.51
10:26:29.812500,137.35
10:26:29.828125,140.05
10:26:29.843750,142.34
10:26:29.859375,141.95
10:26:29.875000,137.67
10:26:29.890625,129.67
10:26:29.906250,119.15
10:26:29.921875,107.65
10:26:29.937500,96.51
10:26:29.953125,86.64
10:26:29.968750,78.48
10:26:29.984375,72.09
10:26:30,67.23
10:26:30.015625,63.48
10:26:30.031250,60.37
10:26:30.046875,57.52
10:26:30.062500,54.77
10:26:30.078125,52.16
10:26:30.093750,49.91
10:26:30.109375,48.24
10:26:30.125000,47.33
10:26:30.140625,47.27
10:26:30.156250,47.99
10:26:30.171875,49.12
10:26:30.187500,49.95
10:26:30.203125,49.58
10:26:30.218750,47.27
10:26:30.234375,42.78
10:26:30.250000,36.59
10:26:30.265625,29.74
10:26:30.281250,23.27
10:26:30.296875,17.78
10:26:30.312500,13.32
10:26:30.328125,9.61
10:26:30.343750,6.51
10:26:30.359375,4.24
10:26:30.375000,3.41
10:26:30.390625,4.53
10:26:30.406250,7.79
10:26:30.421875,12.88
10:26:30.437500,19.24
10:26:30.453125,26.32
10:26:30.468750,33.69
10:26:30.484375,40.85
10:26:30.500000,47.07
10:26:30.515625,51.44
10:26:30.531250,53.12
10:26:30.546875,51.86
10:26:30.562500,48.37
10:26:30.578125,44.23
10:26:30.593750,41.37
10:26:30.609375,41.33
10:26:30.625000,44.58
10:26:30.640625,50.39
10:26:30.656250,57.02
10:26:30.671875,62.39
10:26:30.687500,64.70
10:26:30.703125,62.84
10:26:30.718750,56.47
10:26:30.734375,45.91
10:26:30.750000,31.99
10:26:30.765625,15.86
10:26:30.781250,-0.99
10:26:30.796875,-16.85
10:26:30.812500,-30.12
10:26:30.828125,-39.67
10:26:30.843750,-45.21
10:26:30.859375,-47.36
10:26:30.875000,-47.28
10:26:30.890625,-46.17
10:26:30.906250,-44.82
10:26:30.921875,-43.43
10:26:30.937500,-41.79
10:26:30.953125,-39.62
10:26:30.968750,-36.78
10:26:30.984375,-33.32
10:26:31,-29.32
10:26:31.015625,-24.90
10:26:31.031250,-20.16
10:26:31.046875,-15.30
10:26:31.062500,-10.68
10:26:31.078125,-6.72
10:26:31.093750,-3.66
10:26:31.109375,-1.48
10:26:31.125000,0.21
10:26:31.140625,1.82
10:26:31.156250,3.65
10:26:31.171875,5.65
10:26:31.187500,7.51
10:26:31.203125,8.79
10:26:31.218750,9.18
10:26:31.234375,8.56
10:26:31.250000,7.00
10:26:31.265625,4.67
10:26:31.281250,1.76
10:26:31.296875,-1.48
10:26:31.312500,-4.79
10:26:31.328125,-7.85
10:26:31.343750,-10.41
10:26:31.359375,-12.31
10:26:31.375000,-13.54
10:26:31.390625,-14.20
10:26:31.406250,-14.42
10:26:31.421875,-14.33
10:26:31.437500,-14.05
10:26:31.453125,-13.73
10:26:31.468750,-13.50
10:26:31.484375,-13.47
10:26:31.500000,-13.63
10:26:31.515625,-13.81
10:26:31.531250,-13.80
10:26:31.546875,-13.43
10:26:31.562500,-12.77
10:26:31.578125,-12.13
10:26:31.593750,-11.89
10:26:31.609375,-12.39
10:26:31.625000,-13.67
10:26:31.640625,-15.50
10:26:31.656250,-17.40
10:26:31.671875,-18.89
10:26:31.687500,-19.66
10:26:31.703125,-19.71
10:26:31.718750,-19.26
10:26:31.734375,-18.66
10:26:31.750000,-18.11
10:26:31.765625,-17.54
10:26:31.781250,-16.60
10:26:31.796875,-14.94
10:26:31.812500,-12.41
10:26:31.828125,-9.23
10:26:31.843750,-5.98
10:26:31.859375,-3.30
10:26:31.875000,-1.62
10:26:31.890625,-1.00
10:26:31.906250,-1.17
10:26:31.921875,-1.69
10:26:31.937500,-2.26
10:26:31.953125,-2.74
10:26:31.968750,-3.17
10:26:31.984375,-3.64
10:26:32,-4.17
10:26:32.015625,-4.68
10:26:32.031250,-5.12
10:26:32.046875,-5.49
10:26:32.062500,-5.84
10:26:32.078125,-6.20
10:26:32.093750,-6.47
10:26:32.109375,-6.51
10:26:32.125000,-6.16
10:26:32.140625,-5.45
10:26:32.156250,-4.61
10:26:32.171875,-4.05
10:26:32.187500,-4.17
10:26:32.203125,-5.10
10:26:32.218750,-6.68
10:26:32.234375,-8.49
10:26:32.250000,-10.00
10:26:32.265625,-10.85
10:26:32.281250,-10.93
10:26:32.296875,-10.36
10:26:32.312500,-9.39
10:26:32.328125,-8.25
10:26:32.343750,-7.03
10:26:32.359375,-5.78
10:26:32.375000,-4.54
10:26:32.390625,-3.40
10:26:32.406250,-2.54
10:26:32.421875,-2.11
10:26:32.437500,-2.19
10:26:32.453125,-2.68
10:26:32.468750,-3.32
10:26:32.484375,-3.79
10:26:32.500000,-3.84
10:26:32.515625,-3.43
10:26:32.531250,-2.71
10:26:32.546875,-1.99
10:26:32.562500,-1.55
10:26:32.578125,-1.52
10:26:32.593750,-1.82
10:26:32.609375,-2.26
10:26:32.625000,-2.60
10:26:32.640625,-2.73
10:26:32.656250,-2.66
10:26:32.671875,-2.49
10:26:32.687500,-2.34
10:26:32.703125,-2.26
10:26:32.718750,-2.32
10:26:32.734375,-2.55
10:26:32.750000,-3.04
10:26:32.765625,-3.82
10:26:32.781250,-4.86
10:26:32.796875,-5.96
10:26:32.812500,-6.88
10:26:32.828125,-7.35
10:26:32.843750,-7.28
10:26:32.859375,-6.77
10:26:32.875000,-6.06
10:26:32.890625,-5.40
10:26:32.906250,-4.90
10:26:32.921875,-4.51
10:26:32.937500,-4.07
10:26:32.953125,-3.43
10:26:32.968750,-2.50
10:26:32.984375,-1.39
10:26:33,-0.27
10:26:33.015625,0.68
10:26:33.031250,1.39
10:26:33.046875,1.88
10:26:33.062500,2.21
10:26:33.078125,2.47
10:26:33.093750,2.67
10:26:33.109375,2.76
10:26:33.125000,2.74
10:26:33.140625,2.67
10:26:33.156250,2.60
10:26:33.171875,2.62
10:26:33.187500,2.69
10:26:33.203125,2.75
10:26:33.218750,2.69
10:26:33.234375,2.49
10:26:33.250000,2.18
10:26:33.265625,1.84
10:26:33.281250,1.55
10:26:33.296875,1.27
10:26:33.312500,0.90
10:26:33.328125,0.28
10:26:33.343750,-0.69
10:26:33.359375,-2.02
10:26:33.375000,-3.66
10:26:33.390625,-5.42
10:26:33.406250,-7.11
10:26:33.421875,-8.50
10:26:33.437500,-9.36
10:26:33.453125,-9.51
10:26:33.468750,-8.89
10:26:33.484375,-7.65
10:26:33.500000,-6.05
10:26:33.515625,-4.45
10:26:33.531250,-3.10
10:26:33.546875,-2.07
10:26:33.562500,-1.26
10:26:33.578125,-0.48
10:26:33.593750,0.39
10:26:33.609375,1.34
10:26:33.625000,2.17
10:26:33.640625,2.73
10:26:33.656250,2.93
10:26:33.671875,2.92
10:26:33.687500,2.95
10:26:33.703125,3.27
10:26:33.718750,3.99
10:26:33.734375,4.96
10:26:33.750000,5.86
10:26:33.765625,6.35
10:26:33.781250,6.30
10:26:33.796875,5.76
10:26:33.812500,5.05
10:26:33.828125,4.48
10:26:33.843750,4.25
10:26:33.859375,4.33
10:26:33.875000,4.52
10:26:33.890625,4.57
10:26:33.906250,4.31
10:26:33.921875,3.75
10:26:33.937500,3.04
10:26:33.953125,2.35
10:26:33.968750,1.78
10:26:33.984375,1.32
10:26:34,0.88
10:26:34.015625,0.41
10:26:34.031250,-0.07
10:26:34.046875,-0.52
10:26:34.062500,-0.95
10:26:34.078125,-1.42
10:26:34.093750,-2.07
10:26:34.109375,-3.03
10:26:34.125000,-4.28
10:26:34.140625,-5.67
10:26:34.156250,-6.95
10:26:34.171875,-7.86
10:26:34.187500,-8.24
10:26:34.203125,-7.99
10:26:34.218750,-7.12
10:26:34.234375,-5.68
10:26:34.250000,-3.78
10:26:34.265625,-1.64
10:26:34.281250,0.51
10:26:34.296875,2.45
10:26:34.312500,4.08
10:26:34.328125,5.43
10:26:34.343750,6.63
10:26:34.359375,7.79
10:26:34.375000,8.87
10:26:34.390625,9.72
10:26:34.406250,10.15
10:26:34.421875,10.13
10:26:34.437500,9.77
10:26:34.453125,9.36
10:26:34.468750,9.15
10:26:34.484375,9.28
10:26:34.500000,9.69
10:26:34.515625,10.22
10:26:34.531250,10.65
10:26:34.546875,10.82
10:26:34.562500,10.64
10:26:34.578125,10.10
10:26:34.593750,9.25
10:26:34.609375,8.19
10:26:34.625000,7.05
10:26:34.640625,5.96
10:26:34.656250,4.95
10:26:34.671875,3.94
10:26:34.687500,2.73
10:26:34.703125,1.10
10:26:34.718750,-1.12
10:26:34.734375,-3.89
10:26:34.750000,-6.99
10:26:34.765625,-10.07
10:26:34.781250,-12.71
10:26:34.796875,-14.60
10:26:34.812500,-15.56
10:26:34.828125,-15.65
10:26:34.843750,-15.10
10:26:34.859375,-14.33
10:26:34.875000,-13.76
10:26:34.890625,-13.76
10:26:34.906250,-14.48
10:26:34.921875,-15.80
10:26:34.937500,-17.38
10:26:34.953125,-18.76
10:26:34.968750,-19.56
10:26:34.984375,-19.60
10:26:35,-18.91
10:26:35.015625,-17.67
10:26:35.031250,-16.06
10:26:35.046875,-14.23
10:26:35.062500,-12.26
10:26:35.078125,-10.25
10:26:35.093750,-8.28
10:26:35.109375,-6.47
10:26:35.125000,-4.91
10:26:35.140625,-3.61
10:26:35.156250,-2.53
10:26:35.171875,-1.59
10:26:35.187500,-0.75
10:26:35.203125,-0.02
10:26:35.218750,0.58
10:26:35.234375,1.02
10:26:35.250000,1.25
10:26:35.265625,1.31
10:26:35.281250,1.17
10:26:35.296875,0.82
10:26:35.312500,0.26
10:26:35.328125,-0.48
10:26:35.343750,-1.31
10:26:35.359375,-2.10
10:26:35.375000,-2.68
10:26:35.390625,-2.92
10:26:35.406250,-2.73
10:26:35.421875,-2.10
10:26:35.437500,-1.12
10:26:35.453125,0.03
10:26:35.468750,1.07
10:26:35.484375,1.78
10:26:35.500000,1.99
10:26:35.515625,1.74
10:26:35.531250,1.18
10:26:35.546875,0.55
10:26:35.562500,0.07
10:26:35.578125,-0.16
10:26:35.593750,-0.16
10:26:35.609375,-0.03
10:26:35.625000,0.11
10:26:35.640625,0.17
10:26:35.656250,0.09
10:26:35.671875,-0.22
10:26:35.687500,-0.88
10:26:35.703125,-2.01
10:26:35.718750,-3.66
10:26:35.734375,-5.70
10:26:35.750000,-7.80
10:26:35.765625,-9.51
10:26:35.781250,-10.44
10:26:35.796875,-10.42
10:26:35.812500,-9.58
10:26:35.828125,-8.28
10:26:35.843750,-6.98
10:26:35.859375,-6.02
10:26:35.875000,-5.51
10:26:35.890625,-5.35
10:26:35.906250,-5.29
10:26:35.921875,-5.12
10:26:35.937500,-4.78
10:26:35.953125,-4.31
10:26:35.968750,-3.85
10:26:35.984375,-3.53
10:26:36,-3.41
10:26:36.015625,-3.48
10:26:36.031250,-3.71
10:26:36.046875,-4.08
10:26:36.062500,-4.57
10:26:36.078125,-5.18
10:26:36.093750,-5.90
10:26:36.109375,-6.73
10:26:36.125000,-7.64
10:26:36.140625,-8.57
10:26:36.156250,-9.48
10:26:36.171875,-10.27
10:26:36.187500,-10.92
10:26:36.203125,-11.47
10:26:36.218750,-12.09
10:26:36.234375,-12.99
10:26:36.250000,-14.35
10:26:36.265625,-16.21
10:26:36.281250,-18.36
10:26:36.296875,-20.39
10:26:36.312500,-21.89
10:26:36.328125,-22.61
10:26:36.343750,-22.64
10:26:36.359375,-22.34
10:26:36.375000,-22.24
10:26:36.390625,-22.78
10:26:36.406250,-24.08
10:26:36.421875,-25.88
10:26:36.437500,-27.70
10:26:36.453125,-28.93
10:26:36.468750,-29.11
10:26:36.484375,-27.96
10:26:36.500000,-25.53
10:26:36.515625,-22.14
10:26:36.531250,-18.52
10:26:36.546875,-15.72
10:26:36.562500,-15.01
10:26:36.578125,-17.26
10:26:36.593750,-22.31
10:26:36.609375,-28.55
10:26:36.625000,-33.15
10:26:36.640625,-32.97
10:26:36.656250,-25.76
10:26:36.671875,-11.15
10:26:36.687500,9.20
10:26:36.703125,32.30
10:26:36.718750,54.90
10:26:36.734375,74.48
10:26:36.750000,89.61
10:26:36.765625,99.81
10:26:36.781250,105.10
10:26:36.796875,105.66
10:26:36.812500,101.75
10:26:36.828125,93.85
10:26:36.843750,82.68
10:26:36.859375,69.31
10:26:36.875000,54.99
10:26:36.890625,41.11
10:26:36.906250,29.08
10:26:36.921875,20.14
10:26:36.937500,15.02
10:26:36.953125,13.82
10:26:36.968750,15.94
10:26:36.984375,20.32
10:26:37,25.79
10:26:37.015625,31.35
10:26:37.031250,36.31
10:26:37.046875,40.23
10:26:37.062500,42.93
10:26:37.078125,44.41
10:26:37.093750,44.87
10:26:37.109375,44.65
10:26:37.125000,44.12
10:26:37.140625,43.50
10:26:37.156250,42.82
10:26:37.171875,41.98
10:26:37.187500,40.86
10:26:37.203125,39.39
10:26:37.218750,37.51
10:26:37.234375,35.04
10:26:37.250000,31.70
10:26:37.265625,27.13
10:26:37.281250,21.25
10:26:37.296875,14.29
10:26:37.312500,6.93
10:26:37.328125,-0.08
10:26:37.343750,-6.15
10:26:37.359375,-11.11
10:26:37.375000,-15.13
10:26:37.390625,-18.44
10:26:37.406250,-21.16
10:26:37.421875,-23.13
10:26:37.437500,-24.04
10:26:37.453125,-23.65
10:26:37.468750,-22.08
10:26:37.484375,-19.79
10:26:37.500000,-17.59
10:26:37.515625,-16.26
10:26:37.531250,-16.33
10:26:37.546875,-17.85
10:26:37.562500,-20.41
10:26:37.578125,-23.28
10:26:37.593750,-25.73
10:26:37.609375,-27.32
10:26:37.625000,-27.96
10:26:37.640625,-27.83
10:26:37.656250,-27.13
10:26:37.671875,-25.93
10:26:37.687500,-24.09
10:26:37.703125,-21.59
10:26:37.718750,-18.67
10:26:37.734375,-16.02
10:26:37.750000,-14.60
10:26:37.765625,-15.25
10:26:37.781250,-18.31
10:26:37.796875,-23.48
10:26:37.812500,-29.90
10:26:37.828125,-36.51
10:26:37.843750,-42.34
10:26:37.859375,-46.82
10:26:37.875000,-49.74
10:26:37.890625,-51.28
10:26:37.906250,-51.92
10:26:37.921875,-52.31
10:26:37.937500,-53.20
10:26:37.953125,-55.23
10:26:37.968750,-58.79
10:26:37.984375,-63.81
10:26:38,-69.86
10:26:38.015625,-76.12
10:26:38.031250,-81.67
10:26:38.046875,-85.60
10:26:38.062500,-87.15
10:26:38.078125,-85.92
10:26:38.093750,-82.09
10:26:38.109375,-76.69
10:26:38.125000,-71.61
10:26:38.140625,-69.33
10:26:38.156250,-72.04
10:26:38.171875,-80.86
10:26:38.187500,-95.13
10:26:38.203125,-112.55
10:26:38.218750,-129.91
10:26:38.234375,-144.06
10:26:38.250000,-152.58
10:26:38.265625,-154.06
10:26:38.281250,-147.80
10:26:38.296875,-133.59
10:26:38.312500,-111.77
10:26:38.328125,-83.48
10:26:38.343750,-50.91
10:26:38.359375,-17.15
10:26:38.375000,14.57
10:26:38.390625,41.80
10:26:38.406250,63.51
10:26:38.421875,80.19
10:26:38.437500,93.20
10:26:38.453125,103.88
10:26:38.468750,112.87
10:26:38.484375,120.03
10:26:38.500000,124.77
10:26:38.515625,126.57
10:26:38.531250,125.41
10:26:38.546875,121.74
10:26:38.562500,116.28
10:26:38.578125,109.62
10:26:38.593750,102.01
10:26:38.609375,93.46
10:26:38.625000,84.07
10:26:38.640625,74.44
10:26:38.656250,65.63
10:26:38.671875,58.93
10:26:38.687500,55.12
10:26:38.703125,54.08
10:26:38.718750,54.52
10:26:38.734375,54.48
10:26:38.750000,52.09
10:26:38.765625,46.34
10:26:38.781250,37.58
10:26:38.796875,27.41
10:26:38.812500,18.17
10:26:38.828125,12.16
10:26:38.843750,10.84
10:26:38.859375,14.15
10:26:38.875000,20.02
10:26:38.890625,24.57
10:26:38.906250,23.30
10:26:38.921875,12.84
10:26:38.937500,-7.46
10:26:38.953125,-34.97
10:26:38.968750,-64.74
10:26:38.984375,-91.26
10:26:39,-110.18
10:26:39.015625,-119.13
10:26:39.031250,-117.54
10:26:39.046875,-105.92
10:26:39.062500,-85.53
10:26:39.078125,-58.54
10:26:39.093750,-28.32
10:26:39.109375,0.75
10:26:39.125000,24.28
10:26:39.140625,39.41
10:26:39.156250,45.76
10:26:39.171875,45.39
10:26:39.187500,41.46
10:26:39.203125,36.79
10:26:39.218750,32.77
10:26:39.234375,29.47
10:26:39.250000,26.33
10:26:39.265625,22.87
10:26:39.281250,19.00
10:26:39.296875,14.85
10:26:39.312500,10.62
10:26:39.328125,6.40
10:26:39.343750,2.27
10:26:39.359375,-1.49
10:26:39.375000,-4.43
10:26:39.390625,-6.03
10:26:39.406250,-6.06
10:26:39.421875,-4.65
10:26:39.437500,-2.33
10:26:39.453125,0.22
10:26:39.468750,2.44
10:26:39.484375,4.07
10:26:39.500000,5.26
10:26:39.515625,6.42
10:26:39.531250,7.95
10:26:39.546875,10.05
10:26:39.562500,12.49
10:26:39.578125,14.66
10:26:39.593750,15.70
10:26:39.609375,14.91
10:26:39.625000,12.04
10:26:39.640625,7.54
10:26:39.656250,2.48
10:26:39.671875,-1.85
10:26:39.687500,-4.52
10:26:39.703125,-5.18
10:26:39.718750,-4.18
10:26:39.734375,-2.30
10:26:39.750000,-0.23
10:26:39.765625,1.66
10:26:39.781250,3.39
10:26:39.796875,5.15
10:26:39.812500,7.04
10:26:39.828125,8.90
10:26:39.843750,10.41
10:26:39.859375,11.25
10:26:39.875000,11.31
10:26:39.890625,10.75
10:26:39.906250,9.90
10:26:39.921875,9.13
10:26:39.937500,8.62
10:26:39.953125,8.33
10:26:39.968750,8.01
10:26:39.984375,7.38
10:26:40,6.22
10:26:40.015625,4.49
10:26:40.031250,2.32
10:26:40.046875,-0.06
10:26:40.062500,-2.39
10:26:40.078125,-4.42
10:26:40.093750,-5.96
10:26:40.109375,-6.85
10:26:40.125000,-7.02
10:26:40.140625,-6.40
10:26:40.156250,-5.07
10:26:40.171875,-3.18
10:26:40.187500,-0.94
10:26:40.203125,1.43
10:26:40.218750,3.77
10:26:40.234375,6.01
10:26:40.250000,8.15
10:26:40.265625,10.21
10:26:40.281250,12.17
10:26:40.296875,14.02
10:26:40.312500,15.78
10:26:40.328125,17.45
10:26:40.343750,19.08
10:26:40.359375,20.66
10:26:40.375000,22.16
10:26:40.390625,23.53
10:26:40.406250,24.72
10:26:40.421875,25.75
10:26:40.437500,26.72
10:26:40.453125,27.75
10:26:40.468750,28.93
10:26:40.484375,30.24
10:26:40.500000,31.45
10:26:40.515625,32.27
10:26:40.531250,32.37
10:26:40.546875,31.54
10:26:40.562500,29.81
10:26:40.578125,27.33
10:26:40.593750,24.41
10:26:40.609375,21.33
10:26:40.625000,18.27
10:26:40.640625,15.33
10:26:40.656250,12.58
10:26:40.671875,10.03
10:26:40.687500,7.73
10:26:40.703125,5.70
10:26:40.718750,3.93
10:26:40.734375,2.34
10:26:40.750000,0.84
10:26:40.765625,-0.63
10:26:40.781250,-2.10
10:26:40.796875,-3.55
10:26:40.812500,-4.94
10:26:40.828125,-6.25
10:26:40.843750,-7.43
10:26:40.859375,-8.40
10:26:40.875000,-9.12
10:26:40.890625,-9.52
10:26:40.906250,-9.57
10:26:40.921875,-9.26
10:26:40.937500,-8.57
10:26:40.953125,-7.49
10:26:40.968750,-5.99
10:26:40.984375,-4.09
10:26:41,-1.88
10:26:41.015625,0.50
10:26:41.031250,2.89
10:26:41.046875,5.16
10:26:41.062500,7.29
10:26:41.078125,9.27
10:26:41.093750,11.12
10:26:41.109375,12.81
10:26:41.125000,14.33
10:26:41.140625,15.69
10:26:41.156250,16.96
10:26:41.171875,18.22
10:26:41.187500,19.50
10:26:41.203125,20.73
10:26:41.218750,21.78
10:26:41.234375,22.53
10:26:41.250000,22.96
10:26:41.265625,23.17
10:26:41.281250,23.32
10:26:41.296875,23.61
10:26:41.312500,24.09
10:26:41.328125,24.67
10:26:41.343750,25.13
10:26:41.359375,25.25
10:26:41.375000,24.81
10:26:41.390625,23.75
10:26:41.406250,22.13
10:26:41.421875,20.12
10:26:41.437500,17.90
10:26:41.453125,15.63
10:26:41.468750,13.42
10:26:41.484375,11.25
10:26:41.500000,9.07
10:26:41.515625,6.78
10:26:41.531250,4.27
10:26:41.546875,1.44
10:26:41.562500,-1.78
10:26:41.578125,-5.35
10:26:41.593750,-9.15
10:26:41.609375,-12.96
10:26:41.625000,-16.44
10:26:41.640625,-19.24
10:26:41.656250,-21.09
10:26:41.671875,-21.84
10:26:41.687500,-21.57
10:26:41.703125,-20.57
10:26:41.718750,-19.24
10:26:41.734375,-18.07
10:26:41.750000,-17.40
10:26:41.765625,-17.31
10:26:41.781250,-17.60
10:26:41.796875,-17.76
10:26:41.812500,-17.21
10:26:41.828125,-15.50
10:26:41.843750,-12.55
10:26:41.859375,-8.71
10:26:41.875000,-4.66
10:26:41.890625,-1.17
