15:44:39,-0.00
15:44:39.015625,-0.00
15:44:39.031250,-0.00
15:44:39.046875,-0.00
15:44:39.062500,-0.00
15:44:39.078125,-0.00
15:44:39.093750,-0.00
15:44:39.109375,-0.00
15:44:39.125000,-0.00
15:44:39.140625,-0.00
15:44:39.156250,0.00
15:44:39.171875,0.01
15:44:39.187500,0.01
15:44:39.203125,-0.00
15:44:39.218750,-0.03
15:44:39.234375,-0.05
15:44:39.250000,-0.05
15:44:39.265625,0.00
15:44:39.281250,0.13
15:44:39.296875,0.36
15:44:39.312500,0.66
15:44:39.328125,1.01
15:44:39.343750,1.37
15:44:39.359375,1.72
15:44:39.375000,2.06
15:44:39.390625,2.40
15:44:39.406250,2.79
15:44:39.421875,3.24
15:44:39.437500,3.80
15:44:39.453125,4.42
15:44:39.468750,5.06
15:44:39.484375,5.66
15:44:39.500000,6.20
15:44:39.515625,6.68
15:44:39.531250,7.15
15:44:39.546875,7.68
15:44:39.562500,8.31
15:44:39.578125,9.14
15:44:39.593750,10.09
15:44:39.609375,11.04
15:44:39.625000,11.88
15:44:39.640625,12.56
15:44:39.656250,13.14
15:44:39.671875,13.76
15:44:39.687500,14.65
15:44:39.703125,15.96
15:44:39.718750,17.91
15:44:39.734375,20.32
15:44:39.750000,22.90
15:44:39.765625,25.38
15:44:39.781250,27.58
15:44:39.796875,29.57
15:44:39.812500,31.68
15:44:39.828125,34.32
15:44:39.843750,37.81
15:44:39.859375,42.54
15:44:39.875000,48.15
15:44:39.890625,54.10
15:44:39.906250,59.83
15:44:39.921875,64.97
15:44:39.937500,69.58
15:44:39.953125,74.14
15:44:39.968750,79.34
15:44:39.984375,85.71
15:44:40,93.76
15:44:40.015625,103.00
15:44:40.031250,112.62
15:44:40.046875,121.73
15:44:40.062500,129.77
15:44:40.078125,136.75
15:44:40.093750,143.30
15:44:40.109375,150.75
15:44:40.125000,157.77
15:44:40.140625,166.64
15:44:40.156250,177.95
15:44:40.171875,191.79
15:44:40.187500,206.97
15:44:40.203125,220.57
15:44:40.218750,228.25
15:44:40.234375,225.36
15:44:40.250000,208.53
15:44:40.265625,176.87
15:44:40.281250,132.76
15:44:40.296875,80.05
15:44:40.312500,23.07
15:44:40.328125,-34.94
15:44:40.343750,-92.44
15:44:40.359375,-149.16
15:44:40.375000,-205.23
15:44:40.390625,-260.37
15:44:40.406250,-313.74
15:44:40.421875,-363.87
15:44:40.437500,-409.83
15:44:40.453125,-450.91
15:44:40.468750,-486.50
15:44:40.484375,-515.74
15:44:40.500000,-537.23
15:44:40.515625,-549.22
15:44:40.531250,-549.96
15:44:40.546875,-538.37
15:44:40.562500,-514.21
15:44:40.578125,-478.67
15:44:40.593750,-433.88
15:44:40.609375,-382.45
15:44:40.625000,-327.02
15:44:40.640625,-269.84
15:44:40.656250,-212.63
15:44:40.671875,-156.66
15:44:40.687500,-102.95
15:44:40.703125,-52.37
15:44:40.718750,-5.90
15:44:40.734375,35.58
15:44:40.750000,71.43
15:44:40.765625,101.35
15:44:40.781250,125.50
15:44:40.796875,144.38
15:44:40.812500,158.69
15:44:40.828125,169.15
15:44:40.843750,176.37
15:44:40.859375,180.75
15:44:40.875000,182.57
15:44:40.890625,182.07
15:44:40.906250,179.51
15:44:40.921875,175.23
15:44:40.937500,169.65
15:44:40.953125,163.18
15:44:40.968750,156.15
15:44:40.984375,148.81
15:44:41,141.30
15:44:41.015625,133.69
15:44:41.031250,126.02
15:44:41.046875,118.33
15:44:41.062500,110.69
15:44:41.078125,103.16
15:44:41.093750,95.80
15:44:41.109375,88.68
15:44:41.125000,81.83
15:44:41.140625,75.25
15:44:41.156250,68.95
15:44:41.171875,62.95
15:44:41.187500,57.25
15:44:41.203125,51.86
15:44:41.218750,46.78
15:44:41.234375,42.03
15:44:41.250000,37.59
15:44:41.265625,33.45
15:44:41.281250,29.61
15:44:41.296875,26.07
15:44:41.312500,22.81
15:44:41.328125,19.83
15:44:41.343750,17.11
15:44:41.359375,14.67
15:44:41.375000,12.48
15:44:41.390625,10.54
15:44:41.406250,8.83
15:44:41.421875,7.35
15:44:41.437500,6.07
15:44:41.453125,4.97
15:44:41.468750,4.05
15:44:41.484375,3.27
15:44:41.500000,2.62
15:44:41.515625,2.09
15:44:41.531250,1.65
15:44:41.546875,1.30
15:44:41.562500,1.01
15:44:41.578125,0.79
15:44:41.593750,0.61
15:44:41.609375,0.47
15:44:41.625000,0.37
15:44:41.640625,0.29
15:44:41.656250,0.23
15:44:41.671875,0.19
15:44:41.687500,0.17
15:44:41.703125,0.16
15:44:41.718750,0.16
15:44:41.734375,0.17
15:44:41.750000,0.19
15:44:41.765625,0.21
15:44:41.781250,0.24
15:44:41.796875,0.28
15:44:41.812500,0.32
15:44:41.828125,0.36
15:44:41.843750,0.41
15:44:41.859375,0.45
15:44:41.875000,0.50
15:44:41.890625,0.55
15:44:41.906250,0.59
15:44:41.921875,0.64
15:44:41.937500,0.70
15:44:41.953125,0.76
15:44:41.968750,0.82
15:44:41.984375,0.89
15:44:42,0.96
15:44:42.015625,1.04
15:44:42.031250,1.14
15:44:42.046875,1.24
15:44:42.062500,1.36
15:44:42.078125,1.49
15:44:42.093750,1.64
15:44:42.109375,1.81
15:44:42.125000,1.99
15:44:42.140625,2.20
15:44:42.156250,2.43
15:44:42.171875,2.68
15:44:42.187500,2.96
15:44:42.203125,3.26
15:44:42.218750,3.60
15:44:42.234375,3.97
15:44:42.250000,4.38
15:44:42.265625,4.81
15:44:42.281250,5.29
15:44:42.296875,5.80
15:44:42.312500,6.35
15:44:42.328125,6.93
15:44:42.343750,7.56
15:44:42.359375,8.23
15:44:42.375000,8.95
15:44:42.390625,9.71
15:44:42.406250,10.51
15:44:42.421875,11.36
15:44:42.437500,12.26
15:44:42.453125,13.19
15:44:42.468750,14.18
15:44:42.484375,15.24
15:44:42.500000,16.35
15:44:42.515625,17.53
15:44:42.531250,18.77
15:44:42.546875,20.04
15:44:42.562500,21.30
15:44:42.578125,22.50
15:44:42.593750,23.55
15:44:42.609375,24.34
15:44:42.625000,24.74
15:44:42.640625,24.63
15:44:42.656250,23.90
15:44:42.671875,22.47
15:44:42.687500,20.28
15:44:42.703125,17.36
15:44:42.718750,13.77
15:44:42.734375,9.62
15:44:42.750000,5.10
15:44:42.765625,0.43
15:44:42.781250,-4.16
15:44:42.796875,-8.46
15:44:42.812500,-12.23
15:44:42.828125,-15.31
15:44:42.843750,-17.57
15:44:42.859375,-18.96
15:44:42.875000,-19.51
15:44:42.890625,-19.30
15:44:42.906250,-18.49
15:44:42.921875,-17.26
15:44:42.937500,-15.78
15:44:42.953125,-14.18
15:44:42.968750,-12.55
15:44:42.984375,-10.92
15:44:43,-9.32
15:44:43.015625,-7.75
15:44:43.031250,-6.23
15:44:43.046875,-4.80
15:44:43.062500,-3.53
15:44:43.078125,-2.41
15:44:43.093750,-1.38
15:44:43.109375,-0.35
15:44:43.125000,0.77
15:44:43.140625,2.06
15:44:43.156250,3.58
15:44:43.171875,5.31
15:44:43.187500,7.08
15:44:43.203125,8.74
15:44:43.218750,10.23
15:44:43.234375,11.63
15:44:43.250000,13.07
15:44:43.265625,14.77
15:44:43.281250,16.90
15:44:43.296875,19.49
15:44:43.312500,22.53
15:44:43.328125,25.52
15:44:43.343750,28.12
15:44:43.359375,30.18
15:44:43.375000,31.79
15:44:43.390625,33.30
15:44:43.406250,35.16
15:44:43.421875,37.71
15:44:43.437500,41.07
15:44:43.453125,45.02
15:44:43.468750,48.66
15:44:43.484375,51.26
15:44:43.500000,52.47
15:44:43.515625,52.48
15:44:43.531250,51.92
15:44:43.546875,51.62
15:44:43.562500,52.20
15:44:43.578125,53.82
15:44:43.593750,56.06
15:44:43.609375,57.47
15:44:43.625000,56.77
15:44:43.640625,53.25
15:44:43.656250,46.91
15:44:43.671875,38.23
15:44:43.687500,27.77
15:44:43.703125,15.45
15:44:43.718750,-0.13
15:44:43.734375,-16.69
15:44:43.750000,-34.56
15:44:43.765625,-54.61
15:44:43.781250,-77.89
15:44:43.796875,-105.27
15:44:43.812500,-136.93
15:44:43.828125,-171.60
15:44:43.843750,-205.97
15:44:43.859375,-234.89
15:44:43.875000,-252.49
15:44:43.890625,-254.91
15:44:43.906250,-241.25
15:44:43.921875,-214.31
15:44:43.937500,-179.71
15:44:43.953125,-143.81
15:44:43.968750,-111.47
15:44:43.984375,-84.96
15:44:44,-64.12
15:44:44.015625,-47.62
15:44:44.031250,-34.87
15:44:44.046875,-25.76
15:44:44.062500,-20.41
15:44:44.078125,-18.34
15:44:44.093750,-18.14
15:44:44.109375,-17.69
15:44:44.125000,-15.09
15:44:44.140625,-9.49
15:44:44.156250,-1.40
15:44:44.171875,7.23
15:44:44.187500,14.32
15:44:44.203125,18.39
15:44:44.218750,19.15
15:44:44.234375,17.44
15:44:44.250000,14.67
15:44:44.265625,12.20
15:44:44.281250,10.72
15:44:44.296875,10.17
15:44:44.312500,9.65
15:44:44.328125,8.04
15:44:44.343750,4.47
15:44:44.359375,-1.51
15:44:44.375000,-9.76
15:44:44.390625,-19.49
15:44:44.406250,-29.37
15:44:44.421875,-37.63
15:44:44.437500,-42.33
15:44:44.453125,-41.86
15:44:44.468750,-35.33
15:44:44.484375,-22.92
15:44:44.500000,-5.94
15:44:44.515625,13.59
15:44:44.531250,33.38
15:44:44.546875,51.51
15:44:44.562500,66.67
15:44:44.578125,78.25
15:44:44.593750,86.13
15:44:44.609375,90.43
15:44:44.625000,91.46
15:44:44.640625,89.65
15:44:44.656250,85.56
15:44:44.671875,79.90
15:44:44.687500,73.43
15:44:44.703125,66.84
15:44:44.718750,60.69
15:44:44.734375,55.31
15:44:44.750000,50.86
15:44:44.765625,47.31
15:44:44.781250,44.50
15:44:44.796875,42.19
15:44:44.812500,40.02
15:44:44.828125,37.61
15:44:44.843750,34.60
15:44:44.859375,30.67
15:44:44.875000,25.69
15:44:44.890625,19.64
15:44:44.906250,12.69
15:44:44.921875,5.10
15:44:44.937500,-2.83
15:44:44.953125,-10.87
15:44:44.968750,-18.90
15:44:44.984375,-26.91
15:44:45,-34.99
15:44:45.015625,-43.18
15:44:45.031250,-51.38
15:44:45.046875,-59.10
15:44:45.062500,-65.42
15:44:45.078125,-68.96
15:44:45.093750,-68.12
15:44:45.109375,-61.67
15:44:45.125000,-49.12
15:44:45.140625,-31.21
15:44:45.156250,-9.79
15:44:45.171875,12.59
15:44:45.187500,33.36
15:44:45.203125,50.57
15:44:45.218750,63.22
15:44:45.234375,71.26
15:44:45.250000,75.19
15:44:45.265625,75.76
15:44:45.281250,73.66
15:44:45.296875,69.56
15:44:45.312500,64.17
15:44:45.328125,58.30
15:44:45.343750,52.78
15:44:45.359375,48.29
15:44:45.375000,45.17
15:44:45.390625,43.36
15:44:45.406250,42.51
15:44:45.421875,42.19
15:44:45.437500,42.07
15:44:45.453125,41.99
15:44:45.468750,41.85
15:44:45.484375,41.49
15:44:45.500000,40.54
15:44:45.515625,38.48
15:44:45.531250,34.88
15:44:45.546875,29.61
15:44:45.562500,22.95
15:44:45.578125,15.53
15:44:45.593750,8.05
15:44:45.609375,0.99
15:44:45.625000,-5.60
15:44:45.640625,-12.10
15:44:45.656250,-19.28
15:44:45.671875,-27.89
15:44:45.687500,-38.40
15:44:45.703125,-50.57
15:44:45.718750,-63.31
15:44:45.734375,-74.69
15:44:45.750000,-82.41
15:44:45.765625,-84.35
15:44:45.781250,-79.29
15:44:45.796875,-67.38
15:44:45.812500,-50.17
15:44:45.828125,-30.16
15:44:45.843750,-10.08
15:44:45.859375,7.79
15:44:45.875000,22.11
15:44:45.890625,32.48
15:44:45.906250,39.28
15:44:45.921875,43.26
15:44:45.937500,45.16
15:44:45.953125,45.47
15:44:45.968750,44.38
15:44:45.984375,41.92
15:44:46,38.19
15:44:46.015625,33.53
15:44:46.031250,28.54
15:44:46.046875,23.87
15:44:46.062500,19.95
15:44:46.078125,16.87
15:44:46.093750,14.37
15:44:46.109375,12.04
15:44:46.125000,9.53
15:44:46.140625,6.71
15:44:46.156250,3.62
15:44:46.171875,0.24
15:44:46.187500,-3.54
15:44:46.203125,-7.97
15:44:46.218750,-13.18
15:44:46.234375,-19.05
15:44:46.250000,-25.12
15:44:46.265625,-30.76
15:44:46.281250,-35.49
15:44:46.296875,-39.17
15:44:46.312500,-42.15
15:44:46.328125,-45.19
15:44:46.343750,-49.19
15:44:46.359375,-54.83
15:44:46.375000,-62.26
15:44:46.390625,-70.85
15:44:46.406250,-79.12
15:44:46.421875,-85.00
15:44:46.437500,-86.31
15:44:46.453125,-81.45
15:44:46.468750,-69.97
15:44:46.484375,-52.76
15:44:46.500000,-31.85
15:44:46.515625,-9.84
15:44:46.531250,10.79
15:44:46.546875,28.22
15:44:46.562500,41.48
15:44:46.578125,50.34
15:44:46.593750,55.09
15:44:46.609375,56.28
15:44:46.625000,54.65
15:44:46.640625,51.01
15:44:46.656250,46.26
15:44:46.671875,41.26
15:44:46.687500,36.65
15:44:46.703125,32.84
15:44:46.718750,29.95
15:44:46.734375,27.93
15:44:46.750000,26.69
15:44:46.765625,26.18
15:44:46.781250,26.37
15:44:46.796875,27.26
15:44:46.812500,28.69
15:44:46.828125,30.29
15:44:46.843750,31.47
15:44:46.859375,31.50
15:44:46.875000,29.69
15:44:46.890625,25.66
15:44:46.906250,19.45
15:44:46.921875,11.62
15:44:46.937500,3.06
15:44:46.953125,-5.25
15:44:46.968750,-12.58
15:44:46.984375,-18.66
15:44:47,-23.71
15:44:47.015625,-28.40
15:44:47.031250,-33.56
15:44:47.046875,-39.88
15:44:47.062500,-47.62
15:44:47.078125,-56.29
15:44:47.093750,-64.59
15:44:47.109375,-70.62
15:44:47.125000,-72.34
15:44:47.140625,-68.21
15:44:47.156250,-57.80
15:44:47.171875,-42.04
15:44:47.187500,-22.98
15:44:47.203125,-3.21
15:44:47.218750,14.88
15:44:47.234375,29.66
15:44:47.250000,40.42
15:44:47.265625,47.27
15:44:47.281250,50.77
15:44:47.296875,51.63
15:44:47.312500,50.47
15:44:47.328125,47.93
15:44:47.343750,44.59
15:44:47.359375,41.07
15:44:47.375000,37.91
15:44:47.390625,35.48
15:44:47.406250,33.83
15:44:47.421875,32.75
15:44:47.437500,31.82
15:44:47.453125,30.68
15:44:47.468750,29.17
15:44:47.484375,27.47
15:44:47.500000,25.87
15:44:47.515625,24.63
15:44:47.531250,23.69
15:44:47.546875,22.55
15:44:47.562500,20.51
15:44:47.578125,16.94
15:44:47.593750,11.59
15:44:47.609375,4.81
15:44:47.625000,-2.57
15:44:47.640625,-9.60
15:44:47.656250,-15.61
15:44:47.671875,-20.43
15:44:47.687500,-24.51
15:44:47.703125,-28.68
15:44:47.718750,-33.82
15:44:47.734375,-40.51
15:44:47.750000,-48.79
15:44:47.765625,-58.00
15:44:47.781250,-66.85
15:44:47.796875,-73.58
15:44:47.812500,-76.43
15:44:47.828125,-74.00
15:44:47.843750,-65.78
15:44:47.859375,-52.35
15:44:47.875000,-35.33
15:44:47.890625,-16.99
15:44:47.906250,0.37
15:44:47.921875,14.98
15:44:47.937500,25.89
15:44:47.953125,33.01
15:44:47.968750,36.75
15:44:47.984375,37.75
15:44:48,36.58
15:44:48.015625,33.78
15:44:48.031250,29.89
15:44:48.046875,25.49
15:44:48.062500,21.22
15:44:48.078125,17.58
15:44:48.093750,14.78
15:44:48.109375,12.78
15:44:48.125000,11.36
15:44:48.140625,10.24
15:44:48.156250,9.30
15:44:48.171875,8.55
15:44:48.187500,8.06
15:44:48.203125,7.77
15:44:48.218750,7.47
15:44:48.234375,6.73
15:44:48.250000,5.06
15:44:48.265625,2.16
15:44:48.281250,-2.00
15:44:48.296875,-7.06
15:44:48.312500,-12.47
15:44:48.328125,-17.65
15:44:48.343750,-22.26
15:44:48.359375,-26.40
15:44:48.375000,-30.54
15:44:48.390625,-35.46
15:44:48.406250,-41.84
15:44:48.421875,-49.99
15:44:48.437500,-59.49
15:44:48.453125,-69.13
15:44:48.468750,-76.98
15:44:48.484375,-80.92
15:44:48.500000,-79.18
15:44:48.515625,-70.92
15:44:48.531250,-56.58
15:44:48.546875,-37.87
15:44:48.562500,-17.35
15:44:48.578125,2.18
15:44:48.593750,18.40
15:44:48.609375,29.93
15:44:48.625000,36.54
15:44:48.640625,38.93
15:44:48.656250,38.25
15:44:48.671875,35.62
15:44:48.687500,31.90
15:44:48.703125,27.60
15:44:48.718750,23.13
15:44:48.734375,18.97
15:44:48.750000,15.72
15:44:48.765625,13.95
15:44:48.781250,13.87
15:44:48.796875,15.20
15:44:48.812500,17.11
15:44:48.828125,18.60
15:44:48.843750,18.77
15:44:48.859375,17.15
15:44:48.875000,13.85
15:44:48.890625,9.35
15:44:48.906250,4.40
15:44:48.921875,-0.31
15:44:48.937500,-4.32
15:44:48.953125,-7.55
15:44:48.968750,-10.30
15:44:48.984375,-13.11
15:44:49,-16.57
15:44:49.015625,-21.10
15:44:49.031250,-26.75
15:44:49.046875,-33.25
15:44:49.062500,-40.07
15:44:49.078125,-46.60
15:44:49.093750,-52.16
15:44:49.109375,-56.00
15:44:49.125000,-57.24
15:44:49.140625,-54.86
15:44:49.156250,-48.07
15:44:49.171875,-36.86
15:44:49.187500,-22.34
15:44:49.203125,-6.73
15:44:49.218750,7.32
15:44:49.234375,17.73
15:44:49.250000,23.77
15:44:49.265625,26.28
15:44:49.281250,27.02
15:44:49.296875,27.71
15:44:49.312500,29.20
15:44:49.328125,31.16
15:44:49.343750,32.64
15:44:49.359375,32.80
15:44:49.375000,31.53
15:44:49.390625,29.52
15:44:49.406250,27.81
15:44:49.421875,27.22
15:44:49.437500,28.13
15:44:49.453125,30.42
15:44:49.468750,33.67
15:44:49.484375,37.33
15:44:49.500000,40.66
15:44:49.515625,42.82
15:44:49.531250,43.16
15:44:49.546875,41.60
15:44:49.562500,38.73
15:44:49.578125,35.46
15:44:49.593750,32.26
15:44:49.609375,28.43
15:44:49.625000,22.00
15:44:49.640625,10.58
15:44:49.656250,-7.38
15:44:49.671875,-31.46
15:44:49.687500,-59.10
15:44:49.703125,-86.33
15:44:49.718750,-108.86
15:44:49.734375,-123.14
15:44:49.750000,-126.94
15:44:49.765625,-119.45
15:44:49.781250,-101.42
15:44:49.796875,-75.19
15:44:49.812500,-44.54
15:44:49.828125,-14.04
15:44:49.843750,12.06
15:44:49.859375,31.00
15:44:49.875000,42.14
15:44:49.890625,46.61
15:44:49.906250,46.40
15:44:49.921875,43.48
15:44:49.937500,39.30
15:44:49.953125,34.94
15:44:49.968750,31.26
15:44:49.984375,29.03
15:44:50,28.50
15:44:50.015625,29.17
15:44:50.031250,29.79
15:44:50.046875,28.92
15:44:50.062500,25.69
15:44:50.078125,20.37
15:44:50.093750,14.22
15:44:50.109375,9.02
15:44:50.125000,6.14
15:44:50.140625,5.94
15:44:50.156250,7.71
15:44:50.171875,9.96
15:44:50.187500,11.19
15:44:50.203125,10.32
15:44:50.218750,7.14
15:44:50.234375,2.12
15:44:50.250000,-3.87
15:44:50.265625,-10.01
15:44:50.281250,-15.89
15:44:50.296875,-21.64
15:44:50.312500,-27.78
15:44:50.328125,-34.96
15:44:50.343750,-43.54
15:44:50.359375,-53.32
15:44:50.375000,-63.31
15:44:50.390625,-71.81
15:44:50.406250,-76.81
15:44:50.421875,-76.52
15:44:50.437500,-69.96
15:44:50.453125,-57.39
15:44:50.468750,-40.25
15:44:50.484375,-20.80
15:44:50.500000,-1.41
15:44:50.515625,15.98
15:44:50.531250,30.24
15:44:50.546875,41.00
15:44:50.562500,48.35
15:44:50.578125,52.58
15:44:50.593750,53.94
15:44:50.609375,52.74
15:44:50.625000,49.41
15:44:50.640625,44.63
15:44:50.656250,39.25
15:44:50.671875,34.17
15:44:50.687500,30.07
15:44:50.703125,27.27
15:44:50.718750,25.66
15:44:50.734375,24.79
15:44:50.750000,24.10
15:44:50.765625,23.08
15:44:50.781250,21.42
15:44:50.796875,19.07
15:44:50.812500,16.15
15:44:50.828125,12.85
15:44:50.843750,9.32
15:44:50.859375,5.57
15:44:50.875000,1.44
15:44:50.890625,-3.35
15:44:50.906250,-9.22
15:44:50.921875,-16.59
15:44:50.937500,-25.77
15:44:50.953125,-36.76
15:44:50.968750,-49.15
15:44:50.984375,-61.88
15:44:51,-73.36
15:44:51.015625,-81.63
15:44:51.031250,-84.86
15:44:51.046875,-81.84
15:44:51.062500,-72.41
15:44:51.078125,-57.57
15:44:51.093750,-39.26
15:44:51.109375,-19.86
15:44:51.125000,-1.60
15:44:51.140625,13.94
15:44:51.156250,25.99
15:44:51.171875,34.47
15:44:51.187500,39.73
15:44:51.203125,42.20
15:44:51.218750,42.30
15:44:51.234375,40.41
15:44:51.250000,37.06
15:44:51.265625,32.99
15:44:51.281250,29.13
15:44:51.296875,26.33
15:44:51.312500,25.11
15:44:51.328125,25.45
15:44:51.343750,26.76
15:44:51.359375,28.07
15:44:51.375000,28.40
15:44:51.390625,27.07
15:44:51.406250,23.85
15:44:51.421875,19.02
15:44:51.437500,13.18
15:44:51.453125,7.09
15:44:51.468750,1.43
15:44:51.484375,-3.29
15:44:51.500000,-6.89
15:44:51.515625,-9.61
15:44:51.531250,-12.11
15:44:51.546875,-15.37
15:44:51.562500,-20.47
15:44:51.578125,-28.09
15:44:51.593750,-38.09
15:44:51.609375,-49.22
15:44:51.625000,-59.21
15:44:51.640625,-65.34
15:44:51.656250,-65.23
15:44:51.671875,-57.71
15:44:51.687500,-43.24
15:44:51.703125,-23.77
15:44:51.718750,-2.17
15:44:51.734375,18.68
15:44:51.750000,36.59
15:44:51.765625,50.34
15:44:51.781250,59.60
15:44:51.796875,64.60
15:44:51.812500,65.82
15:44:51.828125,63.85
15:44:51.843750,59.37
15:44:51.859375,53.25
15:44:51.875000,46.49
15:44:51.890625,40.07
15:44:51.906250,34.84
15:44:51.921875,31.22
15:44:51.937500,29.18
15:44:51.953125,28.23
15:44:51.968750,27.56
15:44:51.984375,26.30
15:44:52,23.81
15:44:52.015625,19.84
15:44:52.031250,14.64
15:44:52.046875,8.74
15:44:52.062500,2.79
15:44:52.078125,-2.73
15:44:52.093750,-7.63
15:44:52.109375,-11.94
15:44:52.125000,-15.91
15:44:52.140625,-19.85
15:44:52.156250,-24.14
15:44:52.171875,-29.20
15:44:52.187500,-35.41
15:44:52.203125,-42.86
15:44:52.218750,-51.15
15:44:52.234375,-59.14
15:44:52.250000,-65.13
15:44:52.265625,-67.21
15:44:52.281250,-63.91
15:44:52.296875,-54.77
15:44:52.312500,-40.56
15:44:52.328125,-23.10
15:44:52.343750,-4.75
15:44:52.359375,12.28
15:44:52.375000,26.45
15:44:52.390625,37.08
15:44:52.406250,44.17
15:44:52.421875,48.13
15:44:52.437500,49.44
15:44:52.453125,48.49
15:44:52.468750,45.60
15:44:52.484375,41.15
15:44:52.500000,35.65
15:44:52.515625,29.81
15:44:52.531250,24.38
15:44:52.546875,20.03
15:44:52.562500,17.13
15:44:52.578125,15.64
15:44:52.593750,15.12
15:44:52.609375,14.89
15:44:52.625000,14.16
15:44:52.640625,12.36
15:44:52.656250,9.25
15:44:52.671875,4.96
15:44:52.687500,-0.13
15:44:52.703125,-5.60
15:44:52.718750,-11.18
15:44:52.734375,-16.87
15:44:52.750000,-22.91
15:44:52.765625,-29.60
15:44:52.781250,-37.17
15:44:52.796875,-45.54
15:44:52.812500,-54.24
15:44:52.828125,-62.28
15:44:52.843750,-68.37
15:44:52.859375,-71.04
15:44:52.875000,-69.02
15:44:52.890625,-61.61
15:44:52.906250,-48.97
15:44:52.921875,-32.15
15:44:52.937500,-12.95
15:44:52.953125,6.56
15:44:52.968750,24.46
15:44:52.984375,39.38
15:44:53,50.62
15:44:53.015625,58.10
15:44:53.031250,62.15
15:44:53.046875,63.19
15:44:53.062500,61.64
15:44:53.078125,57.88
15:44:53.093750,52.38
15:44:53.109375,45.81
15:44:53.125000,39.06
15:44:53.140625,33.16
15:44:53.156250,28.92
15:44:53.171875,26.59
15:44:53.187500,25.76
15:44:53.203125,25.45
15:44:53.218750,24.50
15:44:53.234375,22.10
15:44:53.250000,18.12
15:44:53.265625,13.13
15:44:53.281250,7.99
15:44:53.296875,3.40
15:44:53.312500,-0.42
15:44:53.328125,-3.88
15:44:53.343750,-7.61
15:44:53.359375,-12.25
15:44:53.375000,-18.17
15:44:53.390625,-25.48
15:44:53.406250,-34.18
15:44:53.421875,-44.18
15:44:53.437500,-55.11
15:44:53.453125,-65.95
15:44:53.468750,-74.89
15:44:53.484375,-79.48
15:44:53.500000,-77.34
15:44:53.515625,-67.14
15:44:53.531250,-49.25
15:44:53.546875,-25.88
15:44:53.562500,-0.48
15:44:53.578125,23.29
15:44:53.593750,42.62
15:44:53.609375,56.07
15:44:53.625000,63.49
15:44:53.640625,65.58
15:44:53.656250,63.33
15:44:53.671875,57.77
15:44:53.687500,49.89
15:44:53.703125,40.91
15:44:53.718750,32.20
15:44:53.734375,25.14
15:44:53.750000,20.78
15:44:53.765625,19.42
15:44:53.781250,20.53
15:44:53.796875,23.01
15:44:53.812500,25.62
15:44:53.828125,27.48
15:44:53.843750,28.33
15:44:53.859375,28.47
15:44:53.875000,28.43
15:44:53.890625,28.65
15:44:53.906250,29.19
15:44:53.921875,29.63
15:44:53.937500,29.36
15:44:53.953125,27.79
15:44:53.968750,24.58
15:44:53.984375,19.79
15:44:54,13.83
15:44:54.015625,7.41
15:44:54.031250,1.34
15:44:54.046875,-3.42
15:44:54.062500,-5.96
15:44:54.078125,-5.43
15:44:54.093750,-1.25
15:44:54.109375,6.73
15:44:54.125000,18.13
15:44:54.140625,31.97
15:44:54.156250,46.78
15:44:54.171875,60.87
15:44:54.187500,72.56
15:44:54.203125,80.57
15:44:54.218750,84.12
15:44:54.234375,83.02
15:44:54.250000,77.64
15:44:54.265625,68.76
15:44:54.281250,57.41
15:44:54.296875,44.76
15:44:54.312500,31.99
15:44:54.328125,20.16
15:44:54.343750,10.21
15:44:54.359375,2.75
15:44:54.375000,-1.93
15:44:54.390625,-4.02
15:44:54.406250,-4.08
15:44:54.421875,-2.95
15:44:54.437500,-1.51
15:44:54.453125,-0.48
15:44:54.468750,-0.29
15:44:54.484375,-1.12
15:44:54.500000,-2.95
15:44:54.515625,-5.74
15:44:54.531250,-9.42
15:44:54.546875,-13.97
15:44:54.562500,-19.29
15:44:54.578125,-25.19
15:44:54.593750,-31.31
15:44:54.609375,-37.16
15:44:54.625000,-42.02
15:44:54.640625,-44.98
15:44:54.656250,-44.99
15:44:54.671875,-41.05
15:44:54.687500,-32.54
15:44:54.703125,-19.46
15:44:54.718750,-2.65
15:44:54.734375,16.41
15:44:54.750000,35.93
15:44:54.765625,54.11
15:44:54.781250,69.53
15:44:54.796875,81.26
15:44:54.812500,88.89
15:44:54.828125,92.47
15:44:54.843750,92.52
15:44:54.859375,89.97
15:44:54.875000,86.16
15:44:54.890625,82.53
15:44:54.906250,80.41
15:44:54.921875,80.61
15:44:54.937500,83.10
15:44:54.953125,86.95
15:44:54.968750,90.51
15:44:54.984375,91.93
15:44:55,89.74
15:44:55.015625,83.36
15:44:55.031250,73.31
15:44:55.046875,60.96
15:44:55.062500,48.05
15:44:55.078125,35.94
15:44:55.093750,25.20
15:44:55.109375,15.39
15:44:55.125000,5.46
15:44:55.140625,-5.84
15:44:55.156250,-19.41
15:44:55.171875,-35.53
15:44:55.187500,-53.75
15:44:55.203125,-73.00
15:44:55.218750,-91.78
15:44:55.234375,-108.36
15:44:55.250000,-121.00
15:44:55.265625,-128.39
15:44:55.281250,-129.99
15:44:55.296875,-126.30
15:44:55.312500,-118.87
15:44:55.328125,-109.92
15:44:55.343750,-101.71
15:44:55.359375,-96.02
15:44:55.375000,-93.80
15:44:55.390625,-95.21
15:44:55.406250,-99.86
15:44:55.421875,-107.02
15:44:55.437500,-115.85
15:44:55.453125,-125.29
15:44:55.468750,-134.21
15:44:55.484375,-141.49
15:44:55.500000,-146.29
15:44:55.515625,-148.19
15:44:55.531250,-147.24
15:44:55.546875,-143.83
15:44:55.562500,-138.49
15:44:55.578125,-131.68
15:44:55.593750,-123.80
15:44:55.609375,-115.23
15:44:55.625000,-106.32
15:44:55.640625,-97.48
15:44:55.656250,-89.14
15:44:55.671875,-81.77
15:44:55.687500,-75.89
15:44:55.703125,-72.06
15:44:55.718750,-70.71
15:44:55.734375,-71.90
15:44:55.750000,-75.07
15:44:55.765625,-78.96
15:44:55.781250,-81.84
15:44:55.796875,-82.07
15:44:55.812500,-78.50
15:44:55.828125,-70.84
15:44:55.843750,-59.59
15:44:55.859375,-45.74
15:44:55.875000,-30.44
15:44:55.890625,-14.72
15:44:55.906250,0.56
15:44:55.921875,14.53
15:44:55.937500,26.27
15:44:55.953125,34.77
15:44:55.968750,39.25
15:44:55.984375,39.47
15:44:56,36.14
15:44:56.015625,30.81
15:44:56.031250,25.45
15:44:56.046875,21.75
15:44:56.062500,20.51
15:44:56.078125,21.45
15:44:56.093750,23.49
15:44:56.109375,25.31
15:44:56.125000,25.99
15:44:56.140625,25.34
15:44:56.156250,23.78
15:44:56.171875,21.96
15:44:56.187500,20.29
15:44:56.203125,18.67
15:44:56.218750,16.67
15:44:56.234375,13.85
15:44:56.250000,10.05
15:44:56.265625,5.52
15:44:56.281250,0.69
15:44:56.296875,-4.07
15:44:56.312500,-8.53
15:44:56.328125,-12.51
15:44:56.343750,-15.67
15:44:56.359375,-17.39
15:44:56.375000,-16.82
15:44:56.390625,-13.21
15:44:56.406250,-6.23
15:44:56.421875,3.72
15:44:56.437500,15.57
15:44:56.453125,28.02
15:44:56.468750,40.05
15:44:56.484375,51.25
15:44:56.500000,61.73
15:44:56.515625,71.70
15:44:56.531250,80.94
15:44:56.546875,88.60
15:44:56.562500,93.43
15:44:56.578125,94.30
15:44:56.593750,91.00
15:44:56.609375,84.52
15:44:56.625000,76.90
15:44:56.640625,70.43
15:44:56.656250,66.86
15:44:56.671875,66.78
15:44:56.687500,69.69
15:44:56.703125,74.59
15:44:56.718750,80.57
15:44:56.734375,87.13
15:44:56.750000,93.83
15:44:56.765625,99.77
15:44:56.781250,103.16
15:44:56.796875,101.49
15:44:56.812500,92.32
15:44:56.828125,74.24
15:44:56.843750,47.64
15:44:56.859375,14.77
15:44:56.875000,-20.84
15:44:56.890625,-55.33
15:44:56.906250,-85.34
15:44:56.921875,-108.36
15:44:56.937500,-122.73
15:44:56.953125,-127.35
15:44:56.968750,-121.69
15:44:56.984375,-106.06
15:44:57,-82.05
15:44:57.015625,-52.82
15:44:57.031250,-22.78
15:44:57.046875,3.32
15:44:57.062500,21.73
15:44:57.078125,30.67
15:44:57.093750,30.77
15:44:57.109375,24.45
15:44:57.125000,14.92
15:44:57.140625,4.95
15:44:57.156250,-3.63
15:44:57.171875,-9.94
15:44:57.187500,-13.61
15:44:57.203125,-14.37
15:44:57.218750,-12.06
15:44:57.234375,-6.92
15:44:57.250000,0.14
15:44:57.265625,7.59
15:44:57.281250,13.65
15:44:57.296875,16.98
15:44:57.312500,17.05
15:44:57.328125,14.22
15:44:57.343750,9.32
15:44:57.359375,3.14
15:44:57.375000,-3.89
15:44:57.390625,-11.79
15:44:57.406250,-20.63
15:44:57.421875,-30.22
15:44:57.437500,-39.81
15:44:57.453125,-48.02
15:44:57.468750,-53.12
15:44:57.484375,-53.41
15:44:57.500000,-47.82
15:44:57.515625,-36.23
15:44:57.531250,-19.69
15:44:57.546875,-0.26
15:44:57.562500,19.53
15:44:57.578125,37.28
15:44:57.593750,51.23
15:44:57.609375,60.47
15:44:57.625000,64.96
15:44:57.640625,65.13
15:44:57.656250,61.73
15:44:57.671875,55.45
15:44:57.687500,46.98
15:44:57.703125,36.96
15:44:57.718750,26.07
15:44:57.734375,15.08
15:44:57.750000,4.82
15:44:57.765625,-3.93
15:44:57.781250,-10.47
15:44:57.796875,-14.31
15:44:57.812500,-15.22
15:44:57.828125,-13.27
15:44:57.843750,-8.85
15:44:57.859375,-2.69
15:44:57.875000,4.06
15:44:57.890625,9.96
15:44:57.906250,13.47
15:44:57.921875,13.27
15:44:57.937500,8.66
15:44:57.953125,-0.23
15:44:57.968750,-12.45
15:44:57.984375,-26.46
15:44:58,-40.44
15:44:58.015625,-52.62
15:44:58.031250,-61.44
15:44:58.046875,-65.65
15:44:58.062500,-64.39
15:44:58.078125,-57.36
15:44:58.093750,-44.92
15:44:58.109375,-28.20
15:44:58.125000,-8.90
15:44:58.140625,10.93
15:44:58.156250,29.19
15:44:58.171875,44.13
15:44:58.187500,54.43
15:44:58.203125,59.35
15:44:58.218750,58.80
15:44:58.234375,53.30
15:44:58.250000,43.99
15:44:58.265625,32.54
15:44:58.281250,21.00
15:44:58.296875,11.46
15:44:58.312500,5.71
15:44:58.328125,4.83
15:44:58.343750,8.93
15:44:58.359375,17.00
15:44:58.375000,27.11
15:44:58.390625,36.81
15:44:58.406250,43.68
15:44:58.421875,45.92
15:44:58.437500,42.66
15:44:58.453125,34.16
15:44:58.468750,21.49
15:44:58.484375,6.29
15:44:58.500000,-9.65
15:44:58.515625,-24.70
15:44:58.531250,-37.51
15:44:58.546875,-46.94
15:44:58.562500,-52.01
15:44:58.578125,-51.82
15:44:58.593750,-45.78
15:44:58.609375,-33.96
15:44:58.625000,-17.47
15:44:58.640625,1.43
15:44:58.656250,19.57
15:44:58.671875,33.73
15:44:58.687500,41.56
15:44:58.703125,42.38
15:44:58.718750,37.50
15:44:58.734375,29.82
15:44:58.750000,22.84
15:44:58.765625,19.55
15:44:58.781250,21.61
15:44:58.796875,28.95
15:44:58.812500,40.00
15:44:58.828125,52.26
15:44:58.843750,63.03
15:44:58.859375,70.03
15:44:58.875000,71.87
15:44:58.890625,68.15
15:44:58.906250,59.36
15:44:58.921875,46.64
15:44:58.937500,31.47
15:44:58.953125,15.43
15:44:58.968750,0.12
15:44:58.984375,-12.97
15:44:59,-22.61
15:44:59.015625,-27.96
15:44:59.031250,-28.94
15:44:59.046875,-26.40
15:44:59.062500,-22.07
15:44:59.078125,-18.24
15:44:59.093750,-17.14
15:44:59.109375,-20.25
15:44:59.125000,-27.96
15:44:59.140625,-39.46
15:44:59.156250,-53.03
15:44:59.171875,-66.45
15:44:59.187500,-77.45
15:44:59.203125,-84.09
15:44:59.218750,-85.01
15:44:59.234375,-79.69
15:44:59.250000,-68.55
15:44:59.265625,-52.92
15:44:59.281250,-34.77
15:44:59.296875,-16.25
15:44:59.312500,0.76
15:44:59.328125,14.99
15:44:59.343750,25.87
15:44:59.359375,33.49
15:44:59.375000,38.26
15:44:59.390625,40.77
15:44:59.406250,41.60
15:44:59.421875,41.30
15:44:59.437500,40.34
15:44:59.453125,39.03
15:44:59.468750,37.54
15:44:59.484375,35.95
15:44:59.500000,34.29
15:44:59.515625,32.66
15:44:59.531250,31.27
15:44:59.546875,30.26
15:44:59.562500,29.65
15:44:59.578125,29.21
15:44:59.593750,28.50
15:44:59.609375,27.00
15:44:59.625000,24.29
15:44:59.640625,20.26
15:44:59.656250,15.06
15:44:59.671875,9.10
15:44:59.687500,2.82
15:44:59.703125,-3.41
15:44:59.718750,-9.37
15:44:59.734375,-15.07
15:44:59.750000,-20.71
15:44:59.765625,-26.69
15:44:59.781250,-33.40
15:44:59.796875,-41.13
15:44:59.812500,-49.64
15:44:59.828125,-58.06
15:44:59.843750,-64.85
15:44:59.859375,-68.19
15:44:59.875000,-66.52
15:44:59.890625,-59.16
15:44:59.906250,-46.60
15:44:59.921875,-30.39
15:44:59.937500,-12.71
15:44:59.953125,4.31
15:44:59.968750,19.03
15:44:59.984375,30.64
15:45:00,38.93
15:45:00.015625,44.15
15:45:00.031250,46.65
15:45:00.046875,46.85
15:45:00.062500,45.17
15:45:00.078125,42.15
15:45:00.093750,38.39
15:45:00.109375,34.51
15:45:00.125000,31.03
15:45:00.140625,28.21
15:45:00.156250,26.04
15:45:00.171875,24.30
15:45:00.187500,22.77
15:45:00.203125,21.29
15:45:00.218750,19.86
15:45:00.234375,18.57
15:45:00.250000,17.40
15:45:00.265625,16.14
15:45:00.281250,14.40
15:45:00.296875,11.73
15:45:00.312500,7.87
15:45:00.328125,2.88
15:45:00.343750,-2.79
15:45:00.359375,-8.54
15:45:00.375000,-13.78
15:45:00.390625,-18.33
15:45:00.406250,-22.41
15:45:00.421875,-26.58
15:45:00.437500,-31.49
15:45:00.453125,-37.55
15:45:00.468750,-44.81
15:45:00.484375,-52.81
15:45:00.500000,-60.62
15:45:00.515625,-66.89
15:45:00.531250,-70.01
15:45:00.546875,-68.34
15:45:00.562500,-60.69
15:45:00.578125,-46.74
15:45:00.593750,-27.40
15:45:00.609375,-4.75
15:45:00.625000,18.45
15:45:00.640625,39.52
15:45:00.656250,56.53
15:45:00.671875,68.66
15:45:00.687500,76.08
15:45:00.703125,79.51
15:45:00.718750,79.73
15:45:00.734375,77.38
15:45:00.750000,73.05
15:45:00.765625,67.45
15:45:00.781250,61.50
15:45:00.796875,56.25
15:45:00.812500,52.47
15:45:00.828125,50.40
15:45:00.843750,49.70
15:45:00.859375,49.56
15:45:00.875000,49.17
15:45:00.890625,48.03
15:45:00.906250,46.16
15:45:00.921875,43.89
15:45:00.937500,41.62
15:45:00.953125,39.48
15:45:00.968750,37.22
15:45:00.984375,34.26
15:45:01,30.06
15:45:01.015625,24.40
15:45:01.031250,17.48
15:45:01.046875,9.92
15:45:01.062500,2.52
15:45:01.078125,-4.11
15:45:01.093750,-9.75
15:45:01.109375,-14.59
15:45:01.125000,-19.21
15:45:01.140625,-24.27
15:45:01.156250,-30.34
15:45:01.171875,-37.67
15:45:01.187500,-46.07
15:45:01.203125,-54.87
15:45:01.218750,-62.93
15:45:01.234375,-68.81
15:45:01.250000,-71.06
15:45:01.265625,-68.63
15:45:01.281250,-61.25
15:45:01.296875,-49.57
15:45:01.312500,-35.07
15:45:01.328125,-19.65
15:45:01.343750,-5.06
15:45:01.359375,7.45
15:45:01.375000,17.33
15:45:01.390625,24.54
15:45:01.406250,29.33
15:45:01.421875,32.01
15:45:01.437500,32.85
15:45:01.453125,32.12
15:45:01.468750,30.25
15:45:01.484375,27.78
15:45:01.500000,25.33
15:45:01.515625,23.39
15:45:01.531250,22.16
15:45:01.546875,21.51
15:45:01.562500,21.07
15:45:01.578125,20.43
15:45:01.593750,19.32
15:45:01.609375,17.72
15:45:01.625000,15.80
15:45:01.640625,13.76
15:45:01.656250,11.66
15:45:01.671875,9.33
15:45:01.687500,6.39
15:45:01.703125,2.46
15:45:01.718750,-2.58
15:45:01.734375,-8.52
15:45:01.750000,-14.79
15:45:01.765625,-20.67
15:45:01.781250,-25.58
15:45:01.796875,-29.33
15:45:01.812500,-32.15
15:45:01.828125,-34.59
15:45:01.843750,-37.41
15:45:01.859375,-41.25
15:45:01.875000,-46.51
15:45:01.890625,-53.15
15:45:01.906250,-60.59
15:45:01.921875,-67.67
15:45:01.937500,-72.83
15:45:01.953125,-74.47
15:45:01.968750,-71.46
15:45:01.984375,-63.50
15:45:02,-51.33
15:45:02.015625,-36.53
15:45:02.031250,-20.96
15:45:02.046875,-6.30
15:45:02.062500,6.37
15:45:02.078125,16.63
15:45:02.093750,24.47
15:45:02.109375,30.04
15:45:02.125000,33.47
15:45:02.140625,34.86
15:45:02.156250,34.46
15:45:02.171875,32.74
15:45:02.187500,30.44
15:45:02.203125,28.36
15:45:02.218750,27.11
15:45:02.234375,26.90
15:45:02.250000,27.49
15:45:02.265625,28.34
15:45:02.281250,28.87
15:45:02.296875,28.66
15:45:02.312500,27.59
15:45:02.328125,25.72
15:45:02.343750,23.20
15:45:02.359375,20.05
15:45:02.375000,16.22
15:45:02.390625,11.57
15:45:02.406250,6.09
15:45:02.421875,-0.03
15:45:02.437500,-6.41
15:45:02.453125,-12.60
15:45:02.468750,-18.29
15:45:02.484375,-23.36
15:45:02.500000,-28.02
15:45:02.515625,-32.68
15:45:02.531250,-37.78
15:45:02.546875,-43.69
15:45:02.562500,-50.61
15:45:02.578125,-58.51
15:45:02.593750,-67.06
15:45:02.609375,-75.62
15:45:02.625000,-83.17
15:45:02.640625,-88.42
15:45:02.656250,-90.07
15:45:02.671875,-87.17
15:45:02.687500,-79.47
15:45:02.703125,-67.58
15:45:02.718750,-52.90
15:45:02.734375,-37.21
15:45:02.750000,-22.23
15:45:02.765625,-9.14
15:45:02.781250,1.57
15:45:02.796875,10.00
15:45:02.812500,16.56
15:45:02.828125,21.66
15:45:02.843750,25.52
15:45:02.859375,28.17
15:45:02.875000,29.62
15:45:02.890625,29.98
15:45:02.906250,29.51
15:45:02.921875,28.65
15:45:02.937500,27.80
15:45:02.953125,27.25
15:45:02.968750,27.13
15:45:02.984375,27.36
15:45:03,27.84
15:45:03.015625,28.45
15:45:03.031250,29.05
15:45:03.046875,29.47
15:45:03.062500,29.36
15:45:03.078125,28.32
15:45:03.093750,25.90
15:45:03.109375,21.83
15:45:03.125000,16.08
15:45:03.140625,8.98
15:45:03.156250,1.13
15:45:03.171875,-6.73
15:45:03.187500,-13.86
15:45:03.203125,-19.82
15:45:03.218750,-24.56
15:45:03.234375,-28.49
15:45:03.250000,-32.41
15:45:03.265625,-37.21
15:45:03.281250,-43.60
15:45:03.296875,-51.75
15:45:03.312500,-61.19
15:45:03.328125,-70.72
15:45:03.343750,-78.64
15:45:03.359375,-83.13
15:45:03.375000,-82.73
15:45:03.390625,-76.73
15:45:03.406250,-65.49
15:45:03.421875,-50.29
15:45:03.437500,-33.06
15:45:03.453125,-15.72
15:45:03.468750,0.27
15:45:03.484375,14.19
15:45:03.500000,25.93
15:45:03.515625,35.70
15:45:03.531250,43.63
15:45:03.546875,49.73
15:45:03.562500,53.86
15:45:03.578125,56.08
15:45:03.593750,56.81
15:45:03.609375,56.79
15:45:03.625000,56.92
15:45:03.640625,57.83
15:45:03.656250,59.63
15:45:03.671875,61.92
15:45:03.687500,63.97
15:45:03.703125,65.10
15:45:03.718750,64.92
15:45:03.734375,63.49
15:45:03.750000,61.13
15:45:03.765625,58.24
15:45:03.781250,55.07
15:45:03.796875,51.65
15:45:03.812500,47.79
15:45:03.828125,43.27
15:45:03.843750,37.97
15:45:03.859375,31.99
15:45:03.875000,25.62
15:45:03.890625,19.25
15:45:03.906250,13.25
15:45:03.921875,7.84
15:45:03.937500,3.07
15:45:03.953125,-1.30
15:45:03.968750,-5.63
15:45:03.984375,-10.35
15:45:04,-15.89
15:45:04.015625,-22.54
15:45:04.031250,-30.38
15:45:04.046875,-39.10
15:45:04.062500,-47.85
15:45:04.078125,-55.28
15:45:04.093750,-59.72
15:45:04.109375,-59.71
15:45:04.125000,-54.55
15:45:04.140625,-44.58
15:45:04.156250,-31.21
15:45:04.171875,-16.40
15:45:04.187500,-2.01
15:45:04.203125,10.65
15:45:04.218750,21.02
15:45:04.234375,29.08
15:45:04.250000,35.05
15:45:04.265625,39.04
15:45:04.281250,41.11
15:45:04.296875,41.43
15:45:04.312500,40.49
15:45:04.328125,39.18
15:45:04.343750,38.57
15:45:04.359375,39.46
15:45:04.375000,42.07
15:45:04.390625,45.82
15:45:04.406250,49.54
15:45:04.421875,51.97
15:45:04.437500,52.23
15:45:04.453125,50.14
15:45:04.468750,46.18
15:45:04.484375,41.19
15:45:04.500000,35.90
15:45:04.515625,30.69
15:45:04.531250,25.52
15:45:04.546875,20.11
15:45:04.562500,14.28
15:45:04.578125,8.03
15:45:04.593750,1.61
15:45:04.609375,-4.72
15:45:04.625000,-10.75
15:45:04.640625,-16.48
15:45:04.656250,-22.02
15:45:04.671875,-27.54
15:45:04.687500,-33.19
15:45:04.703125,-39.08
15:45:04.718750,-45.35
15:45:04.734375,-52.18
15:45:04.750000,-59.70
15:45:04.765625,-67.80
15:45:04.781250,-75.87
15:45:04.796875,-82.77
15:45:04.812500,-86.93
15:45:04.828125,-86.84
15:45:04.843750,-81.57
15:45:04.859375,-71.24
15:45:04.875000,-57.01
15:45:04.890625,-40.78
15:45:04.906250,-24.64
15:45:04.921875,-10.26
15:45:04.937500,1.41
15:45:04.953125,10.21
15:45:04.968750,16.45
15:45:04.984375,20.61
15:45:05,23.10
15:45:05.015625,24.17
15:45:05.031250,23.96
15:45:05.046875,22.71
15:45:05.062500,20.80
15:45:05.078125,18.75
15:45:05.093750,17.12
15:45:05.109375,16.33
15:45:05.125000,16.50
15:45:05.140625,17.48
15:45:05.156250,18.84
15:45:05.171875,20.10
15:45:05.187500,20.84
15:45:05.203125,20.79
15:45:05.218750,19.77
15:45:05.234375,17.68
15:45:05.250000,14.37
15:45:05.265625,9.79
15:45:05.281250,4.04
15:45:05.296875,-2.51
15:45:05.312500,-9.32
15:45:05.328125,-15.82
15:45:05.343750,-21.68
15:45:05.359375,-26.97
15:45:05.375000,-32.16
15:45:05.390625,-37.93
15:45:05.406250,-44.89
15:45:05.421875,-53.26
15:45:05.437500,-62.70
15:45:05.453125,-72.26
15:45:05.468750,-80.51
15:45:05.484375,-85.88
15:45:05.500000,-86.99
15:45:05.515625,-83.03
15:45:05.531250,-74.08
15:45:05.546875,-61.14
15:45:05.562500,-45.94
15:45:05.578125,-30.51
15:45:05.593750,-16.70
15:45:05.609375,-5.72
15:45:05.625000,2.05
15:45:05.640625,7.03
15:45:05.656250,10.10
15:45:05.671875,12.20
15:45:05.687500,13.95
15:45:05.703125,15.48
15:45:05.718750,16.51
15:45:05.734375,16.59
15:45:05.750000,15.46
15:45:05.765625,13.37
15:45:05.781250,11.01
15:45:05.796875,9.25
15:45:05.812500,8.69
15:45:05.828125,9.30
15:45:05.843750,10.38
15:45:05.859375,10.79
15:45:05.875000,9.35
15:45:05.890625,5.41
15:45:05.906250,-0.92
15:45:05.921875,-8.75
15:45:05.937500,-16.85
15:45:05.953125,-24.11
15:45:05.968750,-30.11
15:45:05.984375,-35.39
15:45:06,-41.24
15:45:06.015625,-49.14
15:45:06.031250,-60.18
15:45:06.046875,-74.55
15:45:06.062500,-91.32
15:45:06.078125,-108.85
15:45:06.093750,-125.31
15:45:06.109375,-139.17
15:45:06.125000,-149.70
15:45:06.140625,-157.37
15:45:06.156250,-164.18
15:45:06.171875,-173.35
15:45:06.187500,-188.24
15:45:06.203125,-210.53
15:45:06.218750,-238.74
15:45:06.234375,-267.75
15:45:06.250000,-290.46
15:45:06.265625,-300.71
15:45:06.281250,-296.10
15:45:06.296875,-279.06
15:45:06.312500,-255.56
15:45:06.328125,-231.89
15:45:06.343750,-211.39
15:45:06.359375,-193.20
15:45:06.375000,-173.07
15:45:06.390625,-145.80
15:45:06.406250,-107.66
15:45:06.421875,-57.83
15:45:06.437500,1.20
15:45:06.453125,63.89
15:45:06.468750,122.03
15:45:06.484375,165.94
15:45:06.500000,186.69
15:45:06.515625,179.39
15:45:06.531250,145.83
15:45:06.546875,95.06
15:45:06.562500,41.19
15:45:06.578125,-1.28
15:45:06.593750,-22.38
15:45:06.609375,-19.42
15:45:06.625000,3.36
15:45:06.640625,37.87
15:45:06.656250,75.92
15:45:06.671875,111.73
15:45:06.687500,142.30
15:45:06.703125,166.23
15:45:06.718750,182.24
15:45:06.734375,188.67
15:45:06.750000,184.06
15:45:06.765625,168.52
15:45:06.781250,144.51
15:45:06.796875,116.80
15:45:06.812500,91.10
15:45:06.828125,72.31
15:45:06.843750,63.16
15:45:06.859375,63.63
15:45:06.875000,71.58
15:45:06.890625,83.90
15:45:06.906250,97.81
15:45:06.921875,111.55
15:45:06.937500,124.40
15:45:06.953125,136.24
15:45:06.968750,146.85
15:45:06.984375,155.57
15:45:07,161.31
15:45:07.015625,163.02
15:45:07.031250,160.28
15:45:07.046875,153.66
15:45:07.062500,144.79
15:45:07.078125,135.91
15:45:07.093750,129.25
15:45:07.109375,126.27
15:45:07.125000,127.30
15:45:07.140625,131.43
15:45:07.156250,137.07
15:45:07.171875,142.62
15:45:07.187500,147.02
15:45:07.203125,149.97
15:45:07.218750,151.65
15:45:07.234375,152.25
15:45:07.250000,151.63
15:45:07.265625,149.34
15:45:07.281250,145.17
15:45:07.296875,139.56
15:45:07.312500,133.77
15:45:07.328125,129.34
15:45:07.343750,127.18
15:45:07.359375,126.79
15:45:07.375000,126.18
15:45:07.390625,122.57
15:45:07.406250,113.70
15:45:07.421875,98.87
15:45:07.437500,79.43
15:45:07.453125,58.38
15:45:07.468750,39.31
15:45:07.484375,25.36
15:45:07.500000,18.30
15:45:07.515625,18.30
15:45:07.531250,24.14
15:45:07.546875,33.81
15:45:07.562500,45.32
15:45:07.578125,57.54
15:45:07.593750,70.66
15:45:07.609375,86.16
15:45:07.625000,106.07
15:45:07.640625,131.67
15:45:07.656250,162.13
15:45:07.671875,193.98
15:45:07.687500,221.76
15:45:07.703125,239.67
15:45:07.718750,243.73
15:45:07.734375,233.10
15:45:07.750000,210.20
15:45:07.765625,179.35
15:45:07.781250,144.96
15:45:07.796875,109.92
15:45:07.812500,75.12
15:45:07.828125,39.99
15:45:07.843750,3.49
15:45:07.859375,-35.02
15:45:07.875000,-75.45
15:45:07.890625,-116.83
15:45:07.906250,-157.42
15:45:07.921875,-194.82
15:45:07.937500,-226.33
15:45:07.953125,-249.55
15:45:07.968750,-263.13
15:45:07.984375,-267.36
15:45:08,-264.07
15:45:08.015625,-255.89
15:45:08.031250,-245.40
15:45:08.046875,-234.36
15:45:08.062500,-223.72
15:45:08.078125,-214.00
15:45:08.093750,-205.75
15:45:08.109375,-199.70
15:45:08.125000,-196.45
15:45:08.140625,-195.97
15:45:08.156250,-197.33
15:45:08.171875,-198.80
15:45:08.187500,-198.28
15:45:08.203125,-194.05
15:45:08.218750,-185.13
15:45:08.234375,-171.56
15:45:08.250000,-154.28
15:45:08.265625,-134.68
15:45:08.281250,-114.11
15:45:08.296875,-93.62
15:45:08.312500,-73.84
15:45:08.328125,-55.17
15:45:08.343750,-38.07
15:45:08.359375,-23.16
15:45:08.375000,-11.19
15:45:08.390625,-2.67
15:45:08.406250,2.43
15:45:08.421875,4.75
15:45:08.437500,5.44
15:45:08.453125,5.70
15:45:08.468750,6.46
15:45:08.484375,8.17
15:45:08.500000,10.82
15:45:08.515625,14.03
15:45:08.531250,17.23
15:45:08.546875,19.88
15:45:08.562500,21.53
15:45:08.578125,21.95
15:45:08.593750,21.15
15:45:08.609375,19.40
15:45:08.625000,17.15
15:45:08.640625,14.87
15:45:08.656250,12.96
15:45:08.671875,11.53
15:45:08.687500,10.45
15:45:08.703125,9.34
15:45:08.718750,7.83
15:45:08.734375,5.65
15:45:08.750000,2.83
15:45:08.765625,-0.31
15:45:08.781250,-3.38
15:45:08.796875,-6.07
15:45:08.812500,-8.52
15:45:08.828125,-11.26
15:45:08.843750,-15.09
15:45:08.859375,-20.58
15:45:08.875000,-27.69
15:45:08.890625,-35.41
15:45:08.906250,-41.99
15:45:08.921875,-45.45
15:45:08.937500,-44.21
15:45:08.953125,-37.77
15:45:08.968750,-26.87
15:45:08.984375,-13.18
15:45:09,1.22
15:45:09.015625,14.58
15:45:09.031250,25.73
15:45:09.046875,34.18
15:45:09.062500,39.82
15:45:09.078125,42.59
15:45:09.093750,42.42
15:45:09.109375,39.28
15:45:09.125000,33.40
15:45:09.140625,25.41
15:45:09.156250,16.32
15:45:09.171875,7.21
15:45:09.187500,-1.09
15:45:09.203125,-8.23
15:45:09.218750,-14.38
15:45:09.234375,-20.10
15:45:09.250000,-26.02
15:45:09.265625,-32.75
15:45:09.281250,-40.75
15:45:09.296875,-50.39
15:45:09.312500,-61.80
15:45:09.328125,-74.74
15:45:09.343750,-88.47
15:45:09.359375,-101.86
15:45:09.375000,-113.62
15:45:09.390625,-122.65
15:45:09.406250,-128.29
15:45:09.421875,-130.26
15:45:09.437500,-128.63
15:45:09.453125,-123.57
15:45:09.468750,-115.41
15:45:09.484375,-104.79
15:45:09.500000,-92.67
15:45:09.515625,-80.32
15:45:09.531250,-69.09
15:45:09.546875,-59.99
15:45:09.562500,-53.51
15:45:09.578125,-49.40
15:45:09.593750,-46.74
15:45:09.609375,-44.15
15:45:09.625000,-39.99
15:45:09.640625,-32.81
15:45:09.656250,-21.83
15:45:09.671875,-7.29
15:45:09.687500,9.50
15:45:09.703125,26.54
15:45:09.718750,41.86
15:45:09.734375,54.30
15:45:09.750000,63.88
15:45:09.765625,71.65
15:45:09.781250,79.11
15:45:09.796875,87.60
15:45:09.812500,97.89
15:45:09.828125,110.19
15:45:09.843750,124.39
15:45:09.859375,140.10
15:45:09.875000,156.61
15:45:09.890625,172.54
15:45:09.906250,185.83
15:45:09.921875,194.10
15:45:09.937500,195.50
15:45:09.953125,189.60
15:45:09.968750,177.81
15:45:09.984375,162.92
15:45:10,148.09
15:45:10.015625,135.58
15:45:10.031250,126.14
15:45:10.046875,119.06
15:45:10.062500,112.88
15:45:10.078125,106.29
15:45:10.093750,98.69
15:45:10.109375,90.30
15:45:10.125000,81.77
15:45:10.140625,73.72
15:45:10.156250,66.30
15:45:10.171875,59.10
15:45:10.187500,51.37
15:45:10.203125,42.29
15:45:10.218750,31.29
15:45:10.234375,18.30
15:45:10.250000,3.70
15:45:10.265625,-11.86
15:45:10.281250,-27.61
15:45:10.296875,-42.78
15:45:10.312500,-56.44
15:45:10.328125,-67.40
15:45:10.343750,-74.20
15:45:10.359375,-75.41
15:45:10.375000,-70.21
15:45:10.390625,-58.79
15:45:10.406250,-42.49
15:45:10.421875,-23.58
15:45:10.437500,-4.59
15:45:10.453125,12.29
15:45:10.468750,25.53
15:45:10.484375,34.31
15:45:10.500000,38.28
15:45:10.515625,37.29
15:45:10.531250,31.51
15:45:10.546875,21.52
15:45:10.562500,8.58
15:45:10.578125,-5.50
15:45:10.593750,-18.77
15:45:10.609375,-29.73
15:45:10.625000,-37.79
15:45:10.640625,-43.29
15:45:10.656250,-47.19
15:45:10.671875,-50.59
15:45:10.687500,-54.24
15:45:10.703125,-58.29
15:45:10.718750,-62.43
15:45:10.734375,-66.12
15:45:10.750000,-68.83
15:45:10.765625,-70.21
15:45:10.781250,-70.10
15:45:10.796875,-68.58
15:45:10.812500,-65.89
15:45:10.828125,-62.38
15:45:10.843750,-58.56
15:45:10.859375,-55.06
15:45:10.875000,-52.73
15:45:10.890625,-52.61
15:45:10.906250,-55.62
15:45:10.921875,-62.29
15:45:10.937500,-72.59
15:45:10.953125,-86.00
15:45:10.968750,-101.77
15:45:10.984375,-119.05
15:45:11,-136.82
15:45:11.015625,-153.67
15:45:11.031250,-167.87
15:45:11.046875,-177.80
15:45:11.062500,-182.67
15:45:11.078125,-183.14
15:45:11.093750,-181.06
15:45:11.109375,-178.66
15:45:11.125000,-177.09
15:45:11.140625,-175.41
15:45:11.156250,-170.54
15:45:11.171875,-158.35
15:45:11.187500,-135.23
15:45:11.203125,-99.33
15:45:11.218750,-51.20
15:45:11.234375,6.34
15:45:11.250000,68.74
15:45:11.265625,130.34
15:45:11.281250,185.19
15:45:11.296875,228.12
15:45:11.312500,255.89
15:45:11.328125,268.14
15:45:11.343750,267.60
15:45:11.359375,259.30
15:45:11.375000,248.89
15:45:11.390625,240.66
15:45:11.406250,235.80
15:45:11.421875,231.74
15:45:11.437500,223.04
15:45:11.453125,203.88
15:45:11.468750,171.01
15:45:11.484375,126.30
15:45:11.500000,77.17
15:45:11.515625,34.47
15:45:11.531250,8.41
15:45:11.546875,4.32
15:45:11.562500,20.45
15:45:11.578125,48.87
15:45:11.593750,79.15
15:45:11.609375,102.69
15:45:11.625000,115.63
15:45:11.640625,119.15
15:45:11.656250,117.31
15:45:11.671875,114.27
15:45:11.687500,112.47
15:45:11.703125,112.33
15:45:11.718750,113.24
15:45:11.734375,114.60
15:45:11.750000,116.46
15:45:11.765625,119.20
15:45:11.781250,122.87
15:45:11.796875,126.86
15:45:11.812500,129.90
15:45:11.828125,130.61
15:45:11.843750,128.05
15:45:11.859375,122.31
15:45:11.875000,114.46
15:45:11.890625,106.41
15:45:11.906250,100.25
15:45:11.921875,97.08
15:45:11.937500,96.82
15:45:11.953125,98.06
15:45:11.968750,98.44
15:45:11.984375,95.25
15:45:12,86.13
15:45:12.015625,69.81
15:45:12.031250,46.49
15:45:12.046875,17.74
15:45:12.062500,-14.20
15:45:12.078125,-46.43
15:45:12.093750,-75.79
15:45:12.109375,-99.13
15:45:12.125000,-113.91
15:45:12.140625,-118.67
15:45:12.156250,-113.13
15:45:12.171875,-98.14
15:45:12.187500,-75.44
15:45:12.203125,-48.26
15:45:12.218750,-19.76
15:45:12.234375,7.65
15:45:12.250000,32.79
15:45:12.265625,55.51
15:45:12.281250,76.38
15:45:12.296875,96.38
15:45:12.312500,116.49
15:45:12.328125,137.00
15:45:12.343750,154.56
15:45:12.359375,165.39
15:45:12.375000,167.03
15:45:12.390625,159.58
15:45:12.406250,144.99
15:45:12.421875,126.04
15:45:12.437500,105.67
15:45:12.453125,86.55
15:45:12.468750,70.61
15:45:12.484375,53.55
15:45:12.500000,31.48
15:45:12.515625,3.20
15:45:12.531250,-28.85
15:45:12.546875,-61.36
15:45:12.562500,-92.61
15:45:12.578125,-122.56
15:45:12.593750,-151.74
15:45:12.609375,-180.12
15:45:12.625000,-215.03
15:45:12.640625,-261.05
15:45:12.656250,-317.40
15:45:12.671875,-377.57
15:45:12.687500,-434.28
15:45:12.703125,-483.57
15:45:12.718750,-524.84
15:45:12.734375,-558.99
15:45:12.750000,-586.98
15:45:12.765625,-620.39
15:45:12.781250,-667.99
15:45:12.796875,-732.40
15:45:12.812500,-808.62
15:45:12.828125,-889.80
15:45:12.843750,-972.29
15:45:12.859375,-1056.06
15:45:12.875000,-1143.07
15:45:12.890625,-1168.11
15:45:12.906250,-1092.21
15:45:12.921875,-919.92
15:45:12.937500,-697.05
15:45:12.953125,-471.15
15:45:12.968750,-266.39
15:45:12.984375,-87.87
15:45:13,65.41
15:45:13.015625,193.57
15:45:13.031250,295.78
15:45:13.046875,358.55
15:45:13.062500,383.20
15:45:13.078125,377.58
15:45:13.093750,355.92
15:45:13.109375,332.00
15:45:13.125000,313.51
15:45:13.140625,302.42
15:45:13.156250,298.36
15:45:13.171875,301.38
15:45:13.187500,304.70
15:45:13.203125,302.22
15:45:13.218750,292.37
15:45:13.234375,279.15
15:45:13.250000,267.67
15:45:13.265625,260.38
15:45:13.281250,257.28
15:45:13.296875,257.78
15:45:13.312500,261.76
15:45:13.328125,264.42
15:45:13.343750,262.64
15:45:13.359375,255.98
15:45:13.375000,247.60
15:45:13.390625,241.24
15:45:13.406250,238.39
15:45:13.421875,238.11
15:45:13.437500,238.02
15:45:13.453125,235.70
15:45:13.468750,227.02
15:45:13.484375,210.06
15:45:13.500000,185.60
15:45:13.515625,157.29
15:45:13.531250,129.48
15:45:13.546875,105.26
15:45:13.562500,86.08
15:45:13.578125,72.23
15:45:13.593750,63.30
15:45:13.609375,57.56
15:45:13.625000,53.22
15:45:13.640625,48.65
15:45:13.656250,42.98
15:45:13.671875,35.99
15:45:13.687500,28.01
15:45:13.703125,19.96
15:45:13.718750,13.03
15:45:13.734375,8.15
15:45:13.750000,5.53
15:45:13.765625,4.48
15:45:13.781250,3.70
15:45:13.796875,1.97
15:45:13.812500,-1.20
15:45:13.828125,-5.38
15:45:13.843750,-9.41
15:45:13.859375,-11.88
15:45:13.875000,-11.55
15:45:13.890625,-7.64
15:45:13.906250,0.06
15:45:13.921875,11.36
15:45:13.937500,25.58
15:45:13.953125,41.55
15:45:13.968750,57.69
15:45:13.984375,72.13
15:45:14,83.06
15:45:14.015625,89.24
15:45:14.031250,90.34
15:45:14.046875,87.18
15:45:14.062500,81.41
15:45:14.078125,74.98
15:45:14.093750,69.51
15:45:14.109375,65.87
15:45:14.125000,64.13
15:45:14.140625,63.89
15:45:14.156250,64.69
15:45:14.171875,66.23
15:45:14.187500,68.36
15:45:14.203125,70.88
15:45:14.218750,73.35
15:45:14.234375,75.04
15:45:14.250000,75.20
15:45:14.265625,73.29
15:45:14.281250,69.06
15:45:14.296875,62.41
15:45:14.312500,53.24
15:45:14.328125,41.34
15:45:14.343750,26.58
15:45:14.359375,9.33
15:45:14.375000,-9.30
15:45:14.390625,-27.34
15:45:14.406250,-42.49
15:45:14.421875,-52.51
15:45:14.437500,-55.94
15:45:14.453125,-52.50
15:45:14.468750,-43.09
15:45:14.484375,-29.63
15:45:14.500000,-14.49
15:45:14.515625,0.01
15:45:14.531250,12.14
15:45:14.546875,21.10
15:45:14.562500,26.89
15:45:14.578125,30.13
15:45:14.593750,31.69
15:45:14.609375,32.33
15:45:14.625000,32.49
15:45:14.640625,32.30
15:45:14.656250,31.56
15:45:14.671875,30.00
15:45:14.687500,27.29
15:45:14.703125,23.27
15:45:14.718750,17.95
15:45:14.734375,11.47
15:45:14.750000,4.01
15:45:14.765625,-4.16
15:45:14.781250,-12.70
15:45:14.796875,-20.99
15:45:14.812500,-28.18
15:45:14.828125,-33.39
15:45:14.843750,-36.13
15:45:14.859375,-36.65
15:45:14.875000,-36.01
15:45:14.890625,-35.77
15:45:14.906250,-37.54
15:45:14.921875,-42.31
15:45:14.937500,-50.22
15:45:14.953125,-60.56
15:45:14.968750,-72.06
15:45:14.984375,-83.24
15:45:15,-92.77
15:45:15.015625,-99.51
15:45:15.031250,-102.46
15:45:15.046875,-100.58
15:45:15.062500,-92.90
15:45:15.078125,-78.65
15:45:15.093750,-57.76
15:45:15.109375,-31.22
15:45:15.125000,-1.17
15:45:15.140625,29.39
15:45:15.156250,57.44
15:45:15.171875,80.69
15:45:15.187500,97.99
15:45:15.203125,109.15
15:45:15.218750,114.43
15:45:15.234375,113.99
15:45:15.250000,107.94
15:45:15.265625,96.75
15:45:15.281250,81.64
15:45:15.296875,64.52
15:45:15.312500,47.32
15:45:15.328125,31.28
15:45:15.343750,16.73
15:45:15.359375,3.44
15:45:15.375000,-8.59
15:45:15.390625,-18.70
15:45:15.406250,-25.73
15:45:15.421875,-28.87
15:45:15.437500,-28.46
15:45:15.453125,-26.21
15:45:15.468750,-24.66
15:45:15.484375,-26.06
15:45:15.500000,-31.49
15:45:15.515625,-40.50
15:45:15.531250,-51.26
15:45:15.546875,-61.20
15:45:15.562500,-67.64
15:45:15.578125,-68.42
15:45:15.593750,-62.22
15:45:15.609375,-48.90
15:45:15.625000,-29.49
15:45:15.640625,-5.88
15:45:15.656250,19.80
15:45:15.671875,45.82
15:45:15.687500,71.18
15:45:15.703125,95.31
15:45:15.718750,117.56
15:45:15.734375,136.70
15:45:15.750000,151.03
15:45:15.765625,158.88
15:45:15.781250,159.26
15:45:15.796875,152.14
15:45:15.812500,138.34
15:45:15.828125,119.10
15:45:15.843750,95.90
15:45:15.859375,70.42
15:45:15.875000,44.77
15:45:15.890625,21.59
15:45:15.906250,3.61
15:45:15.921875,-7.14
15:45:15.937500,-10.05
15:45:15.953125,-6.42
15:45:15.968750,0.94
15:45:15.984375,8.50
15:45:16,13.07
15:45:16.015625,12.49
15:45:16.031250,5.92
15:45:16.046875,-6.33
15:45:16.062500,-22.89
15:45:16.078125,-41.58
15:45:16.093750,-59.71
15:45:16.109375,-74.47
15:45:16.125000,-83.53
15:45:16.140625,-85.64
15:45:16.156250,-80.99
15:45:16.171875,-71.12
15:45:16.187500,-58.35
15:45:16.203125,-44.92
15:45:16.218750,-32.31
15:45:16.234375,-21.01
15:45:16.250000,-10.77
15:45:16.265625,-1.19
15:45:16.281250,7.74
15:45:16.296875,15.54
15:45:16.312500,21.45
15:45:16.328125,24.90
15:45:16.343750,25.85
15:45:16.359375,24.74
15:45:16.375000,22.24
15:45:16.390625,19.02
15:45:16.406250,15.53
15:45:16.421875,12.09
15:45:16.437500,8.92
15:45:16.453125,6.25
15:45:16.468750,4.22
15:45:16.484375,2.71
15:45:16.500000,1.30
15:45:16.515625,-0.72
15:45:16.531250,-4.12
15:45:16.546875,-9.59
15:45:16.562500,-17.53
15:45:16.578125,-28.01
15:45:16.593750,-40.77
15:45:16.609375,-55.16
15:45:16.625000,-70.08
15:45:16.640625,-84.01
15:45:16.656250,-95.09
15:45:16.671875,-101.54
15:45:16.687500,-102.08
15:45:16.703125,-96.37
15:45:16.718750,-85.19
15:45:16.734375,-70.22
15:45:16.750000,-53.54
15:45:16.765625,-37.07
15:45:16.781250,-22.08
15:45:16.796875,-9.19
15:45:16.812500,1.43
15:45:16.828125,9.68
15:45:16.843750,15.32
15:45:16.859375,18.12
15:45:16.875000,18.10
15:45:16.890625,15.83
15:45:16.906250,12.34
15:45:16.921875,8.89
15:45:16.937500,6.37
15:45:16.953125,5.07
15:45:16.968750,4.64
15:45:16.984375,4.49
15:45:17,4.21
15:45:17.015625,3.87
15:45:17.031250,3.94
15:45:17.046875,4.96
15:45:17.062500,7.17
15:45:17.078125,10.27
15:45:17.093750,13.48
15:45:17.109375,15.75
15:45:17.125000,16.03
15:45:17.140625,13.53
15:45:17.156250,7.96
15:45:17.171875,-0.28
15:45:17.187500,-9.91
15:45:17.203125,-18.81
15:45:17.218750,-24.46
15:45:17.234375,-24.60
15:45:17.250000,-18.04
15:45:17.265625,-5.14
15:45:17.281250,12.21
15:45:17.296875,31.24
15:45:17.312500,49.19
15:45:17.328125,64.09
15:45:17.343750,75.07
15:45:17.359375,82.19
15:45:17.375000,85.97
15:45:17.390625,86.88
15:45:17.406250,85.25
15:45:17.421875,81.27
15:45:17.437500,75.30
15:45:17.453125,68.03
15:45:17.468750,60.38
15:45:17.484375,53.22
15:45:17.500000,47.03
15:45:17.515625,41.68
15:45:17.531250,36.53
15:45:17.546875,30.83
15:45:17.562500,24.15
15:45:17.578125,16.68
15:45:17.593750,9.21
15:45:17.609375,2.74
15:45:17.625000,-2.00
15:45:17.640625,-4.87
15:45:17.656250,-6.48
15:45:17.671875,-7.84
15:45:17.687500,-10.04
15:45:17.703125,-13.84
15:45:17.718750,-19.46
15:45:17.734375,-26.62
15:45:17.750000,-34.59
15:45:17.765625,-42.35
15:45:17.781250,-48.81
15:45:17.796875,-52.99
15:45:17.812500,-54.27
15:45:17.828125,-52.64
15:45:17.843750,-48.81
15:45:17.859375,-44.00
15:45:17.875000,-39.56
15:45:17.890625,-36.36
15:45:17.906250,-34.46
15:45:17.921875,-33.13
15:45:17.937500,-31.44
15:45:17.953125,-28.86
15:45:17.968750,-25.74
15:45:17.984375,-23.15
15:45:18,-22.24
15:45:18.015625,-23.52
15:45:18.031250,-26.33
15:45:18.046875,-29.13
15:45:18.062500,-30.19
15:45:18.078125,-28.40
15:45:18.093750,-23.86
15:45:18.109375,-17.71
15:45:18.125000,-11.58
15:45:18.140625,-6.83
15:45:18.156250,-4.07
15:45:18.171875,-3.08
15:45:18.187500,-3.14
15:45:18.203125,-3.57
15:45:18.218750,-4.10
15:45:18.234375,-5.00
15:45:18.250000,-6.86
15:45:18.265625,-10.26
15:45:18.281250,-15.43
15:45:18.296875,-22.11
15:45:18.312500,-29.56
15:45:18.328125,-36.72
15:45:18.343750,-42.41
15:45:18.359375,-45.52
15:45:18.375000,-45.10
15:45:18.390625,-40.58
15:45:18.406250,-31.78
15:45:18.421875,-19.06
15:45:18.437500,-3.24
15:45:18.453125,14.49
15:45:18.468750,32.74
15:45:18.484375,50.18
15:45:18.500000,65.67
15:45:18.515625,78.45
15:45:18.531250,88.20
15:45:18.546875,94.99
15:45:18.562500,99.11
15:45:18.578125,100.78
15:45:18.593750,100.04
15:45:18.609375,96.75
15:45:18.625000,90.82
15:45:18.640625,82.43
15:45:18.656250,72.20
15:45:18.671875,61.00
15:45:18.687500,49.69
15:45:18.703125,38.95
15:45:18.718750,29.16
15:45:18.734375,20.55
15:45:18.750000,13.29
15:45:18.765625,7.59
15:45:18.781250,3.52
15:45:18.796875,0.88
15:45:18.812500,-0.88
15:45:18.828125,-2.56
15:45:18.843750,-5.03
15:45:18.859375,-8.99
15:45:18.875000,-14.84
15:45:18.890625,-22.68
15:45:18.906250,-32.30
15:45:18.921875,-43.26
15:45:18.937500,-54.82
15:45:18.953125,-65.90
15:45:18.968750,-75.04
15:45:18.984375,-80.47
15:45:19,-80.53
15:45:19.015625,-73.99
15:45:19.031250,-60.58
15:45:19.046875,-41.19
15:45:19.062500,-17.71
15:45:19.078125,7.42
15:45:19.093750,31.93
15:45:19.109375,54.05
15:45:19.125000,72.74
15:45:19.140625,87.42
15:45:19.156250,97.75
15:45:19.171875,103.51
15:45:19.187500,104.73
15:45:19.203125,101.93
15:45:19.218750,96.21
15:45:19.234375,89.01
15:45:19.250000,81.73
15:45:19.265625,75.19
15:45:19.281250,69.36
15:45:19.296875,63.48
15:45:19.312500,56.46
15:45:19.328125,47.47
15:45:19.343750,36.41
15:45:19.359375,23.99
15:45:19.375000,11.54
15:45:19.390625,0.54
15:45:19.406250,-7.82
15:45:19.421875,-13.02
15:45:19.437500,-15.36
15:45:19.453125,-15.77
15:45:19.468750,-15.64
15:45:19.484375,-16.34
15:45:19.500000,-18.97
15:45:19.515625,-24.07
15:45:19.531250,-31.48
15:45:19.546875,-40.30
15:45:19.562500,-49.02
15:45:19.578125,-55.76
15:45:19.593750,-58.54
15:45:19.609375,-55.79
15:45:19.625000,-46.73
15:45:19.640625,-31.80
15:45:19.656250,-12.67
15:45:19.671875,7.96
15:45:19.687500,27.07
15:45:19.703125,42.21
15:45:19.718750,52.11
15:45:19.734375,56.99
15:45:19.750000,58.13
15:45:19.765625,57.17
15:45:19.781250,55.36
15:45:19.796875,53.26
15:45:19.812500,50.91
15:45:19.828125,48.25
15:45:19.843750,45.51
15:45:19.859375,43.27
15:45:19.875000,42.18
15:45:19.890625,42.62
15:45:19.906250,44.50
15:45:19.921875,47.30
15:45:19.937500,50.32
15:45:19.953125,53.00
15:45:19.968750,55.03
15:45:19.984375,56.29
15:45:20,56.64
15:45:20.015625,55.88
15:45:20.031250,53.73
15:45:20.046875,50.00
15:45:20.062500,44.72
15:45:20.078125,38.22
15:45:20.093750,31.09
15:45:20.109375,24.03
15:45:20.125000,17.88
15:45:20.140625,13.57
15:45:20.156250,12.23
15:45:20.171875,15.15
15:45:20.187500,23.57
15:45:20.203125,38.25
15:45:20.218750,59.08
15:45:20.234375,84.65
15:45:20.250000,112.35
15:45:20.265625,138.87
15:45:20.281250,160.89
15:45:20.296875,175.81
15:45:20.312500,182.12
15:45:20.328125,179.54
15:45:20.343750,168.68
15:45:20.359375,150.80
15:45:20.375000,127.44
15:45:20.390625,100.16
15:45:20.406250,70.32
15:45:20.421875,38.89
15:45:20.437500,6.28
15:45:20.453125,-27.69
15:45:20.468750,-63.46
15:45:20.484375,-101.32
15:45:20.500000,-140.92
15:45:20.515625,-181.09
15:45:20.531250,-219.93
15:45:20.546875,-255.31
15:45:20.562500,-285.46
15:45:20.578125,-309.39
15:45:20.593750,-327.11
15:45:20.609375,-339.30
15:45:20.625000,-346.89
15:45:20.640625,-350.46
15:45:20.656250,-349.94
15:45:20.671875,-344.62
15:45:20.687500,-333.54
15:45:20.703125,-316.11
15:45:20.718750,-292.54
15:45:20.734375,-264.03
15:45:20.750000,-232.48
15:45:20.765625,-199.83
15:45:20.781250,-167.40
15:45:20.796875,-135.56
15:45:20.812500,-103.97
15:45:20.828125,-72.15
15:45:20.843750,-40.37
15:45:20.859375,-9.90
15:45:20.875000,17.15
15:45:20.890625,38.69
15:45:20.906250,53.49
15:45:20.921875,61.70
15:45:20.937500,64.78
15:45:20.953125,64.76
15:45:20.968750,63.50
15:45:20.984375,62.09
15:45:21,60.81
15:45:21.015625,59.49
15:45:21.031250,57.93
15:45:21.046875,56.19
15:45:21.062500,54.45
15:45:21.078125,52.83
15:45:21.093750,51.10
15:45:21.109375,48.82
15:45:21.125000,45.52
15:45:21.140625,40.94
15:45:21.156250,35.26
15:45:21.171875,28.95
15:45:21.187500,22.67
15:45:21.203125,16.90
15:45:21.218750,11.73
15:45:21.234375,6.81
15:45:21.250000,1.41
15:45:21.265625,-5.26
15:45:21.281250,-13.65
15:45:21.296875,-23.51
15:45:21.312500,-33.64
15:45:21.328125,-42.03
15:45:21.343750,-46.40
15:45:21.359375,-44.89
15:45:21.375000,-36.81
15:45:21.390625,-22.99
15:45:21.406250,-5.61
15:45:21.421875,12.49
15:45:21.437500,28.71
15:45:21.453125,41.36
15:45:21.468750,49.89
15:45:21.484375,54.68
15:45:21.500000,56.45
15:45:21.515625,55.81
15:45:21.531250,53.15
15:45:21.546875,48.76
15:45:21.562500,43.11
15:45:21.578125,37.02
15:45:21.593750,31.54
15:45:21.609375,27.59
15:45:21.625000,25.58
15:45:21.640625,25.20
15:45:21.656250,25.51
15:45:21.671875,25.36
15:45:21.687500,23.86
15:45:21.703125,20.74
15:45:21.718750,16.37
15:45:21.734375,11.47
15:45:21.750000,6.74
15:45:21.765625,2.49
15:45:21.781250,-1.47
15:45:21.796875,-5.69
15:45:21.812500,-10.88
15:45:21.828125,-17.62
15:45:21.843750,-26.18
15:45:21.859375,-36.43
15:45:21.875000,-47.71
15:45:21.890625,-58.84
15:45:21.906250,-68.12
15:45:21.921875,-73.71
15:45:21.937500,-74.02
15:45:21.953125,-68.28
15:45:21.968750,-56.88
15:45:21.984375,-41.30
15:45:22,-23.74
15:45:22.015625,-6.53
15:45:22.031250,8.45
15:45:22.046875,20.06
15:45:22.062500,27.97
15:45:22.078125,32.44
15:45:22.093750,34.13
15:45:22.109375,33.86
15:45:22.125000,32.34
15:45:22.140625,30.17
15:45:22.156250,27.74
15:45:22.171875,25.33
15:45:22.187500,23.18
15:45:22.203125,21.63
15:45:22.218750,21.01
15:45:22.234375,21.56
15:45:22.250000,23.31
15:45:22.265625,25.87
15:45:22.281250,28.42
15:45:22.296875,29.86
15:45:22.312500,29.04
15:45:22.328125,25.11
15:45:22.343750,17.94
15:45:22.359375,8.18
15:45:22.375000,-2.74
15:45:22.390625,-13.11
15:45:22.406250,-21.55
15:45:22.421875,-27.47
15:45:22.437500,-31.32
15:45:22.453125,-34.30
15:45:22.468750,-37.82
15:45:22.484375,-42.79
15:45:22.500000,-49.15
15:45:22.515625,-55.84
15:45:22.531250,-61.09
15:45:22.546875,-62.99
15:45:22.562500,-60.12
15:45:22.578125,-51.84
15:45:22.593750,-38.50
15:45:22.609375,-21.25
15:45:22.625000,-1.84
15:45:22.640625,17.69
15:45:22.656250,35.29
15:45:22.671875,49.20
15:45:22.687500,58.25
15:45:22.703125,62.09
15:45:22.718750,61.31
15:45:22.734375,57.29
15:45:22.750000,51.80
15:45:22.765625,46.46
15:45:22.781250,42.29
15:45:22.796875,39.56
15:45:22.812500,37.89
15:45:22.828125,36.61
15:45:22.843750,35.17
15:45:22.859375,33.37
15:45:22.875000,31.32
15:45:22.890625,29.35
15:45:22.906250,27.69
15:45:22.921875,26.42
15:45:22.937500,25.43
15:45:22.953125,24.53
15:45:22.968750,23.51
15:45:22.984375,22.07
15:45:23,19.80
15:45:23.015625,16.00
15:45:23.031250,9.84
15:45:23.046875,0.68
15:45:23.062500,-11.52
15:45:23.078125,-25.94
15:45:23.093750,-41.15
15:45:23.109375,-55.57
15:45:23.125000,-68.13
15:45:23.140625,-78.53
15:45:23.156250,-87.02
15:45:23.171875,-93.75
15:45:23.187500,-98.19
15:45:23.203125,-99.07
15:45:23.218750,-94.81
15:45:23.234375,-84.42
15:45:23.250000,-68.21
15:45:23.265625,-47.95
15:45:23.281250,-26.32
15:45:23.296875,-6.04
15:45:23.312500,11.01
15:45:23.328125,24.09
15:45:23.343750,33.48
15:45:23.359375,40.00
15:45:23.375000,44.51
15:45:23.390625,47.64
15:45:23.406250,49.68
15:45:23.421875,50.73
15:45:23.437500,50.82
15:45:23.453125,50.00
15:45:23.468750,48.52
15:45:23.484375,46.68
15:45:23.500000,44.90
15:45:23.515625,43.55
15:45:23.531250,42.82
15:45:23.546875,42.70
15:45:23.562500,42.99
15:45:23.578125,43.33
15:45:23.593750,43.22
15:45:23.609375,42.08
15:45:23.625000,39.18
15:45:23.640625,33.81
15:45:23.656250,25.52
15:45:23.671875,14.42
15:45:23.687500,1.33
15:45:23.703125,-12.33
15:45:23.718750,-25.04
15:45:23.734375,-35.70
15:45:23.750000,-44.13
15:45:23.765625,-51.03
15:45:23.781250,-57.57
15:45:23.796875,-64.73
15:45:23.812500,-72.74
15:45:23.828125,-80.78
15:45:23.843750,-87.13
15:45:23.859375,-89.69
15:45:23.875000,-86.69
15:45:23.890625,-77.27
15:45:23.906250,-61.82
15:45:23.921875,-42.01
15:45:23.937500,-20.27
15:45:23.953125,0.78
15:45:23.968750,19.08
15:45:23.984375,33.40
15:45:24,43.40
15:45:24.015625,49.37
15:45:24.031250,51.90
15:45:24.046875,51.63
15:45:24.062500,49.24
15:45:24.078125,45.43
15:45:24.093750,40.97
15:45:24.109375,36.52
15:45:24.125000,32.51
15:45:24.140625,28.96
15:45:24.156250,25.61
15:45:24.171875,22.09
15:45:24.187500,18.23
15:45:24.203125,14.22
15:45:24.218750,10.56
15:45:24.234375,7.84
15:45:24.250000,6.57
15:45:24.265625,7.02
15:45:24.281250,9.11
15:45:24.296875,12.28
15:45:24.312500,15.51
15:45:24.328125,17.49
15:45:24.343750,17.05
15:45:24.359375,13.59
15:45:24.375000,7.38
15:45:24.390625,-0.47
15:45:24.406250,-8.65
15:45:24.421875,-16.20
15:45:24.437500,-23.12
15:45:24.453125,-30.19
15:45:24.468750,-38.49
15:45:24.484375,-48.57
15:45:24.500000,-59.93
15:45:24.515625,-70.97
15:45:24.531250,-79.48
15:45:24.546875,-83.45
15:45:24.562500,-81.67
15:45:24.578125,-74.05
15:45:24.593750,-61.54
15:45:24.609375,-45.64
15:45:24.625000,-27.96
15:45:24.640625,-9.81
15:45:24.656250,7.99
15:45:24.671875,24.76
15:45:24.687500,39.77
15:45:24.703125,52.05
15:45:24.718750,60.54
15:45:24.734375,64.56
15:45:24.750000,64.16
15:45:24.765625,60.32
15:45:24.781250,54.65
15:45:24.796875,48.81
15:45:24.812500,43.91
15:45:24.828125,40.28
15:45:24.843750,37.56
15:45:24.859375,35.14
15:45:24.875000,32.56
15:45:24.890625,29.67
15:45:24.906250,26.56
15:45:24.921875,23.33
15:45:24.937500,19.90
15:45:24.953125,16.02
15:45:24.968750,11.30
15:45:24.984375,5.46
15:45:25,-1.55
15:45:25.015625,-9.50
15:45:25.031250,-17.88
15:45:25.046875,-25.92
15:45:25.062500,-32.72
15:45:25.078125,-37.41
15:45:25.093750,-39.56
15:45:25.109375,-39.41
15:45:25.125000,-38.00
15:45:25.140625,-36.86
15:45:25.156250,-37.40
15:45:25.171875,-40.23
15:45:25.187500,-44.72
15:45:25.203125,-49.06
15:45:25.218750,-50.95
15:45:25.234375,-48.41
15:45:25.250000,-40.50
15:45:25.265625,-27.63
15:45:25.281250,-11.24
15:45:25.296875,6.74
15:45:25.312500,24.43
15:45:25.328125,40.40
15:45:25.343750,53.74
15:45:25.359375,64.07
15:45:25.375000,71.34
15:45:25.390625,75.79
15:45:25.406250,77.86
15:45:25.421875,78.03
15:45:25.437500,76.77
15:45:25.453125,74.41
15:45:25.468750,71.09
15:45:25.484375,66.78
15:45:25.500000,61.34
15:45:25.515625,54.75
15:45:25.531250,47.18
15:45:25.546875,39.03
15:45:25.562500,31.00
15:45:25.578125,23.85
15:45:25.593750,18.29
15:45:25.609375,14.77
15:45:25.625000,13.27
15:45:25.640625,13.27
15:45:25.656250,13.87
15:45:25.671875,14.03
15:45:25.687500,12.93
15:45:25.703125,10.29
15:45:25.718750,6.46
15:45:25.734375,2.30
15:45:25.750000,-1.18
15:45:25.765625,-3.25
15:45:25.781250,-3.66
15:45:25.796875,-2.69
15:45:25.812500,-0.99
15:45:25.828125,0.69
15:45:25.843750,1.58
15:45:25.859375,0.97
15:45:25.875000,-1.68
15:45:25.890625,-6.55
15:45:25.906250,-13.13
15:45:25.921875,-19.99
15:45:25.937500,-24.93
15:45:25.953125,-25.50
15:45:25.968750,-19.90
15:45:25.984375,-7.61
15:45:26,10.21
15:45:26.015625,31.15
15:45:26.031250,52.20
15:45:26.046875,70.70
15:45:26.062500,84.93
15:45:26.078125,94.27
15:45:26.093750,99.04
15:45:26.109375,100.05
15:45:26.125000,98.23
15:45:26.140625,94.34
15:45:26.156250,88.90
15:45:26.171875,82.30
15:45:26.187500,74.93
15:45:26.203125,67.38
15:45:26.218750,60.37
15:45:26.234375,54.67
15:45:26.250000,50.79
15:45:26.265625,48.65
15:45:26.281250,47.60
15:45:26.296875,46.41
15:45:26.312500,43.75
15:45:26.328125,38.47
15:45:26.343750,29.90
15:45:26.359375,17.82
15:45:26.375000,2.47
15:45:26.390625,-15.58
15:45:26.406250,-35.38
15:45:26.421875,-55.63
15:45:26.437500,-74.88
15:45:26.453125,-91.79
15:45:26.468750,-105.54
15:45:26.484375,-115.94
15:45:26.500000,-123.39
15:45:26.515625,-128.50
15:45:26.531250,-131.81
15:45:26.546875,-133.75
15:45:26.562500,-134.74
15:45:26.578125,-135.37
15:45:26.593750,-136.43
15:45:26.609375,-138.72
15:45:26.625000,-142.56
15:45:26.640625,-147.47
15:45:26.656250,-152.11
15:45:26.671875,-154.41
15:45:26.687500,-152.33
15:45:26.703125,-144.40
15:45:26.718750,-130.34
15:45:26.734375,-111.19
15:45:26.750000,-89.06
15:45:26.765625,-66.54
15:45:26.781250,-45.76
15:45:26.796875,-27.91
15:45:26.812500,-13.06
15:45:26.828125,-0.56
15:45:26.843750,10.31
15:45:26.859375,19.72
15:45:26.875000,27.22
15:45:26.890625,32.05
15:45:26.906250,33.87
15:45:26.921875,33.19
15:45:26.937500,31.41
15:45:26.953125,30.49
15:45:26.968750,32.11
15:45:26.984375,37.14
15:45:27,45.25
15:45:27.015625,55.08
15:45:27.031250,64.74
15:45:27.046875,72.48
15:45:27.062500,77.16
15:45:27.078125,78.46
15:45:27.093750,76.76
15:45:27.109375,72.76
15:45:27.125000,67.16
15:45:27.140625,60.38
15:45:27.156250,52.61
15:45:27.171875,43.95
15:45:27.187500,34.67
15:45:27.203125,25.23
15:45:27.218750,16.27
15:45:27.234375,8.30
15:45:27.250000,1.52
15:45:27.265625,-4.31
15:45:27.281250,-9.83
15:45:27.296875,-15.81
15:45:27.312500,-22.92
15:45:27.328125,-31.48
15:45:27.343750,-41.36
15:45:27.359375,-51.89
15:45:27.375000,-61.92
15:45:27.390625,-69.92
15:45:27.406250,-74.26
15:45:27.421875,-73.55
15:45:27.437500,-67.10
15:45:27.453125,-55.24
15:45:27.468750,-39.28
15:45:27.484375,-21.25
15:45:27.500000,-3.30
15:45:27.515625,12.88
15:45:27.531250,26.26
15:45:27.546875,36.48
15:45:27.562500,43.57
15:45:27.578125,47.71
15:45:27.593750,49.10
15:45:27.609375,48.04
15:45:27.625000,45.02
15:45:27.640625,40.79
15:45:27.656250,36.19
15:45:27.671875,31.99
15:45:27.687500,28.76
15:45:27.703125,26.66
15:45:27.718750,25.60
15:45:27.734375,25.24
15:45:27.750000,25.25
15:45:27.765625,25.34
15:45:27.781250,25.37
15:45:27.796875,25.38
15:45:27.812500,25.38
15:45:27.828125,25.36
15:45:27.843750,25.09
15:45:27.859375,24.15
15:45:27.875000,22.07
15:45:27.890625,18.46
15:45:27.906250,13.22
15:45:27.921875,6.64
15:45:27.937500,-0.70
15:45:27.953125,-8.09
15:45:27.968750,-14.84
15:45:27.984375,-20.65
15:45:28,-25.56
15:45:28.015625,-30.05
15:45:28.031250,-34.83
15:45:28.046875,-40.60
15:45:28.062500,-47.81
15:45:28.078125,-56.34
15:45:28.093750,-65.44
15:45:28.109375,-73.79
15:45:28.125000,-79.63
15:45:28.140625,-81.28
15:45:28.156250,-77.54
15:45:28.171875,-68.15
15:45:28.187500,-53.90
15:45:28.203125,-36.53
15:45:28.218750,-18.23
15:45:28.234375,-1.12
15:45:28.250000,13.25
15:45:28.265625,24.11
15:45:28.281250,31.39
15:45:28.296875,35.47
15:45:28.312500,36.87
15:45:28.328125,36.15
15:45:28.343750,33.89
15:45:28.359375,30.69
15:45:28.375000,27.23
15:45:28.390625,24.14
15:45:28.406250,21.93
15:45:28.421875,20.82
15:45:28.437500,20.77
15:45:28.453125,21.49
15:45:28.468750,22.60
15:45:28.484375,23.74
15:45:28.500000,24.67
15:45:28.515625,25.32
15:45:28.531250,25.70
15:45:28.546875,25.83
15:45:28.562500,25.55
15:45:28.578125,24.53
15:45:28.593750,22.36
15:45:28.609375,18.70
15:45:28.625000,13.46
15:45:28.640625,6.91
15:45:28.656250,-0.38
15:45:28.671875,-7.73
15:45:28.687500,-14.56
15:45:28.703125,-20.60
15:45:28.718750,-25.88
15:45:28.734375,-30.74
15:45:28.750000,-35.71
15:45:28.765625,-41.30
15:45:28.781250,-47.88
15:45:28.796875,-55.37
15:45:28.812500,-63.07
15:45:28.828125,-69.59
15:45:28.843750,-73.09
15:45:28.859375,-71.80
15:45:28.875000,-64.69
15:45:28.890625,-51.92
15:45:28.906250,-34.91
15:45:28.921875,-15.90
15:45:28.937500,2.69
15:45:28.953125,18.99
15:45:28.968750,31.96
15:45:28.984375,41.36
15:45:29,47.42
15:45:29.015625,50.47
15:45:29.031250,50.83
15:45:29.046875,48.81
15:45:29.062500,44.96
15:45:29.078125,40.00
15:45:29.093750,34.83
15:45:29.109375,30.25
15:45:29.125000,26.76
15:45:29.140625,24.45
15:45:29.156250,23.08
15:45:29.171875,22.27
15:45:29.187500,21.70
15:45:29.203125,21.21
15:45:29.218750,20.82
15:45:29.234375,20.51
15:45:29.250000,20.18
15:45:29.265625,19.53
15:45:29.281250,18.15
15:45:29.296875,15.69
15:45:29.312500,11.99
15:45:29.328125,7.23
15:45:29.343750,1.86
15:45:29.359375,-3.59
15:45:29.375000,-8.70
15:45:29.390625,-13.28
15:45:29.406250,-17.42
15:45:29.421875,-21.42
15:45:29.437500,-25.71
15:45:29.453125,-30.74
15:45:29.468750,-36.99
15:45:29.484375,-44.73
15:45:29.500000,-53.76
15:45:29.515625,-63.24
15:45:29.531250,-71.61
15:45:29.546875,-76.82
15:45:29.562500,-76.94
15:45:29.578125,-70.77
15:45:29.593750,-58.44
15:45:29.609375,-41.40
15:45:29.625000,-22.05
15:45:29.640625,-2.98
15:45:29.656250,13.71
15:45:29.671875,26.85
15:45:29.687500,36.21
15:45:29.703125,42.22
15:45:29.718750,45.55
15:45:29.734375,46.83
15:45:29.750000,46.57
15:45:29.765625,45.12
15:45:29.781250,42.85
15:45:29.796875,40.13
15:45:29.812500,37.29
15:45:29.828125,34.67
15:45:29.843750,32.46
15:45:29.859375,30.73
15:45:29.875000,29.42
15:45:29.890625,28.41
15:45:29.906250,27.54
15:45:29.921875,26.70
15:45:29.937500,25.78
15:45:29.953125,24.63
15:45:29.968750,23.04
15:45:29.984375,20.66
15:45:30,17.11
15:45:30.015625,12.07
15:45:30.031250,5.54
15:45:30.046875,-2.12
15:45:30.062500,-10.21
15:45:30.078125,-17.91
15:45:30.093750,-24.57
15:45:30.109375,-29.95
15:45:30.125000,-34.34
15:45:30.140625,-38.43
15:45:30.156250,-43.16
15:45:30.171875,-49.37
15:45:30.187500,-57.45
15:45:30.203125,-66.99
15:45:30.218750,-76.68
15:45:30.234375,-84.45
15:45:30.250000,-87.96
15:45:30.265625,-85.39
15:45:30.281250,-76.08
15:45:30.296875,-60.89
15:45:30.312500,-41.98
15:45:30.328125,-22.13
15:45:30.343750,-3.94
15:45:30.359375,10.88
15:45:30.375000,21.77
15:45:30.390625,29.10
15:45:30.406250,33.75
15:45:30.421875,36.78
15:45:30.437500,39.19
15:45:30.453125,41.93
15:45:30.468750,45.71
15:45:30.484375,50.69
15:45:30.500000,56.19
15:45:30.515625,60.66
15:45:30.531250,62.18
15:45:30.546875,59.36
15:45:30.562500,52.09
15:45:30.578125,41.88
15:45:30.593750,31.30
15:45:30.609375,22.91
15:45:30.625000,18.19
15:45:30.640625,17.03
15:45:30.656250,18.11
15:45:30.671875,19.60
15:45:30.687500,20.04
15:45:30.703125,18.81
15:45:30.718750,15.93
15:45:30.734375,11.84
15:45:30.750000,6.99
15:45:30.765625,1.70
15:45:30.781250,-3.84
15:45:30.796875,-9.52
15:45:30.812500,-15.42
15:45:30.828125,-21.80
15:45:30.843750,-29.00
15:45:30.859375,-37.33
15:45:30.875000,-46.70
15:45:30.890625,-56.38
15:45:30.906250,-64.91
15:45:30.921875,-70.32
15:45:30.937500,-70.73
15:45:30.953125,-65.00
15:45:30.968750,-53.31
15:45:30.984375,-37.23
15:45:31,-19.32
15:45:31.015625,-2.30
15:45:31.031250,11.79
15:45:31.046875,22.10
15:45:31.062500,28.94
15:45:31.078125,33.28
15:45:31.093750,36.13
15:45:31.109375,38.10
15:45:31.125000,39.33
15:45:31.140625,39.69
15:45:31.156250,39.09
15:45:31.171875,37.64
15:45:31.187500,35.61
15:45:31.203125,33.29
15:45:31.218750,30.85
15:45:31.234375,28.38
15:45:31.250000,25.99
15:45:31.265625,23.94
15:45:31.281250,22.57
15:45:31.296875,22.21
15:45:31.312500,22.91
15:45:31.328125,24.30
15:45:31.343750,25.63
15:45:31.359375,25.97
15:45:31.375000,24.58
15:45:31.390625,21.17
15:45:31.406250,15.99
15:45:31.421875,9.77
15:45:31.437500,3.38
15:45:31.453125,-2.50
15:45:31.468750,-7.57
15:45:31.484375,-11.96
15:45:31.500000,-16.19
15:45:31.515625,-20.96
15:45:31.531250,-26.90
15:45:31.546875,-34.32
15:45:31.562500,-42.99
15:45:31.578125,-52.00
15:45:31.593750,-59.77
15:45:31.609375,-64.39
15:45:31.625000,-64.15
15:45:31.640625,-58.04
15:45:31.656250,-46.24
15:45:31.671875,-30.10
15:45:31.687500,-11.82
15:45:31.703125,6.20
15:45:31.718750,21.95
15:45:31.734375,34.18
15:45:31.750000,42.51
15:45:31.765625,47.18
15:45:31.781250,48.76
15:45:31.796875,47.91
15:45:31.812500,45.29
15:45:31.828125,41.53
15:45:31.843750,37.21
15:45:31.859375,32.86
15:45:31.875000,28.92
15:45:31.890625,25.67
15:45:31.906250,23.18
15:45:31.921875,21.37
15:45:31.937500,20.07
15:45:31.953125,19.15
15:45:31.968750,18.52
15:45:31.984375,18.07
15:45:32,17.63
15:45:32.015625,16.88
15:45:32.031250,15.37
15:45:32.046875,12.72
15:45:32.062500,8.74
15:45:32.078125,3.56
15:45:32.093750,-2.40
15:45:32.109375,-8.58
15:45:32.125000,-14.52
15:45:32.140625,-20.08
15:45:32.156250,-25.46
15:45:32.171875,-31.16
15:45:32.187500,-37.78
15:45:32.203125,-45.75
15:45:32.218750,-55.03
15:45:32.234375,-64.89
15:45:32.250000,-73.89
15:45:32.265625,-80.09
15:45:32.281250,-81.51
15:45:32.296875,-76.76
15:45:32.312500,-65.52
15:45:32.328125,-48.76
15:45:32.343750,-28.52
15:45:32.359375,-7.38
15:45:32.375000,12.20
15:45:32.390625,28.46
15:45:32.406250,40.59
15:45:32.421875,48.67
15:45:32.437500,53.37
15:45:32.453125,55.59
15:45:32.468750,56.08
15:45:32.484375,55.33
15:45:32.500000,53.58
15:45:32.515625,50.86
15:45:32.531250,47.22
15:45:32.546875,42.72
15:45:32.562500,37.47
15:45:32.578125,31.59
15:45:32.593750,25.20
15:45:32.609375,18.39
15:45:32.625000,11.35
15:45:32.640625,4.28
15:45:32.656250,-2.62
15:45:32.671875,-9.27
15:45:32.687500,-15.79
15:45:32.703125,-22.42
15:45:32.718750,-29.31
15:45:32.734375,-36.31
15:45:32.750000,-42.83
15:45:32.765625,-47.95
15:45:32.781250,-50.70
15:45:32.796875,-50.54
15:45:32.812500,-47.61
15:45:32.828125,-42.83
15:45:32.843750,-37.69
15:45:32.859375,-33.70
15:45:32.875000,-31.82
15:45:32.890625,-32.04
15:45:32.906250,-33.33
15:45:32.921875,-34.01
15:45:32.937500,-32.47
15:45:32.953125,-27.84
15:45:32.968750,-20.24
15:45:32.984375,-10.75
15:45:33,-0.84
15:45:33.015625,8.12
15:45:33.031250,15.32
15:45:33.046875,20.48
15:45:33.062500,23.75
15:45:33.078125,25.33
15:45:33.093750,25.40
15:45:33.109375,24.09
15:45:33.125000,21.69
15:45:33.140625,18.68
15:45:33.156250,15.80
15:45:33.171875,13.88
15:45:33.187500,13.64
15:45:33.203125,15.52
15:45:33.218750,19.57
15:45:33.234375,25.31
15:45:33.250000,31.73
15:45:33.265625,37.31
15:45:33.281250,40.42
15:45:33.296875,39.62
15:45:33.312500,34.33
15:45:33.328125,25.08
15:45:33.343750,13.41
15:45:33.359375,1.39
15:45:33.375000,-9.06
15:45:33.390625,-16.67
15:45:33.406250,-21.06
15:45:33.421875,-22.74
15:45:33.437500,-22.88
15:45:33.453125,-23.05
15:45:33.468750,-24.80
15:45:33.484375,-29.07
15:45:33.500000,-35.75
15:45:33.515625,-43.41
15:45:33.531250,-49.56
15:45:33.546875,-51.47
15:45:33.562500,-47.17
15:45:33.578125,-36.29
15:45:33.593750,-20.18
15:45:33.609375,-1.37
15:45:33.625000,17.34
15:45:33.640625,33.73
15:45:33.656250,46.63
15:45:33.671875,55.83
15:45:33.687500,61.73
15:45:33.703125,64.99
15:45:33.718750,66.27
15:45:33.734375,66.26
15:45:33.750000,65.62
15:45:33.765625,64.92
15:45:33.781250,64.49
15:45:33.796875,64.20
15:45:33.812500,63.42
15:45:33.828125,61.40
15:45:33.843750,57.60
15:45:33.859375,52.19
15:45:33.875000,46.05
15:45:33.890625,40.41
15:45:33.906250,36.22
15:45:33.921875,33.62
15:45:33.937500,31.82
15:45:33.953125,29.49
15:45:33.968750,25.41
15:45:33.984375,18.94
15:45:34,10.17
15:45:34.015625,-0.26
15:45:34.031250,-11.61
15:45:34.046875,-23.16
15:45:34.062500,-34.21
15:45:34.078125,-43.91
15:45:34.093750,-51.10
15:45:34.109375,-54.44
15:45:34.125000,-52.81
15:45:34.140625,-45.72
15:45:34.156250,-33.81
15:45:34.171875,-18.90
15:45:34.187500,-3.59
15:45:34.203125,9.31
15:45:34.218750,17.53
15:45:34.234375,19.70
15:45:34.250000,15.46
15:45:34.265625,5.27
15:45:34.281250,-9.88
15:45:34.296875,-28.60
15:45:34.312500,-49.18
15:45:34.328125,-69.65
15:45:34.343750,-87.97
15:45:34.359375,-102.32
15:45:34.375000,-111.33
15:45:34.390625,-114.22
15:45:34.406250,-110.76
15:45:34.421875,-101.36
15:45:34.437500,-87.16
15:45:34.453125,-70.10
15:45:34.468750,-52.70
15:45:34.484375,-37.45
15:45:34.500000,-26.02
15:45:34.515625,-18.62
15:45:34.531250,-14.20
15:45:34.546875,-11.02
15:45:34.562500,-7.86
15:45:34.578125,-4.66
15:45:34.593750,-2.54
15:45:34.609375,-3.17
15:45:34.625000,-7.86
15:45:34.640625,-16.91
15:45:34.656250,-29.69
15:45:34.671875,-44.91
15:45:34.687500,-60.95
15:45:34.703125,-76.08
15:45:34.718750,-88.37
15:45:34.734375,-95.74
15:45:34.750000,-96.40
15:45:34.765625,-89.51
15:45:34.781250,-75.79
15:45:34.796875,-57.58
15:45:34.812500,-38.22
15:45:34.828125,-20.81
15:45:34.843750,-7.09
15:45:34.859375,3.06
15:45:34.875000,11.20
15:45:34.890625,19.23
15:45:34.906250,28.30
15:45:34.921875,38.35
15:45:34.937500,48.51
15:45:34.953125,58.00
15:45:34.968750,66.83
15:45:34.984375,75.88
15:45:35,86.24
15:45:35.015625,98.40
15:45:35.031250,111.70
15:45:35.046875,124.73
15:45:35.062500,135.98
15:45:35.078125,144.77
15:45:35.093750,151.38
15:45:35.109375,156.59
15:45:35.125000,160.96
15:45:35.140625,164.23
15:45:35.156250,165.30
15:45:35.171875,162.75
15:45:35.187500,155.61
15:45:35.203125,143.76
15:45:35.218750,127.98
15:45:35.234375,109.54
15:45:35.250000,89.72
15:45:35.265625,69.58
15:45:35.281250,49.92
15:45:35.296875,31.47
15:45:35.312500,15.03
15:45:35.328125,1.41
15:45:35.343750,-8.84
15:45:35.359375,-15.62
15:45:35.375000,-19.42
15:45:35.390625,-21.13
15:45:35.406250,-21.80
15:45:35.421875,-22.40
15:45:35.437500,-23.69
15:45:35.453125,-26.31
15:45:35.468750,-30.68
15:45:35.484375,-37.01
15:45:35.500000,-45.15
15:45:35.515625,-54.41
15:45:35.531250,-63.58
15:45:35.546875,-71.21
15:45:35.562500,-76.10
15:45:35.578125,-77.60
15:45:35.593750,-75.79
15:45:35.609375,-71.36
15:45:35.625000,-65.23
15:45:35.640625,-58.21
15:45:35.656250,-50.81
15:45:35.671875,-43.23
15:45:35.687500,-35.60
15:45:35.703125,-28.11
15:45:35.718750,-21.15
15:45:35.734375,-15.28
15:45:35.750000,-11.17
15:45:35.765625,-9.47
15:45:35.781250,-10.65
15:45:35.796875,-14.88
15:45:35.812500,-21.72
15:45:35.828125,-29.99
15:45:35.843750,-37.80
15:45:35.859375,-42.84
15:45:35.875000,-43.13
15:45:35.890625,-37.62
15:45:35.906250,-26.67
15:45:35.921875,-11.88
15:45:35.937500,4.44
15:45:35.953125,20.07
15:45:35.968750,33.45
15:45:35.984375,43.89
15:45:36,51.36
15:45:36.015625,56.03
15:45:36.031250,57.97
15:45:36.046875,57.08
15:45:36.062500,53.27
15:45:36.078125,46.77
15:45:36.093750,38.25
15:45:36.109375,28.83
15:45:36.125000,19.74
15:45:36.140625,12.05
15:45:36.156250,6.30
15:45:36.171875,2.44
15:45:36.187500,-0.09
15:45:36.203125,-2.05
15:45:36.218750,-4.04
15:45:36.234375,-6.22
15:45:36.250000,-8.35
15:45:36.265625,-10.01
15:45:36.281250,-10.96
15:45:36.296875,-11.48
15:45:36.312500,-12.44
15:45:36.328125,-15.09
15:45:36.343750,-20.65
15:45:36.359375,-29.87
15:45:36.375000,-42.74
15:45:36.390625,-58.30
15:45:36.406250,-74.71
15:45:36.421875,-89.37
15:45:36.437500,-99.38
15:45:36.453125,-102.06
15:45:36.468750,-95.80
15:45:36.484375,-80.65
15:45:36.500000,-58.48
15:45:36.515625,-32.53
15:45:36.531250,-6.52
15:45:36.546875,16.48
15:45:36.562500,34.66
15:45:36.578125,47.59
15:45:36.593750,55.85
15:45:36.609375,60.38
15:45:36.625000,62.11
15:45:36.640625,61.85
15:45:36.656250,60.29
15:45:36.671875,58.12
15:45:36.687500,55.95
15:45:36.703125,54.07
15:45:36.718750,52.36
15:45:36.734375,50.30
15:45:36.750000,47.09
15:45:36.765625,42.02
15:45:36.781250,34.68
15:45:36.796875,25.20
15:45:36.812500,14.19
15:45:36.828125,2.66
15:45:36.843750,-8.32
15:45:36.859375,-17.98
15:45:36.875000,-26.06
15:45:36.890625,-33.04
15:45:36.906250,-39.88
15:45:36.921875,-47.70
15:45:36.937500,-57.22
15:45:36.953125,-68.34
15:45:36.968750,-79.88
15:45:36.984375,-89.71
15:45:37,-95.33
15:45:37.015625,-94.54
15:45:37.031250,-86.22
15:45:37.046875,-70.71
15:45:37.062500,-49.79
15:45:37.078125,-26.16
15:45:37.093750,-2.65
15:45:37.109375,18.45
15:45:37.125000,35.73
15:45:37.140625,48.65
15:45:37.156250,57.19
15:45:37.171875,61.58
15:45:37.187500,62.10
15:45:37.203125,59.14
15:45:37.218750,53.39
15:45:37.234375,45.84
15:45:37.250000,37.77
15:45:37.265625,30.51
15:45:37.281250,25.15
15:45:37.296875,22.30
15:45:37.312500,22.14
15:45:37.328125,24.47
15:45:37.343750,29.05
15:45:37.359375,35.66
15:45:37.375000,44.11
15:45:37.390625,53.92
15:45:37.406250,64.10
15:45:37.421875,72.98
15:45:37.437500,78.60
15:45:37.453125,79.13
15:45:37.468750,73.46
15:45:37.484375,61.50
15:45:37.500000,44.08
15:45:37.515625,22.61
15:45:37.531250,-1.23
15:45:37.546875,-25.58
15:45:37.562500,-48.38
15:45:37.578125,-67.38
15:45:37.593750,-80.44
15:45:37.609375,-86.03
15:45:37.625000,-83.65
15:45:37.640625,-74.03
15:45:37.656250,-58.89
15:45:37.671875,-40.42
15:45:37.687500,-20.86
15:45:37.703125,-2.23
15:45:37.718750,13.74
15:45:37.734375,25.66
15:45:37.750000,32.59
15:45:37.765625,34.24
15:45:37.781250,31.23
15:45:37.796875,25.02
15:45:37.812500,17.65
15:45:37.828125,11.15
15:45:37.843750,7.00
15:45:37.859375,5.77
15:45:37.875000,7.05
15:45:37.890625,9.75
15:45:37.906250,12.52
15:45:37.921875,14.28
15:45:37.937500,14.54
15:45:37.953125,13.35
15:45:37.968750,11.14
15:45:37.984375,8.37
15:45:38,5.24
15:45:38.015625,1.65
15:45:38.031250,-2.73
15:45:38.046875,-8.22
15:45:38.062500,-14.95
15:45:38.078125,-22.87
15:45:38.093750,-31.77
15:45:38.109375,-41.46
15:45:38.125000,-51.77
15:45:38.140625,-62.46
15:45:38.156250,-72.91
15:45:38.171875,-81.87
15:45:38.187500,-87.48
15:45:38.203125,-87.60
15:45:38.218750,-80.66
15:45:38.234375,-66.39
15:45:38.250000,-46.29
15:45:38.265625,-23.36
15:45:38.281250,-1.11
15:45:38.296875,17.62
15:45:38.312500,31.56
15:45:38.328125,41.08
15:45:38.343750,47.54
15:45:38.359375,52.28
15:45:38.375000,55.85
15:45:38.390625,57.95
15:45:38.406250,57.93
15:45:38.421875,55.56
15:45:38.437500,51.55
15:45:38.453125,47.40
15:45:38.468750,44.79
15:45:38.484375,44.71
15:45:38.500000,47.04
15:45:38.515625,50.61
15:45:38.531250,53.79
15:45:38.546875,55.23
15:45:38.562500,54.41
15:45:38.578125,51.68
15:45:38.593750,47.95
15:45:38.609375,44.28
15:45:38.625000,41.41
15:45:38.640625,39.53
15:45:38.656250,38.22
15:45:38.671875,36.43
15:45:38.687500,32.65
15:45:38.703125,25.15
15:45:38.718750,12.59
15:45:38.734375,-5.46
15:45:38.750000,-28.07
15:45:38.765625,-52.90
15:45:38.781250,-76.68
15:45:38.796875,-95.87
15:45:38.812500,-107.52
15:45:38.828125,-109.88
15:45:38.843750,-102.79
15:45:38.859375,-87.60
15:45:38.875000,-66.87
15:45:38.890625,-43.72
15:45:38.906250,-21.01
15:45:38.921875,-0.60
15:45:38.937500,16.97
15:45:38.953125,32.23
15:45:38.968750,45.99
15:45:38.984375,58.40
15:45:39,68.62
15:45:39.015625,75.10
15:45:39.031250,76.62
15:45:39.046875,73.27
15:45:39.062500,66.77
15:45:39.078125,59.80
15:45:39.093750,54.80
15:45:39.109375,52.95
15:45:39.125000,53.72
15:45:39.140625,55.44
15:45:39.156250,56.07
15:45:39.171875,53.87
15:45:39.187500,47.78
15:45:39.203125,37.30
15:45:39.218750,22.56
15:45:39.234375,4.43
15:45:39.250000,-15.27
15:45:39.265625,-34.03
15:45:39.281250,-49.30
15:45:39.296875,-59.51
15:45:39.312500,-64.64
15:45:39.328125,-66.12
15:45:39.343750,-65.96
15:45:39.359375,-65.77
15:45:39.375000,-66.23
15:45:39.390625,-67.15
15:45:39.406250,-67.94
15:45:39.421875,-68.03
15:45:39.437500,-66.95
15:45:39.453125,-64.17
15:45:39.468750,-58.96
15:45:39.484375,-50.56
15:45:39.500000,-38.72
15:45:39.515625,-24.16
15:45:39.531250,-8.57
15:45:39.546875,5.92
15:45:39.562500,17.47
15:45:39.578125,25.06
15:45:39.593750,28.51
15:45:39.609375,28.38
15:45:39.625000,25.69
15:45:39.640625,21.47
15:45:39.656250,16.39
15:45:39.671875,10.81
15:45:39.687500,4.97
15:45:39.703125,-0.81
15:45:39.718750,-6.15
15:45:39.734375,-10.82
15:45:39.750000,-14.50
15:45:39.765625,-16.70
15:45:39.781250,-17.35
15:45:39.796875,-17.25
15:45:39.812500,-17.95
15:45:39.828125,-20.89
15:45:39.843750,-26.57
15:45:39.859375,-34.38
15:45:39.875000,-42.98
15:45:39.890625,-50.70
15:45:39.906250,-55.37
15:45:39.921875,-55.54
15:45:39.937500,-51.51
15:45:39.953125,-45.14
15:45:39.968750,-39.05
15:45:39.984375,-35.51
15:45:40,-35.93
15:45:40.015625,-40.54
15:45:40.031250,-48.04
15:45:40.046875,-54.20
15:45:40.062500,-53.75
15:45:40.078125,-42.20
15:45:40.093750,-16.77
15:45:40.109375,24.02
15:45:40.125000,81.03
15:45:40.140625,154.51
15:45:40.156250,235.90
15:45:40.171875,310.09
15:45:40.187500,361.77
15:45:40.203125,382.33
15:45:40.218750,373.56
15:45:40.234375,344.07
15:45:40.250000,303.27
15:45:40.265625,257.69
15:45:40.281250,210.24
15:45:40.296875,167.40
15:45:40.312500,126.44
15:45:40.328125,87.56
15:45:40.343750,54.08
15:45:40.359375,29.80
15:45:40.375000,16.47
15:45:40.390625,12.64
15:45:40.406250,14.37
15:45:40.421875,17.04
15:45:40.437500,16.63
15:45:40.453125,11.33
15:45:40.468750,3.17
15:45:40.484375,-4.59
15:45:40.500000,-9.72
15:45:40.515625,-12.19
15:45:40.531250,-13.80
15:45:40.546875,-16.73
15:45:40.562500,-22.18
15:45:40.578125,-29.85
15:45:40.593750,-38.33
15:45:40.609375,-45.15
15:45:40.625000,-48.32
15:45:40.640625,-47.36
15:45:40.656250,-43.27
15:45:40.671875,-37.73
15:45:40.687500,-32.00
15:45:40.703125,-26.27
15:45:40.718750,-19.71
15:45:40.734375,-11.24
15:45:40.750000,-0.98
15:45:40.765625,10.40
15:45:40.781250,21.86
15:45:40.796875,32.52
15:45:40.812500,41.87
15:45:40.828125,49.59
15:45:40.843750,55.64
15:45:40.859375,60.19
15:45:40.875000,63.30
15:45:40.890625,62.06
15:45:40.906250,54.31
15:45:40.921875,40.08
15:45:40.937500,22.27
15:45:40.953125,5.20
15:45:40.968750,-7.65
15:45:40.984375,-14.88
15:45:41,-17.38
15:45:41.015625,-17.85
15:45:41.031250,-24.85
15:45:41.046875,-45.20
15:45:41.062500,-81.11
15:45:41.078125,-128.90
15:45:41.093750,-181.69
15:45:41.109375,-233.27
15:45:41.125000,-280.23
15:45:41.140625,-322.01
15:45:41.156250,-360.34
15:45:41.171875,-404.95
15:45:41.187500,-464.01
15:45:41.203125,-540.35
15:45:41.218750,-629.41
15:45:41.234375,-722.41
15:45:41.250000,-810.88
15:45:41.265625,-889.31
15:45:41.281250,-955.25
15:45:41.296875,-965.96
15:45:41.312500,-895.99
15:45:41.328125,-746.86
15:45:41.343750,-549.04
15:45:41.359375,-341.59
15:45:41.375000,-152.87
15:45:41.390625,3.94
15:45:41.406250,126.19
15:45:41.421875,217.14
15:45:41.437500,283.04
15:45:41.453125,322.88
15:45:41.468750,339.87
15:45:41.484375,337.51
15:45:41.500000,321.45
15:45:41.515625,298.14
15:45:41.531250,273.19
15:45:41.546875,251.31
15:45:41.562500,236.56
15:45:41.578125,231.79
15:45:41.593750,232.41
15:45:41.609375,231.45
15:45:41.625000,222.26
15:45:41.640625,201.43
15:45:41.656250,169.13
15:45:41.671875,128.36
15:45:41.687500,84.37
15:45:41.703125,43.83
15:45:41.718750,13.26
15:45:41.734375,-5.76
15:45:41.750000,-13.35
15:45:41.765625,-10.24
15:45:41.781250,3.75
15:45:41.796875,28.92
15:45:41.812500,64.22
15:45:41.828125,106.42
15:45:41.843750,150.69
15:45:41.859375,191.54
15:45:41.875000,222.60
15:45:41.890625,239.83
15:45:41.906250,242.63
15:45:41.921875,234.14
15:45:41.937500,219.49
15:45:41.953125,203.44
15:45:41.968750,188.76
15:45:41.984375,175.85
15:45:42,163.35
15:45:42.015625,148.99
15:45:42.031250,131.57
15:45:42.046875,111.77
15:45:42.062500,91.96
15:45:42.078125,74.96
15:45:42.093750,62.53
15:45:42.109375,54.73
15:45:42.125000,50.27
15:45:42.140625,47.37
15:45:42.156250,44.71
15:45:42.171875,41.95
15:45:42.187500,39.46
15:45:42.203125,37.76
15:45:42.218750,37.04
15:45:42.234375,36.76
15:45:42.250000,35.88
15:45:42.265625,33.37
15:45:42.281250,28.56
15:45:42.296875,21.51
15:45:42.312500,12.84
15:45:42.328125,3.34
15:45:42.343750,-6.52
15:45:42.359375,-16.89
15:45:42.375000,-28.55
15:45:42.390625,-42.49
15:45:42.406250,-59.10
15:45:42.421875,-77.62
15:45:42.437500,-95.92
15:45:42.453125,-110.96
15:45:42.468750,-119.82
15:45:42.484375,-120.77
15:45:42.500000,-113.80
15:45:42.515625,-100.47
15:45:42.531250,-83.12
15:45:42.546875,-63.91
15:45:42.562500,-44.30
15:45:42.578125,-25.05
15:45:42.593750,-6.61
15:45:42.609375,10.46
15:45:42.625000,25.45
15:45:42.640625,37.64
15:45:42.656250,46.75
15:45:42.671875,53.08
15:45:42.687500,57.41
15:45:42.703125,60.74
15:45:42.718750,64.00
15:45:42.734375,67.68
15:45:42.750000,71.79
15:45:42.765625,75.76
15:45:42.781250,78.67
15:45:42.796875,79.54
15:45:42.812500,77.83
15:45:42.828125,73.65
15:45:42.843750,67.81
15:45:42.859375,61.40
15:45:42.875000,55.24
15:45:42.890625,49.43
15:45:42.906250,43.33
15:45:42.921875,35.93
15:45:42.937500,26.41
15:45:42.953125,14.53
15:45:42.968750,0.66
15:45:42.984375,-14.44
15:45:43,-29.93
15:45:43.015625,-45.00
15:45:43.031250,-58.71
15:45:43.046875,-69.96
15:45:43.062500,-77.45
15:45:43.078125,-80.05
15:45:43.093750,-77.28
15:45:43.109375,-69.58
15:45:43.125000,-58.31
15:45:43.140625,-45.40
15:45:43.156250,-32.79
15:45:43.171875,-21.92
15:45:43.187500,-13.64
15:45:43.203125,-8.24
15:45:43.218750,-5.65
15:45:43.234375,-5.70
15:45:43.250000,-8.14
15:45:43.265625,-12.52
15:45:43.281250,-18.14
15:45:43.296875,-24.00
15:45:43.312500,-29.01
15:45:43.328125,-32.26
15:45:43.343750,-33.28
15:45:43.359375,-32.18
15:45:43.375000,-29.54
15:45:43.390625,-26.13
15:45:43.406250,-22.61
15:45:43.421875,-19.38
15:45:43.437500,-16.57
15:45:43.453125,-14.23
15:45:43.468750,-12.50
15:45:43.484375,-11.76
15:45:43.500000,-12.55
15:45:43.515625,-15.47
15:45:43.531250,-20.88
15:45:43.546875,-28.71
15:45:43.562500,-38.27
15:45:43.578125,-48.17
15:45:43.593750,-56.49
15:45:43.609375,-61.17
15:45:43.625000,-60.55
15:45:43.640625,-53.92
15:45:43.656250,-41.79
15:45:43.671875,-25.76
15:45:43.687500,-8.00
15:45:43.703125,9.28
15:45:43.718750,24.44
15:45:43.734375,36.57
15:45:43.750000,45.32
15:45:43.765625,50.69
15:45:43.781250,52.76
15:45:43.796875,51.71
15:45:43.812500,47.94
15:45:43.828125,42.16
15:45:43.843750,35.30
15:45:43.859375,28.39
15:45:43.875000,22.18
15:45:43.890625,17.02
15:45:43.906250,12.81
15:45:43.921875,9.21
15:45:43.937500,5.83
15:45:43.953125,2.44
15:45:43.968750,-0.95
15:45:43.984375,-4.21
15:45:44,-7.18
15:45:44.015625,-9.78
15:45:44.031250,-12.12
15:45:44.046875,-14.38
15:45:44.062500,-16.81
15:45:44.078125,-19.66
15:45:44.093750,-22.98
15:45:44.109375,-26.57
15:45:44.125000,-29.90
15:45:44.140625,-32.06
15:45:44.156250,-31.95
15:45:44.171875,-28.58
15:45:44.187500,-21.39
15:45:44.203125,-10.53
15:45:44.218750,3.03
15:45:44.234375,17.74
15:45:44.250000,31.84
15:45:44.265625,43.89
15:45:44.281250,53.00
15:45:44.296875,58.97
15:45:44.312500,62.04
15:45:44.328125,62.66
15:45:44.343750,61.22
15:45:44.359375,58.02
15:45:44.375000,53.41
15:45:44.390625,47.89
15:45:44.406250,42.15
15:45:44.421875,36.90
15:45:44.437500,32.65
15:45:44.453125,29.48
15:45:44.468750,27.12
15:45:44.484375,25.13
15:45:44.500000,23.21
15:45:44.515625,21.43
15:45:44.531250,20.09
15:45:44.546875,19.44
15:45:44.562500,19.20
15:45:44.578125,18.39
15:45:44.593750,15.50
15:45:44.609375,9.04
15:45:44.625000,-1.72
15:45:44.640625,-16.27
15:45:44.656250,-32.75
15:45:44.671875,-48.38
15:45:44.687500,-60.25
15:45:44.703125,-66.08
15:45:44.718750,-64.77
15:45:44.734375,-56.57
15:45:44.750000,-42.91
15:45:44.765625,-25.98
15:45:44.781250,-8.19
15:45:44.796875,8.32
15:45:44.812500,22.03
15:45:44.828125,32.25
15:45:44.843750,39.01
15:45:44.859375,42.77
15:45:44.875000,44.13
15:45:44.890625,43.58
15:45:44.906250,41.41
15:45:44.921875,37.93
15:45:44.937500,33.52
15:45:44.953125,28.73
15:45:44.968750,24.17
15:45:44.984375,20.25
15:45:45,17.10
15:45:45.015625,14.48
15:45:45.031250,11.97
15:45:45.046875,9.21
15:45:45.062500,6.08
15:45:45.078125,2.73
15:45:45.093750,-0.56
15:45:45.109375,-3.62
15:45:45.125000,-6.61
15:45:45.140625,-10.04
15:45:45.156250,-14.69
15:45:45.171875,-21.33
15:45:45.187500,-30.38
15:45:45.203125,-41.62
15:45:45.218750,-54.13
15:45:45.234375,-66.30
15:45:45.250000,-76.08
15:45:45.265625,-81.49
15:45:45.281250,-81.08
15:45:45.296875,-74.33
15:45:45.312500,-61.96
15:45:45.328125,-45.68
15:45:45.343750,-27.76
15:45:45.359375,-10.39
15:45:45.375000,4.97
15:45:45.390625,17.86
15:45:45.406250,28.74
15:45:45.421875,38.44
15:45:45.437500,47.62
15:45:45.453125,56.35
15:45:45.468750,64.08
15:45:45.484375,69.95
15:45:45.500000,73.23
15:45:45.515625,73.76
15:45:45.531250,71.99
15:45:45.546875,68.82
15:45:45.562500,65.12
15:45:45.578125,61.45
15:45:45.593750,57.83
15:45:45.609375,53.87
15:45:45.625000,49.05
15:45:45.640625,43.04
15:45:45.656250,35.88
15:45:45.671875,27.90
15:45:45.687500,19.60
15:45:45.703125,11.40
15:45:45.718750,3.49
15:45:45.734375,-4.18
15:45:45.750000,-11.86
15:45:45.765625,-19.81
15:45:45.781250,-28.26
15:45:45.796875,-37.29
15:45:45.812500,-46.80
15:45:45.828125,-56.39
15:45:45.843750,-65.34
15:45:45.859375,-72.48
15:45:45.875000,-76.35
15:45:45.890625,-75.61
15:45:45.906250,-69.40
15:45:45.921875,-57.79
15:45:45.937500,-41.92
15:45:45.953125,-23.68
15:45:45.968750,-5.27
15:45:45.984375,11.46
15:45:46,25.44
15:45:46.015625,36.38
15:45:46.031250,44.59
15:45:46.046875,50.51
15:45:46.062500,54.47
15:45:46.078125,56.67
15:45:46.093750,57.21
15:45:46.109375,56.37
15:45:46.125000,54.57
15:45:46.140625,52.36
15:45:46.156250,50.20
15:45:46.171875,48.36
15:45:46.187500,46.88
15:45:46.203125,45.63
15:45:46.218750,44.46
15:45:46.234375,43.27
15:45:46.250000,41.92
15:45:46.265625,40.18
15:45:46.281250,37.68
15:45:46.296875,33.95
15:45:46.312500,28.60
15:45:46.328125,21.50
15:45:46.343750,12.94
15:45:46.359375,3.53
15:45:46.375000,-5.98
15:45:46.390625,-15.05
15:45:46.406250,-23.56
15:45:46.421875,-31.89
15:45:46.437500,-40.79
15:45:46.453125,-51.02
15:45:46.468750,-62.94
15:45:46.484375,-76.15
15:45:46.500000,-89.34
15:45:46.515625,-100.51
15:45:46.531250,-107.40
15:45:46.546875,-108.13
15:45:46.562500,-101.83
15:45:46.578125,-88.92
15:45:46.593750,-71.05
15:45:46.609375,-50.62
15:45:46.625000,-30.10
15:45:46.640625,-11.39
15:45:46.656250,4.48
15:45:46.671875,17.35
15:45:46.687500,27.59
15:45:46.703125,35.70
15:45:46.718750,41.99
15:45:46.734375,46.60
15:45:46.750000,49.54
15:45:46.765625,50.94
15:45:46.781250,51.11
15:45:46.796875,50.53
15:45:46.812500,49.61
15:45:46.828125,48.57
15:45:46.843750,47.37
15:45:46.859375,45.82
15:45:46.875000,43.79
15:45:46.890625,41.42
15:45:46.906250,39.01
15:45:46.921875,36.97
15:45:46.937500,35.49
15:45:46.953125,34.37
15:45:46.968750,33.08
15:45:46.984375,30.88
15:45:47,27.23
15:45:47.015625,21.97
15:45:47.031250,15.50
15:45:47.046875,8.56
15:45:47.062500,1.96
15:45:47.078125,-3.75
15:45:47.093750,-8.49
15:45:47.109375,-12.68
15:45:47.125000,-17.03
15:45:47.140625,-22.30
15:45:47.156250,-29.04
15:45:47.171875,-37.40
15:45:47.187500,-46.98
15:45:47.203125,-56.79
15:45:47.218750,-65.36
15:45:47.234375,-71.01
15:45:47.250000,-72.22
15:45:47.265625,-68.16
15:45:47.281250,-58.96
15:45:47.296875,-45.75
15:45:47.312500,-30.36
15:45:47.328125,-14.67
15:45:47.343750,-0.15
15:45:47.359375,12.47
15:45:47.375000,23.10
15:45:47.390625,31.95
15:45:47.406250,39.17
15:45:47.421875,44.67
15:45:47.437500,48.19
15:45:47.453125,49.60
15:45:47.468750,49.09
15:45:47.484375,47.28
15:45:47.500000,44.99
15:45:47.515625,42.99
15:45:47.531250,41.68
15:45:47.546875,41.01
15:45:47.562500,40.58
15:45:47.578125,39.96
15:45:47.593750,38.89
15:45:47.609375,37.46
15:45:47.625000,35.96
15:45:47.640625,34.65
15:45:47.656250,33.62
15:45:47.671875,32.59
15:45:47.687500,31.09
15:45:47.703125,28.58
15:45:47.718750,24.68
15:45:47.734375,19.33
15:45:47.750000,12.80
15:45:47.765625,5.65
15:45:47.781250,-1.48
15:45:47.796875,-8.01
15:45:47.812500,-13.61
15:45:47.828125,-18.27
15:45:47.843750,-22.31
15:45:47.859375,-26.30
15:45:47.875000,-30.91
15:45:47.890625,-36.65
15:45:47.906250,-43.73
15:45:47.921875,-51.82
15:45:47.937500,-60.05
15:45:47.953125,-67.10
15:45:47.968750,-71.49
15:45:47.984375,-71.99
15:45:48,-68.00
15:45:48.015625,-59.77
15:45:48.031250,-48.32
15:45:48.046875,-35.16
15:45:48.062500,-21.77
15:45:48.078125,-9.24
15:45:48.093750,1.92
15:45:48.109375,11.76
15:45:48.125000,20.53
15:45:48.140625,28.44
15:45:48.156250,35.43
15:45:48.171875,41.21
15:45:48.187500,45.36
15:45:48.203125,47.56
15:45:48.218750,47.80
15:45:48.234375,46.44
15:45:48.250000,44.14
15:45:48.265625,41.81
15:45:48.281250,40.23
15:45:48.296875,39.94
15:45:48.312500,41.05
15:45:48.328125,43.22
15:45:48.343750,45.91
15:45:48.359375,48.51
15:45:48.375000,50.57
15:45:48.390625,51.79
15:45:48.406250,51.81
15:45:48.421875,50.11
15:45:48.437500,46.13
15:45:48.453125,39.49
15:45:48.468750,30.44
15:45:48.484375,19.90
15:45:48.500000,9.28
15:45:48.515625,-0.07
15:45:48.531250,-7.43
15:45:48.546875,-12.87
15:45:48.562500,-17.08
15:45:48.578125,-20.89
15:45:48.593750,-24.76
15:45:48.609375,-28.69
15:45:48.625000,-32.49
15:45:48.640625,-36.18
15:45:48.656250,-40.21
15:45:48.671875,-45.35
15:45:48.687500,-52.14
15:45:48.703125,-60.39
15:45:48.718750,-68.89
15:45:48.734375,-75.68
15:45:48.750000,-78.67
15:45:48.765625,-76.37
15:45:48.781250,-68.53
15:45:48.796875,-56.14
15:45:48.812500,-41.15
15:45:48.828125,-25.69
15:45:48.843750,-11.44
15:45:48.859375,0.69
15:45:48.875000,10.63
15:45:48.890625,18.77
15:45:48.906250,25.52
15:45:48.921875,31.05
15:45:48.937500,35.22
15:45:48.953125,37.78
15:45:48.968750,38.66
15:45:48.984375,38.12
15:45:49,36.76
15:45:49.015625,35.32
15:45:49.031250,34.36
15:45:49.046875,34.04
15:45:49.062500,34.13
15:45:49.078125,34.17
15:45:49.093750,33.74
15:45:49.109375,32.68
15:45:49.125000,31.17
15:45:49.140625,29.53
15:45:49.156250,28.04
15:45:49.171875,26.73
15:45:49.187500,25.25
15:45:49.203125,23.09
15:45:49.218750,19.78
15:45:49.234375,15.09
15:45:49.250000,9.18
15:45:49.265625,2.46
15:45:49.281250,-4.52
15:45:49.296875,-11.32
15:45:49.312500,-17.65
15:45:49.328125,-23.46
15:45:49.343750,-28.87
15:45:49.359375,-34.11
15:45:49.375000,-39.53
15:45:49.390625,-45.45
15:45:49.406250,-52.13
15:45:49.421875,-59.52
15:45:49.437500,-67.10
15:45:49.453125,-73.80
15:45:49.468750,-78.14
15:45:49.484375,-78.62
15:45:49.500000,-74.27
15:45:49.515625,-65.05
15:45:49.531250,-51.94
15:45:49.546875,-36.74
15:45:49.562500,-21.48
15:45:49.578125,-7.80
15:45:49.593750,3.44
15:45:49.609375,12.16
15:45:49.625000,18.82
15:45:49.640625,23.91
15:45:49.656250,27.72
15:45:49.671875,30.19
15:45:49.687500,31.19
15:45:49.703125,30.71
15:45:49.718750,29.06
15:45:49.734375,26.86
15:45:49.750000,24.81
15:45:49.765625,23.43
15:45:49.781250,22.88
15:45:49.796875,22.93
15:45:49.812500,23.17
15:45:49.828125,23.18
15:45:49.843750,22.77
15:45:49.859375,21.98
15:45:49.875000,21.03
15:45:49.890625,20.11
15:45:49.906250,19.23
15:45:49.921875,18.16
15:45:49.937500,16.52
15:45:49.953125,13.91
15:45:49.968750,10.10
15:45:49.984375,5.18
15:45:50,-0.56
15:45:50.015625,-6.66
15:45:50.031250,-12.69
15:45:50.046875,-18.35
15:45:50.062500,-23.50
15:45:50.078125,-28.19
15:45:50.093750,-32.58
15:45:50.109375,-36.94
15:45:50.125000,-41.59
15:45:50.140625,-46.89
15:45:50.156250,-53.06
15:45:50.171875,-59.99
15:45:50.187500,-67.04
15:45:50.203125,-73.01
15:45:50.218750,-76.35
15:45:50.234375,-75.59
15:45:50.250000,-69.89
15:45:50.265625,-59.35
15:45:50.281250,-45.13
15:45:50.296875,-29.11
15:45:50.312500,-13.36
15:45:50.328125,0.43
15:45:50.343750,11.30
15:45:50.359375,19.16
15:45:50.375000,24.53
15:45:50.390625,28.17
15:45:50.406250,30.67
15:45:50.421875,32.28
15:45:50.437500,32.93
15:45:50.453125,32.53
15:45:50.468750,31.12
15:45:50.484375,29.07
15:45:50.500000,26.96
15:45:50.515625,25.37
15:45:50.531250,24.56
15:45:50.546875,24.46
15:45:50.562500,24.69
15:45:50.578125,24.81
15:45:50.593750,24.49
15:45:50.609375,23.67
15:45:50.625000,22.46
15:45:50.640625,20.99
15:45:50.656250,19.28
15:45:50.671875,17.18
15:45:50.687500,14.39
15:45:50.703125,10.59
15:45:50.718750,5.57
15:45:50.734375,-0.66
15:45:50.750000,-7.84
15:45:50.765625,-15.54
15:45:50.781250,-23.29
15:45:50.796875,-30.67
15:45:50.812500,-37.46
15:45:50.828125,-43.69
15:45:50.843750,-49.59
15:45:50.859375,-55.55
15:45:50.875000,-62.03
15:45:50.890625,-69.35
15:45:50.906250,-77.59
15:45:50.921875,-86.36
15:45:50.937500,-94.66
15:45:50.953125,-100.98
15:45:50.968750,-103.53
15:45:50.984375,-100.67
15:45:51,-91.57
15:45:51.015625,-76.64
15:45:51.031250,-57.73
15:45:51.046875,-37.85
15:45:51.062500,-20.30
15:45:51.078125,-7.65
15:45:51.093750,-0.88
15:45:51.109375,0.84
15:45:51.125000,-0.28
15:45:51.140625,-1.57
15:45:51.156250,-0.88
15:45:51.171875,2.91
15:45:51.187500,9.89
15:45:51.203125,19.46
15:45:51.218750,30.72
15:45:51.234375,42.88
15:45:51.250000,55.44
15:45:51.265625,68.37
15:45:51.281250,82.24
15:45:51.296875,98.02
15:45:51.312500,116.50
15:45:51.328125,137.73
15:45:51.343750,160.69
15:45:51.359375,183.70
15:45:51.375000,205.37
15:45:51.390625,225.44
15:45:51.406250,244.86
15:45:51.421875,264.99
15:45:51.437500,286.27
15:45:51.453125,307.23
15:45:51.468750,324.54
15:45:51.484375,334.21
15:45:51.500000,333.12
15:45:51.515625,320.36
15:45:51.531250,297.48
15:45:51.546875,267.62
15:45:51.562500,234.34
15:45:51.578125,200.49
15:45:51.593750,167.54
15:45:51.609375,135.57
15:45:51.625000,103.63
15:45:51.640625,70.13
15:45:51.656250,33.22
15:45:51.671875,-8.54
15:45:51.687500,-55.47
15:45:51.703125,-105.89
15:45:51.718750,-155.87
15:45:51.734375,-199.66
15:45:51.750000,-231.11
15:45:51.765625,-245.54
15:45:51.781250,-241.27
15:45:51.796875,-220.02
15:45:51.812500,-186.39
15:45:51.828125,-146.60
15:45:51.843750,-107.07
15:45:51.859375,-73.53
15:45:51.875000,-50.62
15:45:51.890625,-41.59
15:45:51.906250,-48.24
15:45:51.921875,-70.79
15:45:51.937500,-107.96
15:45:51.953125,-156.94
15:45:51.968750,-213.33
15:45:51.984375,-271.04
15:45:52,-322.34
15:45:52.015625,-358.75
15:45:52.031250,-372.92
15:45:52.046875,-361.32
15:45:52.062500,-326.35
15:45:52.078125,-276.44
15:45:52.093750,-223.64
15:45:52.109375,-179.67
15:45:52.125000,-151.97
15:45:52.140625,-141.91
15:45:52.156250,-146.01
15:45:52.171875,-159.09
15:45:52.187500,-177.65
15:45:52.203125,-201.32
15:45:52.218750,-231.72
15:45:52.234375,-269.65
15:45:52.250000,-312.42
15:45:52.265625,-353.03
15:45:52.281250,-381.92
15:45:52.296875,-390.27
15:45:52.312500,-373.15
15:45:52.328125,-331.05
15:45:52.343750,-269.04
15:45:52.359375,-194.57
15:45:52.375000,-115.15
15:45:52.390625,-37.08
15:45:52.406250,34.54
15:45:52.421875,95.12
15:45:52.437500,140.49
15:45:52.453125,167.88
15:45:52.468750,177.59
15:45:52.484375,173.91
15:45:52.500000,164.56
15:45:52.515625,158.07
15:45:52.531250,160.61
15:45:52.546875,173.83
15:45:52.562500,194.72
15:45:52.578125,217.69
15:45:52.593750,237.26
15:45:52.609375,249.96
15:45:52.625000,254.87
15:45:52.640625,252.93
15:45:52.656250,245.86
15:45:52.671875,235.67
15:45:52.687500,224.46
15:45:52.703125,214.32
15:45:52.718750,206.89
15:45:52.734375,202.35
15:45:52.750000,198.89
15:45:52.765625,193.08
15:45:52.781250,181.31
15:45:52.796875,161.37
15:45:52.812500,133.67
15:45:52.828125,100.98
15:45:52.843750,67.28
15:45:52.859375,36.26
15:45:52.875000,10.41
15:45:52.890625,-9.24
15:45:52.906250,-22.62
15:45:52.921875,-30.25
15:45:52.937500,-32.89
15:45:52.953125,-31.50
15:45:52.968750,-27.32
15:45:52.984375,-21.79
15:45:53,-16.33
15:45:53.015625,-12.12
15:45:53.031250,-9.86
15:45:53.046875,-9.79
15:45:53.062500,-11.74
15:45:53.078125,-15.19
15:45:53.093750,-19.23
15:45:53.109375,-22.66
15:45:53.125000,-24.12
15:45:53.140625,-22.60
15:45:53.156250,-17.81
15:45:53.171875,-10.35
15:45:53.187500,-1.43
15:45:53.203125,7.60
15:45:53.218750,15.85
15:45:53.234375,23.05
15:45:53.250000,29.45
15:45:53.265625,35.44
15:45:53.281250,41.12
15:45:53.296875,46.18
15:45:53.312500,49.90
15:45:53.328125,51.41
15:45:53.343750,50.00
15:45:53.359375,45.45
15:45:53.375000,38.23
15:45:53.390625,29.52
15:45:53.406250,21.01
15:45:53.421875,14.38
15:45:53.437500,10.81
15:45:53.453125,10.54
15:45:53.468750,12.80
15:45:53.484375,16.03
15:45:53.500000,18.47
15:45:53.515625,18.75
15:45:53.531250,16.24
15:45:53.546875,11.20
15:45:53.562500,4.63
15:45:53.578125,-2.11
15:45:53.593750,-7.71
15:45:53.609375,-11.33
15:45:53.625000,-12.98
15:45:53.640625,-13.46
15:45:53.656250,-14.17
15:45:53.671875,-16.57
15:45:53.687500,-21.53
15:45:53.703125,-28.90
15:45:53.718750,-37.34
15:45:53.734375,-44.73
15:45:53.750000,-48.83
15:45:53.765625,-48.03
15:45:53.781250,-41.94
15:45:53.796875,-31.46
15:45:53.812500,-18.47
15:45:53.828125,-5.19
15:45:53.843750,6.49
15:45:53.859375,15.47
15:45:53.875000,21.49
15:45:53.890625,25.01
15:45:53.906250,26.60
15:45:53.921875,26.62
15:45:53.937500,25.02
15:45:53.953125,21.48
15:45:53.968750,15.84
15:45:53.984375,8.48
15:45:54,0.40
15:45:54.015625,-7.02
15:45:54.031250,-12.64
15:45:54.046875,-16.03
15:45:54.062500,-17.75
15:45:54.078125,-19.07
15:45:54.093750,-21.32
15:45:54.109375,-25.16
15:45:54.125000,-30.26
15:45:54.140625,-35.62
15:45:54.156250,-40.16
15:45:54.171875,-43.41
15:45:54.187500,-45.94
15:45:54.203125,-49.09
15:45:54.218750,-54.48
15:45:54.234375,-63.18
15:45:54.250000,-75.09
15:45:54.265625,-88.96
15:45:54.281250,-102.85
15:45:54.296875,-114.92
15:45:54.312500,-124.00
15:45:54.328125,-129.69
15:45:54.343750,-132.12
15:45:54.359375,-131.60
15:45:54.375000,-128.07
15:45:54.390625,-121.11
15:45:54.406250,-110.37
15:45:54.421875,-96.15
15:45:54.437500,-79.45
15:45:54.453125,-61.50
15:45:54.468750,-42.92
15:45:54.484375,-23.28
15:45:54.500000,-2.02
15:45:54.515625,21.30
15:45:54.531250,46.43
15:45:54.546875,72.46
15:45:54.562500,98.51
15:45:54.578125,124.63
15:45:54.593750,152.19
15:45:54.609375,182.97
15:45:54.625000,217.20
15:45:54.640625,250.63
15:45:54.656250,275.46
15:45:54.671875,283.07
15:45:54.687500,267.92
15:45:54.703125,230.33
15:45:54.718750,177.06
15:45:54.734375,119.05
15:45:54.750000,67.21
15:45:54.765625,28.25
15:45:54.781250,1.23
15:45:54.796875,-19.11
15:45:54.812500,-37.67
15:45:54.828125,-55.34
15:45:54.843750,-69.21
15:45:54.859375,-75.24
15:45:54.875000,-71.55
15:45:54.890625,-60.19
15:45:54.906250,-46.53
15:45:54.921875,-38.69
15:45:54.937500,-42.04
15:45:54.953125,-56.44
15:45:54.968750,-76.60
15:45:54.984375,-96.10
15:45:55,-110.56
15:45:55.015625,-118.91
15:45:55.031250,-122.19
15:45:55.046875,-108.35
15:45:55.062500,-69.60
15:45:55.078125,-7.10
15:45:55.093750,68.00
15:45:55.109375,142.53
15:45:55.125000,207.87
15:45:55.140625,261.31
15:45:55.156250,303.40
15:45:55.171875,335.66
15:45:55.187500,359.58
15:45:55.203125,374.44
15:45:55.218750,380.15
15:45:55.234375,378.24
15:45:55.250000,372.29
15:45:55.265625,365.62
15:45:55.281250,360.44
15:45:55.296875,357.12
15:45:55.312500,354.65
15:45:55.328125,351.30
15:45:55.343750,343.41
15:45:55.359375,327.48
15:45:55.375000,300.68
15:45:55.390625,267.13
15:45:55.406250,229.94
15:45:55.421875,191.46
15:45:55.437500,153.07
15:45:55.453125,115.50
15:45:55.468750,79.09
15:45:55.484375,43.18
15:45:55.500000,7.38
15:45:55.515625,-27.65
15:45:55.531250,-59.98
15:45:55.546875,-88.10
15:45:55.562500,-110.90
15:45:55.578125,-128.16
15:45:55.593750,-140.56
15:45:55.609375,-149.42
15:45:55.625000,-156.91
15:45:55.640625,-165.00
15:45:55.656250,-174.72
15:45:55.671875,-185.79
15:45:55.687500,-197.65
15:45:55.703125,-209.44
15:45:55.718750,-220.55
15:45:55.734375,-230.95
15:45:55.750000,-241.07
15:45:55.765625,-251.79
15:45:55.781250,-263.67
15:45:55.796875,-276.46
15:45:55.812500,-289.08
15:45:55.828125,-300.57
15:45:55.843750,-310.49
15:45:55.859375,-319.08
15:45:55.875000,-326.94
15:45:55.890625,-334.23
15:45:55.906250,-340.12
15:45:55.921875,-343.06
15:45:55.937500,-341.72
15:45:55.953125,-336.18
15:45:55.968750,-328.59
15:45:55.984375,-322.48
15:45:56,-321.50
15:45:56.015625,-328.04
15:45:56.031250,-342.83
15:45:56.046875,-365.62
15:45:56.062500,-396.18
15:45:56.078125,-434.62
15:45:56.093750,-480.37
15:45:56.109375,-530.56
15:45:56.125000,-578.77
15:45:56.140625,-615.84
15:45:56.156250,-632.69
15:45:56.171875,-623.79
15:45:56.187500,-589.68
15:45:56.203125,-536.59
15:45:56.218750,-473.98
15:45:56.234375,-410.76
15:45:56.250000,-352.62
15:45:56.265625,-301.28
15:45:56.281250,-255.90
15:45:56.296875,-215.15
15:45:56.312500,-178.66
15:45:56.328125,-147.19
15:45:56.343750,-121.55
15:45:56.359375,-101.65
15:45:56.375000,-86.08
15:45:56.390625,-72.72
15:45:56.406250,-59.73
15:45:56.421875,-46.39
15:45:56.437500,-33.14
15:45:56.453125,-21.22
15:45:56.468750,-11.76
15:45:56.484375,-4.99
15:45:56.500000,-0.15
15:45:56.515625,4.31
15:45:56.531250,9.98
15:45:56.546875,17.84
15:45:56.562500,27.82
15:45:56.578125,38.98
15:45:56.593750,50.00
15:45:56.609375,59.90
15:45:56.625000,68.51
15:45:56.640625,76.48
15:45:56.656250,84.99
15:45:56.671875,95.06
15:45:56.687500,107.04
15:45:56.703125,120.51
15:45:56.718750,134.35
15:45:56.734375,147.34
15:45:56.750000,158.75
15:45:56.765625,168.58
15:45:56.781250,177.58
15:45:56.796875,186.82
15:45:56.812500,197.15
15:45:56.828125,208.79
15:45:56.843750,221.33
15:45:56.859375,233.90
15:45:56.875000,245.69
15:45:56.890625,256.31
15:45:56.906250,265.95
15:45:56.921875,275.36
15:45:56.937500,285.65
15:45:56.953125,298.19
15:45:56.968750,314.22
15:45:56.984375,334.39
15:45:57,358.05
15:45:57.015625,382.81
15:45:57.031250,404.61
15:45:57.046875,418.71
15:45:57.062500,421.19
15:45:57.078125,410.52
15:45:57.093750,388.15
15:45:57.109375,358.10
15:45:57.125000,325.56
15:45:57.140625,295.18
15:45:57.156250,270.05
15:45:57.171875,251.34
15:45:57.187500,238.79
15:45:57.203125,231.25
15:45:57.218750,227.08
15:45:57.234375,224.15
15:45:57.250000,219.99
15:45:57.265625,212.14
15:45:57.281250,198.82
15:45:57.296875,179.63
15:45:57.312500,155.79
15:45:57.328125,129.74
15:45:57.343750,104.34
15:45:57.359375,81.84
15:45:57.375000,63.14
15:45:57.390625,47.75
15:45:57.406250,34.19
15:45:57.421875,20.69
15:45:57.437500,5.91
15:45:57.453125,-10.54
15:45:57.468750,-27.90
15:45:57.484375,-44.29
15:45:57.500000,-57.08
15:45:57.515625,-63.60
15:45:57.531250,-62.03
15:45:57.546875,-52.07
15:45:57.562500,-35.31
15:45:57.578125,-14.85
15:45:57.593750,5.64
15:45:57.609375,22.99
15:45:57.625000,35.43
15:45:57.640625,42.69
15:45:57.656250,45.66
15:45:57.671875,45.63
15:45:57.687500,43.63
15:45:57.703125,40.19
15:45:57.718750,35.51
15:45:57.734375,29.76
15:45:57.750000,23.30
15:45:57.765625,16.77
15:45:57.781250,10.83
15:45:57.796875,6.03
15:45:57.812500,2.65
15:45:57.828125,0.84
15:45:57.843750,0.66
15:45:57.859375,2.29
15:45:57.875000,5.88
15:45:57.890625,11.53
15:45:57.906250,19.09
15:45:57.921875,27.99
15:45:57.937500,37.34
15:45:57.953125,45.95
15:45:57.968750,52.52
15:45:57.984375,55.92
15:45:58,55.41
15:45:58.015625,50.92
15:45:58.031250,43.10
15:45:58.046875,33.11
15:45:58.062500,22.28
15:45:58.078125,11.53
15:45:58.093750,1.15
15:45:58.109375,-9.16
15:45:58.125000,-19.94
15:45:58.140625,-31.58
15:45:58.156250,-44.02
15:45:58.171875,-56.67
15:45:58.187500,-68.47
15:45:58.203125,-78.02
15:45:58.218750,-83.73
15:45:58.234375,-84.21
15:45:58.250000,-78.66
15:45:58.265625,-67.32
15:45:58.281250,-51.64
15:45:58.296875,-33.92
15:45:58.312500,-16.70
15:45:58.328125,-1.96
15:45:58.343750,9.28
15:45:58.359375,17.05
15:45:58.375000,22.04
15:45:58.390625,25.04
15:45:58.406250,26.68
15:45:58.421875,27.30
15:45:58.437500,27.10
15:45:58.453125,26.32
15:45:58.468750,25.27
15:45:58.484375,24.30
15:45:58.500000,23.73
15:45:58.515625,23.79
15:45:58.531250,24.52
15:45:58.546875,25.78
15:45:58.562500,27.28
15:45:58.578125,28.71
15:45:58.593750,29.85
15:45:58.609375,30.56
15:45:58.625000,30.91
15:45:58.640625,30.90
15:45:58.656250,30.43
15:45:58.671875,29.24
15:45:58.687500,27.01
15:45:58.703125,23.47
15:45:58.718750,18.56
15:45:58.734375,12.45
15:45:58.750000,5.51
15:45:58.765625,-1.80
15:45:58.781250,-8.94
15:45:58.796875,-15.39
15:45:58.812500,-20.79
15:45:58.828125,-25.00
15:45:58.843750,-28.22
15:45:58.859375,-30.94
15:45:58.875000,-33.75
15:45:58.890625,-37.14
15:45:58.906250,-41.36
15:45:58.921875,-46.43
15:45:58.937500,-52.28
15:45:58.953125,-58.80
15:45:58.968750,-65.63
15:45:58.984375,-72.04
15:45:59,-76.69
15:45:59.015625,-77.90
15:45:59.031250,-74.21
15:45:59.046875,-64.97
15:45:59.062500,-50.82
15:45:59.078125,-33.58
15:45:59.093750,-15.70
15:45:59.109375,0.48
15:45:59.125000,13.41
15:45:59.140625,22.57
15:45:59.156250,28.33
15:45:59.171875,31.52
15:45:59.187500,33.02
15:45:59.203125,33.49
15:45:59.218750,33.23
15:45:59.234375,32.35
15:45:59.250000,30.88
15:45:59.265625,28.89
15:45:59.281250,26.56
15:45:59.296875,24.21
15:45:59.312500,22.17
15:45:59.328125,20.77
15:45:59.343750,20.24
15:45:59.359375,20.75
15:45:59.375000,22.52
15:45:59.390625,25.73
15:45:59.406250,30.37
15:45:59.421875,35.88
15:45:59.437500,41.07
15:45:59.453125,44.23
15:45:59.468750,43.70
15:45:59.484375,38.62
15:45:59.500000,29.34
15:45:59.515625,17.42
15:45:59.531250,4.98
15:45:59.546875,-6.14
15:45:59.562500,-15.05
15:45:59.578125,-21.86
15:45:59.593750,-27.29
15:45:59.609375,-32.07
15:45:59.625000,-36.43
15:45:59.640625,-40.19
15:45:59.656250,-43.02
15:45:59.671875,-44.89
15:45:59.687500,-46.27
15:45:59.703125,-48.04
15:45:59.718750,-51.22
15:45:59.734375,-56.52
15:45:59.750000,-64.02
15:45:59.765625,-72.92
15:45:59.781250,-81.65
15:45:59.796875,-88.16
15:45:59.812500,-90.57
15:45:59.828125,-87.71
15:45:59.843750,-79.48
15:45:59.859375,-66.86
15:45:59.875000,-51.39
15:45:59.890625,-34.71
15:45:59.906250,-18.16
15:45:59.921875,-2.65
15:45:59.937500,11.21
15:45:59.953125,22.90
15:45:59.968750,31.99
15:45:59.984375,38.19
15:46:00,41.45
15:46:00.015625,42.11
15:46:00.031250,40.81
15:46:00.046875,38.33
15:46:00.062500,35.41
15:46:00.078125,32.63
15:46:00.093750,30.32
15:46:00.109375,28.49
15:46:00.125000,26.90
15:46:00.140625,25.16
15:46:00.156250,22.98
15:46:00.171875,20.28
15:46:00.187500,17.27
15:46:00.203125,14.25
15:46:00.218750,11.42
15:46:00.234375,8.61
15:46:00.250000,5.24
15:46:00.265625,0.58
15:46:00.281250,-5.96
15:46:00.296875,-14.45
15:46:00.312500,-24.35
15:46:00.328125,-34.69
15:46:00.343750,-44.37
15:46:00.359375,-52.63
15:46:00.375000,-59.25
15:46:00.390625,-64.57
15:46:00.406250,-69.26
15:46:00.421875,-74.13
15:46:00.437500,-79.96
15:46:00.453125,-87.27
15:46:00.468750,-96.25
15:46:00.484375,-106.43
15:46:00.500000,-116.59
15:46:00.515625,-124.72
15:46:00.531250,-128.35
15:46:00.546875,-125.15
15:46:00.562500,-113.45
15:46:00.578125,-92.80
15:46:00.593750,-64.22
15:46:00.609375,-30.01
15:46:00.625000,6.55
15:46:00.640625,41.85
15:46:00.656250,72.67
15:46:00.671875,96.82
15:46:00.687500,113.44
15:46:00.703125,122.97
15:46:00.718750,126.55
15:46:00.734375,125.47
15:46:00.750000,120.72
15:46:00.765625,113.03
15:46:00.781250,103.13
15:46:00.796875,92.05
15:46:00.812500,81.10
15:46:00.828125,71.47
15:46:00.843750,63.82
15:46:00.859375,57.98
15:46:00.875000,53.24
15:46:00.890625,48.82
15:46:00.906250,44.27
15:46:00.921875,39.69
15:46:00.937500,35.38
15:46:00.953125,31.59
15:46:00.968750,28.11
15:46:00.984375,24.28
15:46:01,19.31
15:46:01.015625,12.62
15:46:01.031250,4.18
15:46:01.046875,-5.47
15:46:01.062500,-15.43
15:46:01.078125,-24.78
15:46:01.093750,-32.89
15:46:01.109375,-39.65
15:46:01.125000,-45.38
15:46:01.140625,-50.67
15:46:01.156250,-56.17
15:46:01.171875,-62.39
15:46:01.187500,-69.64
15:46:01.203125,-77.75
15:46:01.218750,-85.98
15:46:01.234375,-92.97
15:46:01.250000,-96.94
15:46:01.265625,-96.23
15:46:01.281250,-89.93
15:46:01.296875,-78.34
15:46:01.312500,-62.87
15:46:01.328125,-45.64
15:46:01.343750,-28.74
15:46:01.359375,-13.65
15:46:01.375000,-1.03
15:46:01.390625,9.13
15:46:01.406250,17.18
15:46:01.421875,23.50
15:46:01.437500,28.26
15:46:01.453125,31.46
15:46:01.468750,32.97
15:46:01.484375,32.75
15:46:01.500000,31.01
15:46:01.515625,28.23
15:46:01.531250,25.19
15:46:01.546875,22.74
15:46:01.562500,21.44
15:46:01.578125,21.41
15:46:01.593750,22.23
15:46:01.609375,23.20
15:46:01.625000,23.64
15:46:01.640625,23.21
15:46:01.656250,22.03
15:46:01.671875,20.53
15:46:01.687500,19.14
15:46:01.703125,17.98
15:46:01.718750,16.72
15:46:01.734375,14.64
15:46:01.750000,10.87
15:46:01.765625,4.71
15:46:01.781250,-4.05
15:46:01.796875,-14.97
15:46:01.812500,-26.89
15:46:01.828125,-38.14
15:46:01.843750,-46.99
15:46:01.859375,-52.13
15:46:01.875000,-53.13
15:46:01.890625,-50.70
15:46:01.906250,-46.47
15:46:01.921875,-42.53
15:46:01.937500,-40.56
15:46:01.953125,-41.30
15:46:01.968750,-44.11
15:46:01.984375,-47.37
15:46:02,-49.12
15:46:02.015625,-47.88
15:46:02.031250,-43.18
15:46:02.046875,-35.59
15:46:02.062500,-26.31
15:46:02.078125,-16.50
15:46:02.093750,-6.94
15:46:02.109375,2.06
15:46:02.125000,10.49
15:46:02.140625,18.37
15:46:02.156250,25.49
15:46:02.171875,31.52
15:46:02.187500,36.20
15:46:02.203125,39.36
15:46:02.218750,41.05
15:46:02.234375,41.40
15:46:02.250000,40.70
15:46:02.265625,39.24
15:46:02.281250,37.39
15:46:02.296875,35.50
15:46:02.312500,33.78
15:46:02.328125,32.27
15:46:02.343750,30.80
15:46:02.359375,29.22
15:46:02.375000,27.53
15:46:02.390625,25.91
15:46:02.406250,24.64
15:46:02.421875,23.78
15:46:02.437500,22.98
15:46:02.453125,21.47
15:46:02.468750,18.40
15:46:02.484375,13.20
15:46:02.500000,5.93
15:46:02.515625,-2.62
15:46:02.531250,-11.26
15:46:02.546875,-18.83
15:46:02.562500,-24.67
15:46:02.578125,-28.77
15:46:02.593750,-31.77
15:46:02.609375,-34.67
15:46:02.625000,-38.49
15:46:02.640625,-44.06
15:46:02.656250,-51.69
15:46:02.671875,-61.05
15:46:02.687500,-71.03
15:46:02.703125,-79.90
15:46:02.718750,-85.61
15:46:02.734375,-86.41
15:46:02.750000,-81.42
15:46:02.765625,-70.94
15:46:02.781250,-56.36
15:46:02.796875,-39.58
15:46:02.812500,-22.50
15:46:02.828125,-6.54
15:46:02.843750,7.45
15:46:02.859375,19.02
15:46:02.875000,28.04
15:46:02.890625,34.58
15:46:02.906250,38.98
15:46:02.921875,41.82
