18:26:59,-0.00
18:26:59.015625,-0.00
18:26:59.031250,-0.00
18:26:59.046875,-0.00
18:26:59.062500,-0.00
18:26:59.078125,-0.00
18:26:59.093750,-0.00
18:26:59.109375,-0.00
18:26:59.125000,-0.00
18:26:59.140625,-0.01
18:26:59.156250,-0.00
18:26:59.171875,0.00
18:26:59.187500,0.01
18:26:59.203125,0.01
18:26:59.218750,-0.00
18:26:59.234375,-0.03
18:26:59.250000,-0.05
18:26:59.265625,-0.05
18:26:59.281250,-0.00
18:26:59.296875,0.13
18:26:59.312500,0.36
18:26:59.328125,0.66
18:26:59.343750,1.01
18:26:59.359375,1.37
18:26:59.375000,1.72
18:26:59.390625,2.06
18:26:59.406250,2.40
18:26:59.421875,2.77
18:26:59.437500,3.24
18:26:59.453125,3.80
18:26:59.468750,4.42
18:26:59.484375,5.06
18:26:59.500000,5.66
18:26:59.515625,6.20
18:26:59.531250,6.68
18:26:59.546875,7.15
18:26:59.562500,7.64
18:26:59.578125,8.31
18:26:59.593750,9.14
18:26:59.609375,10.09
18:26:59.625000,11.04
18:26:59.640625,11.88
18:26:59.656250,12.56
18:26:59.671875,13.14
18:26:59.687500,13.76
18:26:59.703125,14.58
18:26:59.718750,15.96
18:26:59.734375,17.91
18:26:59.750000,20.32
18:26:59.765625,22.90
18:26:59.781250,25.38
18:26:59.796875,27.58
18:26:59.812500,29.57
18:26:59.828125,31.68
18:26:59.843750,34.20
18:26:59.859375,37.81
18:26:59.875000,42.54
18:26:59.890625,48.15
18:26:59.906250,54.10
18:26:59.921875,59.83
18:26:59.937500,64.97
18:26:59.953125,69.58
18:26:59.968750,74.14
18:26:59.984375,79.19
18:27:00,85.71
18:27:00.015625,93.76
18:27:00.031250,103.00
18:27:00.046875,112.62
18:27:00.062500,121.73
18:27:00.078125,129.77
18:27:00.093750,136.75
18:27:00.109375,144.29
18:27:00.125000,150.57
18:27:00.140625,157.77
18:27:00.156250,166.65
18:27:00.171875,177.97
18:27:00.187500,191.83
18:27:00.203125,207.01
18:27:00.218750,220.58
18:27:00.234375,228.19
18:27:00.250000,225.20
18:27:00.265625,208.08
18:27:00.281250,176.46
18:27:00.296875,132.27
18:27:00.312500,79.52
18:27:00.328125,22.55
18:27:00.343750,-35.45
18:27:00.359375,-92.95
18:27:00.375000,-149.73
18:27:00.390625,-205.90
18:27:00.406250,-261.29
18:27:00.421875,-314.65
18:27:00.437500,-364.84
18:27:00.453125,-410.80
18:27:00.468750,-451.82
18:27:00.484375,-487.38
18:27:00.500000,-516.66
18:27:00.515625,-538.30
18:27:00.531250,-550.56
18:27:00.546875,-551.69
18:27:00.562500,-540.29
18:27:00.578125,-516.27
18:27:00.593750,-480.72
18:27:00.609375,-435.81
18:27:00.625000,-384.31
18:27:00.640625,-329.00
18:27:00.656250,-272.25
18:27:00.671875,-215.76
18:27:00.687500,-160.68
18:27:00.703125,-107.70
18:27:00.718750,-57.57
18:27:00.734375,-11.16
18:27:00.750000,30.53
18:27:00.765625,66.54
18:27:00.781250,96.25
18:27:00.796875,119.57
18:27:00.812500,137.02
18:27:00.828125,149.59
18:27:00.843750,158.49
18:27:00.859375,164.73
18:27:00.875000,168.88
18:27:00.890625,171.00
18:27:00.906250,170.83
18:27:00.921875,168.02
18:27:00.937500,162.55
18:27:00.953125,154.81
18:27:00.968750,145.68
18:27:00.984375,136.19
18:27:01,127.21
18:27:01.015625,119.10
18:27:01.031250,111.74
18:27:01.046875,104.61
18:27:01.062500,97.11
18:27:01.078125,88.73
18:27:01.093750,79.15
18:27:01.109375,68.26
18:27:01.125000,56.31
18:27:01.140625,44.29
18:27:01.156250,33.97
18:27:01.171875,27.71
18:27:01.187500,27.62
18:27:01.203125,34.44
18:27:01.218750,46.88
18:27:01.234375,61.78
18:27:01.250000,75.23
18:27:01.265625,84.06
18:27:01.281250,87.19
18:27:01.296875,85.36
18:27:01.312500,80.51
18:27:01.328125,74.56
18:27:01.343750,68.59
18:27:01.359375,62.74
18:27:01.375000,56.69
18:27:01.390625,50.32
18:27:01.406250,44.02
18:27:01.421875,38.50
18:27:01.437500,34.32
18:27:01.453125,31.56
18:27:01.468750,29.72
18:27:01.484375,28.00
18:27:01.500000,25.69
18:27:01.515625,22.49
18:27:01.531250,18.63
18:27:01.546875,14.75
18:27:01.562500,11.55
18:27:01.578125,9.47
18:27:01.593750,8.51
18:27:01.609375,8.25
18:27:01.625000,8.02
18:27:01.640625,7.27
18:27:01.656250,5.76
18:27:01.671875,3.71
18:27:01.687500,1.62
18:27:01.703125,0.06
18:27:01.718750,-0.76
18:27:01.734375,-1.00
18:27:01.750000,-1.00
18:27:01.765625,-1.00
18:27:01.781250,-0.88
18:27:01.796875,-0.23
18:27:01.812500,1.29
18:27:01.828125,3.56
18:27:01.843750,5.89
18:27:01.859375,7.31
18:27:01.875000,7.13
18:27:01.890625,5.30
18:27:01.906250,2.49
18:27:01.921875,-0.37
18:27:01.937500,-2.53
18:27:01.953125,-3.81
18:27:01.968750,-4.49
18:27:01.984375,-4.96
18:27:02,-5.41
18:27:02.015625,-5.67
18:27:02.031250,-5.49
18:27:02.046875,-4.77
18:27:02.062500,-3.73
18:27:02.078125,-2.76
18:27:02.093750,-2.23
18:27:02.109375,-2.24
18:27:02.125000,-2.64
18:27:02.140625,-3.11
18:27:02.156250,-3.37
18:27:02.171875,-3.30
18:27:02.187500,-3.01
18:27:02.203125,-2.63
18:27:02.218750,-2.34
18:27:02.234375,-2.23
18:27:02.250000,-2.28
18:27:02.265625,-2.41
18:27:02.281250,-2.48
18:27:02.296875,-2.39
18:27:02.312500,-2.10
18:27:02.328125,-1.66
18:27:02.343750,-1.19
18:27:02.359375,-0.83
18:27:02.375000,-0.64
18:27:02.390625,-0.59
18:27:02.406250,-0.52
18:27:02.421875,-0.26
18:27:02.437500,0.26
18:27:02.453125,1.01
18:27:02.468750,1.81
18:27:02.484375,2.50
18:27:02.500000,3.01
18:27:02.515625,3.40
18:27:02.531250,3.81
18:27:02.546875,4.40
18:27:02.562500,5.22
18:27:02.578125,6.21
18:27:02.593750,7.23
18:27:02.609375,8.12
18:27:02.625000,8.75
18:27:02.640625,9.06
18:27:02.656250,9.04
18:27:02.671875,8.72
18:27:02.687500,8.14
18:27:02.703125,7.35
18:27:02.718750,6.35
18:27:02.734375,5.20
18:27:02.750000,3.81
18:27:02.765625,2.17
18:27:02.781250,0.33
18:27:02.796875,-1.64
18:27:02.812500,-3.63
18:27:02.828125,-5.50
18:27:02.843750,-7.13
18:27:02.859375,-8.39
18:27:02.875000,-9.29
18:27:02.890625,-9.84
18:27:02.906250,-10.10
18:27:02.921875,-10.14
18:27:02.937500,-10.01
18:27:02.953125,-9.74
18:27:02.968750,-9.34
18:27:02.984375,-8.84
18:27:03,-8.29
18:27:03.015625,-7.74
18:27:03.031250,-7.22
18:27:03.046875,-6.74
18:27:03.062500,-6.31
18:27:03.078125,-5.91
18:27:03.093750,-5.58
18:27:03.109375,-5.30
18:27:03.125000,-5.05
18:27:03.140625,-4.78
18:27:03.156250,-4.42
18:27:03.171875,-3.96
18:27:03.187500,-3.44
18:27:03.203125,-2.95
18:27:03.218750,-2.54
18:27:03.234375,-2.23
18:27:03.250000,-2.04
18:27:03.265625,-1.93
18:27:03.281250,-1.91
18:27:03.296875,-1.96
18:27:03.312500,-2.06
18:27:03.328125,-2.16
18:27:03.343750,-2.15
18:27:03.359375,-1.97
18:27:03.375000,-1.62
18:27:03.390625,-1.20
18:27:03.406250,-0.87
18:27:03.421875,-0.74
18:27:03.437500,-0.86
18:27:03.453125,-1.17
18:27:03.468750,-1.55
18:27:03.484375,-1.88
18:27:03.500000,-2.10
18:27:03.515625,-2.20
18:27:03.531250,-2.20
18:27:03.546875,-2.13
18:27:03.562500,-2.02
18:27:03.578125,-1.88
18:27:03.593750,-1.74
18:27:03.609375,-1.67
18:27:03.625000,-1.74
18:27:03.640625,-2.00
18:27:03.656250,-2.44
18:27:03.671875,-3.01
18:27:03.687500,-3.59
18:27:03.703125,-4.08
18:27:03.718750,-4.38
18:27:03.734375,-4.40
18:27:03.750000,-4.12
18:27:03.765625,-3.62
18:27:03.781250,-2.98
18:27:03.796875,-2.33
18:27:03.812500,-1.74
18:27:03.828125,-1.21
18:27:03.843750,-0.66
18:27:03.859375,0.02
18:27:03.875000,0.89
18:27:03.890625,1.93
18:27:03.906250,3.01
18:27:03.921875,3.93
18:27:03.937500,4.55
18:27:03.953125,4.79
18:27:03.968750,4.73
18:27:03.984375,4.49
18:27:04,4.23
18:27:04.015625,4.03
18:27:04.031250,3.88
18:27:04.046875,3.76
18:27:04.062500,3.65
18:27:04.078125,3.59
18:27:04.093750,3.63
18:27:04.109375,3.79
18:27:04.125000,4.03
18:27:04.140625,4.25
18:27:04.156250,4.36
18:27:04.171875,4.32
18:27:04.187500,4.19
18:27:04.203125,4.05
18:27:04.218750,3.97
18:27:04.234375,3.94
18:27:04.250000,3.91
18:27:04.265625,3.83
18:27:04.281250,3.68
18:27:04.296875,3.48
18:27:04.312500,3.27
18:27:04.328125,3.02
18:27:04.343750,2.67
18:27:04.359375,2.17
18:27:04.375000,1.51
18:27:04.390625,0.75
18:27:04.406250,0.01
18:27:04.421875,-0.60
18:27:04.437500,-1.04
18:27:04.453125,-1.31
18:27:04.468750,-1.50
18:27:04.484375,-1.67
18:27:04.500000,-1.88
18:27:04.515625,-2.15
18:27:04.531250,-2.47
18:27:04.546875,-2.82
18:27:04.562500,-3.15
18:27:04.578125,-3.45
18:27:04.593750,-3.73
18:27:04.609375,-4.03
18:27:04.625000,-4.40
18:27:04.640625,-4.88
18:27:04.656250,-5.50
18:27:04.671875,-6.21
18:27:04.687500,-7.00
18:27:04.703125,-7.82
18:27:04.718750,-8.63
18:27:04.734375,-9.37
18:27:04.750000,-9.93
18:27:04.765625,-10.17
18:27:04.781250,-9.97
18:27:04.796875,-9.29
18:27:04.812500,-8.18
18:27:04.828125,-6.82
18:27:04.843750,-5.42
18:27:04.859375,-4.18
18:27:04.875000,-3.21
18:27:04.890625,-2.53
18:27:04.906250,-2.08
18:27:04.921875,-1.76
18:27:04.937500,-1.49
18:27:04.953125,-1.25
18:27:04.968750,-1.04
18:27:04.984375,-0.88
18:27:05,-0.79
18:27:05.015625,-0.77
18:27:05.031250,-0.81
18:27:05.046875,-0.90
18:27:05.062500,-1.03
18:27:05.078125,-1.22
18:27:05.093750,-1.44
18:27:05.109375,-1.62
18:27:05.125000,-1.71
18:27:05.140625,-1.63
18:27:05.156250,-1.39
18:27:05.171875,-1.03
18:27:05.187500,-0.61
18:27:05.203125,-0.19
18:27:05.218750,0.17
18:27:05.234375,0.46
18:27:05.250000,0.63
18:27:05.265625,0.66
18:27:05.281250,0.57
18:27:05.296875,0.42
18:27:05.312500,0.30
18:27:05.328125,0.32
18:27:05.343750,0.51
18:27:05.359375,0.84
18:27:05.375000,1.23
18:27:05.390625,1.58
18:27:05.406250,1.86
18:27:05.421875,2.06
18:27:05.437500,2.25
18:27:05.453125,2.46
18:27:05.468750,2.69
18:27:05.484375,2.86
18:27:05.500000,2.89
18:27:05.515625,2.66
18:27:05.531250,2.12
18:27:05.546875,1.33
18:27:05.562500,0.39
18:27:05.578125,-0.50
18:27:05.593750,-1.19
18:27:05.609375,-1.64
18:27:05.625000,-1.92
18:27:05.640625,-2.19
18:27:05.656250,-2.62
18:27:05.671875,-3.30
18:27:05.687500,-4.17
18:27:05.703125,-5.03
18:27:05.718750,-5.67
18:27:05.734375,-5.94
18:27:05.750000,-5.74
18:27:05.765625,-5.08
18:27:05.781250,-4.01
18:27:05.796875,-2.62
18:27:05.812500,-1.04
18:27:05.828125,0.59
18:27:05.843750,2.12
18:27:05.859375,3.50
18:27:05.875000,4.74
18:27:05.890625,5.97
18:27:05.906250,7.29
18:27:05.921875,8.75
18:27:05.937500,10.27
18:27:05.953125,11.68
18:27:05.968750,12.87
18:27:05.984375,13.78
18:27:06,14.50
18:27:06.015625,15.16
18:27:06.031250,15.86
18:27:06.046875,16.60
18:27:06.062500,17.29
18:27:06.078125,17.86
18:27:06.093750,18.26
18:27:06.109375,18.54
18:27:06.125000,18.76
18:27:06.140625,18.96
18:27:06.156250,19.12
18:27:06.171875,19.17
18:27:06.187500,19.06
18:27:06.203125,18.77
18:27:06.218750,18.33
18:27:06.234375,17.74
18:27:06.250000,17.00
18:27:06.265625,16.09
18:27:06.281250,14.96
18:27:06.296875,13.64
18:27:06.312500,12.19
18:27:06.328125,10.70
18:27:06.343750,9.27
18:27:06.359375,7.89
18:27:06.375000,6.57
18:27:06.390625,5.24
18:27:06.406250,3.88
18:27:06.421875,2.50
18:27:06.437500,1.17
18:27:06.453125,-0.11
18:27:06.468750,-1.32
18:27:06.484375,-2.52
18:27:06.500000,-3.74
18:27:06.515625,-5.00
18:27:06.531250,-6.26
18:27:06.546875,-7.49
18:27:06.562500,-8.66
18:27:06.578125,-9.78
18:27:06.593750,-10.86
18:27:06.609375,-11.96
18:27:06.625000,-13.04
18:27:06.640625,-14.08
18:27:06.656250,-15.03
18:27:06.671875,-15.88
18:27:06.687500,-16.62
18:27:06.703125,-17.23
18:27:06.718750,-17.62
18:27:06.734375,-17.67
18:27:06.750000,-17.28
18:27:06.765625,-16.43
18:27:06.781250,-15.23
18:27:06.796875,-13.89
18:27:06.812500,-12.62
18:27:06.828125,-11.54
18:27:06.843750,-10.65
18:27:06.859375,-9.84
18:27:06.875000,-9.00
18:27:06.890625,-8.11
18:27:06.906250,-7.17
18:27:06.921875,-6.27
18:27:06.937500,-5.43
18:27:06.953125,-4.66
18:27:06.968750,-3.92
18:27:06.984375,-3.18
18:27:07,-2.48
18:27:07.015625,-1.84
18:27:07.031250,-1.30
18:27:07.046875,-0.87
18:27:07.062500,-0.51
18:27:07.078125,-0.15
18:27:07.093750,0.25
18:27:07.109375,0.74
18:27:07.125000,1.30
18:27:07.140625,1.91
18:27:07.156250,2.49
18:27:07.171875,2.97
18:27:07.187500,3.29
18:27:07.203125,3.40
18:27:07.218750,3.34
18:27:07.234375,3.16
18:27:07.250000,2.94
18:27:07.265625,2.73
18:27:07.281250,2.55
18:27:07.296875,2.37
18:27:07.312500,2.13
18:27:07.328125,1.79
18:27:07.343750,1.36
18:27:07.359375,0.89
18:27:07.375000,0.47
18:27:07.390625,0.15
18:27:07.406250,-0.08
18:27:07.421875,-0.29
18:27:07.437500,-0.58
18:27:07.453125,-1.03
18:27:07.468750,-1.66
18:27:07.484375,-2.42
18:27:07.500000,-3.20
18:27:07.515625,-3.93
18:27:07.531250,-4.55
18:27:07.546875,-5.07
18:27:07.562500,-5.50
18:27:07.578125,-5.87
18:27:07.593750,-6.18
18:27:07.609375,-6.46
18:27:07.625000,-6.73
18:27:07.640625,-7.07
18:27:07.656250,-7.52
18:27:07.671875,-8.05
18:27:07.687500,-8.56
18:27:07.703125,-8.88
18:27:07.718750,-8.81
18:27:07.734375,-8.27
18:27:07.750000,-7.27
18:27:07.765625,-5.97
18:27:07.781250,-4.60
18:27:07.796875,-3.36
18:27:07.812500,-2.33
18:27:07.828125,-1.47
18:27:07.843750,-0.65
18:27:07.859375,0.23
18:27:07.875000,1.20
18:27:07.890625,2.16
18:27:07.906250,2.97
18:27:07.921875,3.53
18:27:07.937500,3.86
18:27:07.953125,4.06
18:27:07.968750,4.28
18:27:07.984375,4.61
18:27:08,5.04
18:27:08.015625,5.50
18:27:08.031250,5.87
18:27:08.046875,6.09
18:27:08.062500,6.15
18:27:08.078125,6.09
18:27:08.093750,5.98
18:27:08.109375,5.85
18:27:08.125000,5.70
18:27:08.140625,5.54
18:27:08.156250,5.35
18:27:08.171875,5.14
18:27:08.187500,4.94
18:27:08.203125,4.74
18:27:08.218750,4.53
18:27:08.234375,4.29
18:27:08.250000,3.98
18:27:08.265625,3.59
18:27:08.281250,3.09
18:27:08.296875,2.47
18:27:08.312500,1.76
18:27:08.328125,1.04
18:27:08.343750,0.39
18:27:08.359375,-0.08
18:27:08.375000,-0.31
18:27:08.390625,-0.34
18:27:08.406250,-0.26
18:27:08.421875,-0.24
18:27:08.437500,-0.38
18:27:08.453125,-0.72
18:27:08.468750,-1.19
18:27:08.484375,-1.70
18:27:08.500000,-2.19
18:27:08.515625,-2.68
18:27:08.531250,-3.27
18:27:08.546875,-4.03
18:27:08.562500,-4.98
18:27:08.578125,-6.04
18:27:08.593750,-7.08
18:27:08.609375,-7.96
18:27:08.625000,-8.60
18:27:08.640625,-8.94
18:27:08.656250,-8.99
18:27:08.671875,-8.77
18:27:08.687500,-8.28
18:27:08.703125,-7.51
18:27:08.718750,-6.46
18:27:08.734375,-5.17
18:27:08.750000,-3.73
18:27:08.765625,-2.30
18:27:08.781250,-1.05
18:27:08.796875,-0.11
18:27:08.812500,0.46
18:27:08.828125,0.74
18:27:08.843750,0.90
18:27:08.859375,1.16
18:27:08.875000,1.66
18:27:08.890625,2.37
18:27:08.906250,3.16
18:27:08.921875,3.84
18:27:08.937500,4.25
18:27:08.953125,4.39
18:27:08.968750,4.37
18:27:08.984375,4.36
18:27:09,4.50
18:27:09.015625,4.81
18:27:09.031250,5.21
18:27:09.046875,5.56
18:27:09.062500,5.71
18:27:09.078125,5.64
18:27:09.093750,5.41
18:27:09.109375,5.15
18:27:09.125000,4.96
18:27:09.140625,4.84
18:27:09.156250,4.75
18:27:09.171875,4.58
18:27:09.187500,4.33
18:27:09.203125,4.03
18:27:09.218750,3.78
18:27:09.234375,3.64
18:27:09.250000,3.60
18:27:09.265625,3.54
18:27:09.281250,3.33
18:27:09.296875,2.90
18:27:09.312500,2.26
18:27:09.328125,1.52
18:27:09.343750,0.79
18:27:09.359375,0.17
18:27:09.375000,-0.32
18:27:09.390625,-0.73
18:27:09.406250,-1.09
18:27:09.421875,-1.46
18:27:09.437500,-1.86
18:27:09.453125,-2.32
18:27:09.468750,-2.87
18:27:09.484375,-3.50
18:27:09.500000,-4.24
18:27:09.515625,-5.06
18:27:09.531250,-5.92
18:27:09.546875,-6.78
18:27:09.562500,-7.56
18:27:09.578125,-8.19
18:27:09.593750,-8.61
18:27:09.609375,-8.75
18:27:09.625000,-8.57
18:27:09.640625,-8.05
18:27:09.656250,-7.22
18:27:09.671875,-6.16
18:27:09.687500,-4.96
18:27:09.703125,-3.73
18:27:09.718750,-2.61
18:27:09.734375,-1.66
18:27:09.750000,-0.91
18:27:09.765625,-0.29
18:27:09.781250,0.29
18:27:09.796875,0.94
18:27:09.812500,1.68
18:27:09.828125,2.44
18:27:09.843750,3.14
18:27:09.859375,3.66
18:27:09.875000,3.96
18:27:09.890625,4.09
18:27:09.906250,4.15
18:27:09.921875,4.22
18:27:09.937500,4.35
18:27:09.953125,4.56
18:27:09.968750,4.80
18:27:09.984375,5.06
18:27:10,5.32
18:27:10.015625,5.55
18:27:10.031250,5.70
18:27:10.046875,5.72
18:27:10.062500,5.58
18:27:10.078125,5.30
18:27:10.093750,4.93
18:27:10.109375,4.55
18:27:10.125000,4.22
18:27:10.140625,3.98
18:27:10.156250,3.80
18:27:10.171875,3.67
18:27:10.187500,3.52
18:27:10.203125,3.31
18:27:10.218750,3.03
18:27:10.234375,2.68
18:27:10.250000,2.34
18:27:10.265625,2.08
18:27:10.281250,1.91
18:27:10.296875,1.79
18:27:10.312500,1.59
18:27:10.328125,1.19
18:27:10.343750,0.55
18:27:10.359375,-0.26
18:27:10.375000,-1.09
18:27:10.390625,-1.79
18:27:10.406250,-2.33
18:27:10.421875,-2.77
18:27:10.437500,-3.24
18:27:10.453125,-3.86
18:27:10.468750,-4.63
18:27:10.484375,-5.48
18:27:10.500000,-6.31
18:27:10.515625,-7.06
18:27:10.531250,-7.72
18:27:10.546875,-8.28
18:27:10.562500,-8.72
18:27:10.578125,-8.91
18:27:10.593750,-8.71
18:27:10.609375,-8.02
18:27:10.625000,-6.87
18:27:10.640625,-5.43
18:27:10.656250,-3.94
18:27:10.671875,-2.64
18:27:10.687500,-1.65
18:27:10.703125,-0.95
18:27:10.718750,-0.39
18:27:10.734375,0.16
18:27:10.750000,0.80
18:27:10.765625,1.50
18:27:10.781250,2.19
18:27:10.796875,2.77
18:27:10.812500,3.20
18:27:10.828125,3.51
18:27:10.843750,3.75
18:27:10.859375,3.98
18:27:10.875000,4.18
18:27:10.890625,4.32
18:27:10.906250,4.38
18:27:10.921875,4.39
18:27:10.937500,4.41
18:27:10.953125,4.51
18:27:10.968750,4.75
18:27:10.984375,5.09
18:27:11,5.47
18:27:11.015625,5.78
18:27:11.031250,5.93
18:27:11.046875,5.90
18:27:11.062500,5.68
18:27:11.078125,5.30
18:27:11.093750,4.79
18:27:11.109375,4.18
18:27:11.125000,3.54
18:27:11.140625,2.96
18:27:11.156250,2.53
18:27:11.171875,2.29
18:27:11.187500,2.21
18:27:11.203125,2.17
18:27:11.218750,2.05
18:27:11.234375,1.76
18:27:11.250000,1.31
18:27:11.265625,0.77
18:27:11.281250,0.26
18:27:11.296875,-0.17
18:27:11.312500,-0.49
18:27:11.328125,-0.73
18:27:11.343750,-0.95
18:27:11.359375,-1.20
18:27:11.375000,-1.55
18:27:11.390625,-2.07
18:27:11.406250,-2.84
18:27:11.421875,-3.85
18:27:11.437500,-5.05
18:27:11.453125,-6.28
18:27:11.468750,-7.36
18:27:11.484375,-8.20
18:27:11.500000,-8.78
18:27:11.515625,-9.16
18:27:11.531250,-9.40
18:27:11.546875,-9.50
18:27:11.562500,-9.38
18:27:11.578125,-8.94
18:27:11.593750,-8.16
18:27:11.609375,-7.09
18:27:11.625000,-5.88
18:27:11.640625,-4.67
18:27:11.656250,-3.54
18:27:11.671875,-2.53
18:27:11.687500,-1.62
18:27:11.703125,-0.80
18:27:11.718750,-0.06
18:27:11.734375,0.59
18:27:11.750000,1.15
18:27:11.765625,1.66
18:27:11.781250,2.16
18:27:11.796875,2.69
18:27:11.812500,3.23
18:27:11.828125,3.76
18:27:11.843750,4.19
18:27:11.859375,4.46
18:27:11.875000,4.58
18:27:11.890625,4.57
18:27:11.906250,4.52
18:27:11.921875,4.49
18:27:11.937500,4.51
18:27:11.953125,4.61
18:27:11.968750,4.77
18:27:11.984375,4.98
18:27:12,5.18
18:27:12.015625,5.34
18:27:12.031250,5.40
18:27:12.046875,5.33
18:27:12.062500,5.11
18:27:12.078125,4.78
18:27:12.093750,4.40
18:27:12.109375,4.02
18:27:12.125000,3.66
18:27:12.140625,3.32
18:27:12.156250,2.99
18:27:12.171875,2.67
18:27:12.187500,2.35
18:27:12.203125,2.03
18:27:12.218750,1.71
18:27:12.234375,1.33
18:27:12.250000,0.88
18:27:12.265625,0.35
18:27:12.281250,-0.22
18:27:12.296875,-0.74
18:27:12.312500,-1.18
18:27:12.328125,-1.50
18:27:12.343750,-1.77
18:27:12.359375,-2.05
18:27:12.375000,-2.39
18:27:12.390625,-2.82
18:27:12.406250,-3.38
18:27:12.421875,-4.09
18:27:12.437500,-4.94
18:27:12.453125,-5.90
18:27:12.468750,-6.87
18:27:12.484375,-7.69
18:27:12.500000,-8.23
18:27:12.515625,-8.42
18:27:12.531250,-8.29
18:27:12.546875,-7.95
18:27:12.562500,-7.52
18:27:12.578125,-7.04
18:27:12.593750,-6.52
18:27:12.609375,-5.89
18:27:12.625000,-5.12
18:27:12.640625,-4.22
18:27:12.656250,-3.28
18:27:12.671875,-2.36
18:27:12.687500,-1.53
18:27:12.703125,-0.75
18:27:12.718750,0.00
18:27:12.734375,0.77
18:27:12.750000,1.54
18:27:12.765625,2.27
18:27:12.781250,2.87
18:27:12.796875,3.29
18:27:12.812500,3.52
18:27:12.828125,3.62
18:27:12.843750,3.64
18:27:12.859375,3.69
18:27:12.875000,3.81
18:27:12.890625,4.05
18:27:12.906250,4.39
18:27:12.921875,4.78
18:27:12.937500,5.14
18:27:12.953125,5.38
18:27:12.968750,5.45
18:27:12.984375,5.36
18:27:13,5.18
18:27:13.015625,5.02
18:27:13.031250,4.93
18:27:13.046875,4.90
18:27:13.062500,4.85
18:27:13.078125,4.70
18:27:13.093750,4.41
18:27:13.109375,4.02
18:27:13.125000,3.63
18:27:13.140625,3.29
18:27:13.156250,3.02
18:27:13.171875,2.78
18:27:13.187500,2.49
18:27:13.203125,2.12
18:27:13.218750,1.68
18:27:13.234375,1.19
18:27:13.250000,0.67
18:27:13.265625,0.09
18:27:13.281250,-0.55
18:27:13.296875,-1.22
18:27:13.312500,-1.84
18:27:13.328125,-2.35
18:27:13.343750,-2.71
18:27:13.359375,-2.95
18:27:13.375000,-3.15
18:27:13.390625,-3.42
18:27:13.406250,-3.84
18:27:13.421875,-4.43
18:27:13.437500,-5.17
18:27:13.453125,-5.99
18:27:13.468750,-6.78
18:27:13.484375,-7.41
18:27:13.500000,-7.76
18:27:13.515625,-7.73
18:27:13.531250,-7.34
18:27:13.546875,-6.65
18:27:13.562500,-5.81
18:27:13.578125,-4.92
18:27:13.593750,-4.04
18:27:13.609375,-3.18
18:27:13.625000,-2.31
18:27:13.640625,-1.39
18:27:13.656250,-0.46
18:27:13.671875,0.45
18:27:13.687500,1.29
18:27:13.703125,2.00
18:27:13.718750,2.55
18:27:13.734375,2.91
18:27:13.750000,3.04
18:27:13.765625,2.93
18:27:13.781250,2.65
18:27:13.796875,2.28
18:27:13.812500,1.93
18:27:13.828125,1.68
18:27:13.843750,1.55
18:27:13.859375,1.48
18:27:13.875000,1.42
18:27:13.890625,1.32
18:27:13.906250,1.19
18:27:13.921875,1.11
18:27:13.937500,1.14
18:27:13.953125,1.35
18:27:13.968750,1.74
18:27:13.984375,2.21
18:27:14,2.62
18:27:14.015625,2.82
18:27:14.031250,2.74
18:27:14.046875,2.43
18:27:14.062500,2.00
18:27:14.078125,1.61
18:27:14.093750,1.35
18:27:14.109375,1.18
18:27:14.125000,1.01
18:27:14.140625,0.74
18:27:14.156250,0.34
18:27:14.171875,-0.13
18:27:14.187500,-0.50
18:27:14.203125,-0.66
18:27:14.218750,-0.60
18:27:14.234375,-0.39
18:27:14.250000,-0.21
18:27:14.265625,-0.20
18:27:14.281250,-0.43
18:27:14.296875,-0.88
18:27:14.312500,-1.44
18:27:14.328125,-2.00
18:27:14.343750,-2.47
18:27:14.359375,-2.77
18:27:14.375000,-2.89
18:27:14.390625,-2.85
18:27:14.406250,-2.71
18:27:14.421875,-2.55
18:27:14.437500,-2.48
18:27:14.453125,-2.60
18:27:14.468750,-2.96
18:27:14.484375,-3.53
18:27:14.500000,-4.17
18:27:14.515625,-4.69
18:27:14.531250,-4.90
18:27:14.546875,-4.70
18:27:14.562500,-4.13
18:27:14.578125,-3.29
18:27:14.593750,-2.33
18:27:14.609375,-1.36
18:27:14.625000,-0.39
18:27:14.640625,0.56
18:27:14.656250,1.49
18:27:14.671875,2.35
18:27:14.687500,3.05
18:27:14.703125,3.51
18:27:14.718750,3.73
18:27:14.734375,3.81
18:27:14.750000,3.90
18:27:14.765625,4.10
18:27:14.781250,4.49
18:27:14.796875,4.99
18:27:14.812500,5.48
18:27:14.828125,5.83
18:27:14.843750,5.95
18:27:14.859375,5.85
18:27:14.875000,5.57
18:27:14.890625,5.23
18:27:14.906250,4.91
18:27:14.921875,4.64
18:27:14.937500,4.44
18:27:14.953125,4.24
18:27:14.968750,4.01
18:27:14.984375,3.70
18:27:15,3.31
18:27:15.015625,2.87
18:27:15.031250,2.42
18:27:15.046875,1.98
18:27:15.062500,1.55
18:27:15.078125,1.15
18:27:15.093750,0.76
18:27:15.109375,0.40
18:27:15.125000,0.07
18:27:15.140625,-0.19
18:27:15.156250,-0.36
18:27:15.171875,-0.43
18:27:15.187500,-0.43
18:27:15.203125,-0.43
18:27:15.218750,-0.52
18:27:15.234375,-0.78
18:27:15.250000,-1.27
18:27:15.265625,-1.94
18:27:15.281250,-2.71
18:27:15.296875,-3.49
18:27:15.312500,-4.21
18:27:15.328125,-4.88
18:27:15.343750,-5.52
18:27:15.359375,-6.15
18:27:15.375000,-6.76
18:27:15.390625,-7.27
18:27:15.406250,-7.63
18:27:15.421875,-7.81
18:27:15.437500,-7.85
18:27:15.453125,-7.78
18:27:15.468750,-7.56
18:27:15.484375,-7.13
18:27:15.500000,-6.36
18:27:15.515625,-5.23
18:27:15.531250,-3.82
18:27:15.546875,-2.35
18:27:15.562500,-1.06
18:27:15.578125,-0.14
18:27:15.593750,0.38
18:27:15.609375,0.63
18:27:15.625000,0.76
18:27:15.640625,0.94
18:27:15.656250,1.21
18:27:15.671875,1.50
18:27:15.687500,1.73
18:27:15.703125,1.83
18:27:15.718750,1.84
18:27:15.734375,1.87
18:27:15.750000,2.01
18:27:15.765625,2.30
18:27:15.781250,2.69
18:27:15.796875,3.05
18:27:15.812500,3.28
18:27:15.828125,3.34
18:27:15.843750,3.28
18:27:15.859375,3.19
18:27:15.875000,3.14
18:27:15.890625,3.14
18:27:15.906250,3.15
18:27:15.921875,3.08
18:27:15.937500,2.89
18:27:15.953125,2.59
18:27:15.968750,2.25
18:27:15.984375,1.94
18:27:16,1.71
18:27:16.015625,1.57
18:27:16.031250,1.46
18:27:16.046875,1.30
18:27:16.062500,0.99
18:27:16.078125,0.47
18:27:16.093750,-0.26
18:27:16.109375,-1.08
18:27:16.125000,-1.87
18:27:16.140625,-2.48
18:27:16.156250,-2.89
18:27:16.171875,-3.14
18:27:16.187500,-3.34
18:27:16.203125,-3.59
18:27:16.218750,-3.93
18:27:16.234375,-4.38
18:27:16.250000,-4.93
18:27:16.265625,-5.57
18:27:16.281250,-6.29
18:27:16.296875,-7.08
18:27:16.312500,-7.81
18:27:16.328125,-8.31
18:27:16.343750,-8.39
18:27:16.359375,-7.90
18:27:16.375000,-6.88
18:27:16.390625,-5.48
18:27:16.406250,-3.96
18:27:16.421875,-2.56
18:27:16.437500,-1.41
18:27:16.453125,-0.50
18:27:16.468750,0.24
18:27:16.484375,0.89
18:27:16.500000,1.48
18:27:16.515625,1.98
18:27:16.531250,2.35
18:27:16.546875,2.56
18:27:16.562500,2.68
18:27:16.578125,2.83
18:27:16.593750,3.11
18:27:16.609375,3.55
18:27:16.625000,4.09
18:27:16.640625,4.61
18:27:16.656250,4.96
18:27:16.671875,5.09
18:27:16.687500,5.06
18:27:16.703125,4.98
18:27:16.718750,4.97
18:27:16.734375,5.06
18:27:16.750000,5.19
18:27:16.765625,5.23
18:27:16.781250,5.04
18:27:16.796875,4.61
18:27:16.812500,3.99
18:27:16.828125,3.32
18:27:16.843750,2.74
18:27:16.859375,2.34
18:27:16.875000,2.10
18:27:16.890625,1.95
18:27:16.906250,1.77
18:27:16.921875,1.47
18:27:16.937500,0.94
18:27:16.953125,0.16
18:27:16.968750,-0.85
18:27:16.984375,-2.01
18:27:17,-3.15
18:27:17.015625,-4.10
18:27:17.031250,-4.78
18:27:17.046875,-5.22
18:27:17.062500,-5.55
18:27:17.078125,-5.95
18:27:17.093750,-6.54
18:27:17.109375,-7.34
18:27:17.125000,-8.27
18:27:17.140625,-9.18
18:27:17.156250,-10.00
18:27:17.171875,-10.63
18:27:17.187500,-11.01
18:27:17.203125,-11.06
18:27:17.218750,-10.69
18:27:17.234375,-9.85
18:27:17.250000,-8.62
18:27:17.265625,-7.16
18:27:17.281250,-5.71
18:27:17.296875,-4.42
18:27:17.312500,-3.36
18:27:17.328125,-2.47
18:27:17.343750,-1.60
18:27:17.359375,-0.64
18:27:17.375000,0.44
18:27:17.390625,1.61
18:27:17.406250,2.78
18:27:17.421875,3.83
18:27:17.437500,4.72
18:27:17.453125,5.40
18:27:17.468750,5.92
18:27:17.484375,6.29
18:27:17.500000,6.57
18:27:17.515625,6.79
18:27:17.531250,6.96
18:27:17.546875,7.07
18:27:17.562500,7.11
18:27:17.578125,7.10
18:27:17.593750,7.06
18:27:17.609375,7.05
18:27:17.625000,7.11
18:27:17.640625,7.24
18:27:17.656250,7.42
18:27:17.671875,7.56
18:27:17.687500,7.61
18:27:17.703125,7.49
18:27:17.718750,7.19
18:27:17.734375,6.71
18:27:17.750000,6.08
18:27:17.765625,5.35
18:27:17.781250,4.57
18:27:17.796875,3.81
18:27:17.812500,3.10
18:27:17.828125,2.47
18:27:17.843750,1.92
18:27:17.859375,1.44
18:27:17.875000,0.99
18:27:17.890625,0.57
18:27:17.906250,0.17
18:27:17.921875,-0.29
18:27:17.937500,-0.86
18:27:17.953125,-1.63
18:27:17.968750,-2.63
18:27:17.984375,-3.82
18:27:18,-5.07
18:27:18.015625,-6.21
18:27:18.031250,-7.11
18:27:18.046875,-7.66
18:27:18.062500,-7.88
18:27:18.078125,-7.79
18:27:18.093750,-7.46
18:27:18.109375,-6.95
18:27:18.125000,-6.28
18:27:18.140625,-5.44
18:27:18.156250,-4.42
18:27:18.171875,-3.21
18:27:18.187500,-1.88
18:27:18.203125,-0.54
18:27:18.218750,0.63
18:27:18.234375,1.53
18:27:18.250000,2.12
18:27:18.265625,2.49
18:27:18.281250,2.78
18:27:18.296875,3.10
18:27:18.312500,3.44
18:27:18.328125,3.75
18:27:18.343750,3.93
18:27:18.359375,3.98
18:27:18.375000,3.97
18:27:18.390625,4.06
18:27:18.406250,4.32
18:27:18.421875,4.69
18:27:18.437500,5.05
18:27:18.453125,5.27
18:27:18.468750,5.26
18:27:18.484375,5.05
18:27:18.500000,4.75
18:27:18.515625,4.47
18:27:18.531250,4.30
18:27:18.546875,4.28
18:27:18.562500,4.40
18:27:18.578125,4.59
18:27:18.593750,4.77
18:27:18.609375,4.83
18:27:18.625000,4.69
18:27:18.640625,4.34
18:27:18.656250,3.85
18:27:18.671875,3.31
18:27:18.687500,2.81
18:27:18.703125,2.40
18:27:18.718750,2.02
18:27:18.734375,1.61
18:27:18.750000,1.15
18:27:18.765625,0.64
18:27:18.781250,0.13
18:27:18.796875,-0.32
18:27:18.812500,-0.72
18:27:18.828125,-1.10
18:27:18.843750,-1.53
18:27:18.859375,-2.02
18:27:18.875000,-2.56
18:27:18.890625,-3.10
18:27:18.906250,-3.59
18:27:18.921875,-4.06
18:27:18.937500,-4.56
18:27:18.953125,-5.17
18:27:18.968750,-5.91
18:27:18.984375,-6.76
18:27:19,-7.60
18:27:19.015625,-8.31
18:27:19.031250,-8.76
18:27:19.046875,-8.89
18:27:19.062500,-8.66
18:27:19.078125,-8.10
18:27:19.093750,-7.19
18:27:19.109375,-5.98
18:27:19.125000,-4.53
18:27:19.140625,-2.97
18:27:19.156250,-1.45
18:27:19.171875,-0.12
18:27:19.187500,0.91
18:27:19.203125,1.60
18:27:19.218750,2.01
18:27:19.234375,2.23
18:27:19.250000,2.42
18:27:19.265625,2.70
18:27:19.281250,3.15
18:27:19.296875,3.78
18:27:19.312500,4.50
18:27:19.328125,5.15
18:27:19.343750,5.55
18:27:19.359375,5.62
18:27:19.375000,5.37
18:27:19.390625,4.93
18:27:19.406250,4.49
18:27:19.421875,4.16
18:27:19.437500,3.95
18:27:19.453125,3.82
18:27:19.468750,3.69
18:27:19.484375,3.53
18:27:19.500000,3.36
18:27:19.515625,3.21
18:27:19.531250,3.03
18:27:19.546875,2.78
18:27:19.562500,2.37
18:27:19.578125,1.81
18:27:19.593750,1.15
18:27:19.609375,0.52
18:27:19.625000,0.01
18:27:19.640625,-0.34
18:27:19.656250,-0.63
18:27:19.671875,-0.99
18:27:19.687500,-1.52
18:27:19.703125,-2.19
18:27:19.718750,-2.86
18:27:19.734375,-3.37
18:27:19.750000,-3.57
18:27:19.765625,-3.47
18:27:19.781250,-3.23
18:27:19.796875,-3.07
18:27:19.812500,-3.16
18:27:19.828125,-3.49
18:27:19.843750,-3.92
18:27:19.859375,-4.24
18:27:19.875000,-4.31
18:27:19.890625,-4.15
18:27:19.906250,-3.92
18:27:19.921875,-3.84
18:27:19.937500,-4.01
18:27:19.953125,-4.38
18:27:19.968750,-4.80
18:27:19.984375,-5.12
18:27:20,-5.28
18:27:20.015625,-5.35
18:27:20.031250,-5.45
18:27:20.046875,-5.60
18:27:20.062500,-5.73
18:27:20.078125,-5.65
18:27:20.093750,-5.24
18:27:20.109375,-4.49
18:27:20.125000,-3.50
18:27:20.140625,-2.44
18:27:20.156250,-1.43
18:27:20.171875,-0.50
18:27:20.187500,0.42
18:27:20.203125,1.37
18:27:20.218750,2.37
18:27:20.234375,3.31
18:27:20.250000,4.05
18:27:20.265625,4.51
18:27:20.281250,4.70
18:27:20.296875,4.74
18:27:20.312500,4.77
18:27:20.328125,4.90
18:27:20.343750,5.15
18:27:20.359375,5.47
18:27:20.375000,5.77
18:27:20.390625,5.98
18:27:20.406250,6.08
18:27:20.421875,6.10
18:27:20.437500,6.08
18:27:20.453125,6.02
18:27:20.468750,5.91
18:27:20.484375,5.72
18:27:20.500000,5.46
18:27:20.515625,5.19
18:27:20.531250,5.01
18:27:20.546875,4.95
18:27:20.562500,5.01
18:27:20.578125,5.07
18:27:20.593750,5.02
18:27:20.609375,4.77
18:27:20.625000,4.35
18:27:20.640625,3.83
18:27:20.656250,3.33
18:27:20.671875,2.90
18:27:20.687500,2.54
18:27:20.703125,2.20
18:27:20.718750,1.85
18:27:20.734375,1.50
18:27:20.750000,1.19
18:27:20.765625,0.97
18:27:20.781250,0.84
18:27:20.796875,0.72
18:27:20.812500,0.54
18:27:20.828125,0.20
18:27:20.843750,-0.29
18:27:20.859375,-0.87
18:27:20.875000,-1.42
18:27:20.890625,-1.83
18:27:20.906250,-2.06
18:27:20.921875,-2.18
18:27:20.937500,-2.34
18:27:20.953125,-2.72
18:27:20.968750,-3.42
18:27:20.984375,-4.42
18:27:21,-5.58
18:27:21.015625,-6.68
18:27:21.031250,-7.51
18:27:21.046875,-7.93
18:27:21.062500,-7.90
18:27:21.078125,-7.47
18:27:21.093750,-6.72
18:27:21.109375,-5.77
18:27:21.125000,-4.74
18:27:21.140625,-3.75
18:27:21.156250,-2.84
18:27:21.171875,-2.06
18:27:21.187500,-1.36
18:27:21.203125,-0.68
18:27:21.218750,0.03
18:27:21.234375,0.79
18:27:21.250000,1.55
18:27:21.265625,2.20
18:27:21.281250,2.67
18:27:21.296875,2.92
18:27:21.312500,3.02
18:27:21.328125,3.09
18:27:21.343750,3.21
18:27:21.359375,3.43
18:27:21.375000,3.72
18:27:21.390625,4.00
18:27:21.406250,4.18
18:27:21.421875,4.25
18:27:21.437500,4.25
18:27:21.453125,4.25
18:27:21.468750,4.28
18:27:21.484375,4.30
18:27:21.500000,4.24
18:27:21.515625,4.01
18:27:21.531250,3.64
18:27:21.546875,3.21
18:27:21.562500,2.89
18:27:21.578125,2.76
18:27:21.593750,2.84
18:27:21.609375,3.00
18:27:21.625000,3.07
18:27:21.640625,2.88
18:27:21.656250,2.41
18:27:21.671875,1.73
18:27:21.687500,1.00
18:27:21.703125,0.37
18:27:21.718750,-0.08
18:27:21.734375,-0.34
18:27:21.750000,-0.48
18:27:21.765625,-0.57
18:27:21.781250,-0.66
18:27:21.796875,-0.79
18:27:21.812500,-0.98
18:27:21.828125,-1.26
18:27:21.843750,-1.63
18:27:21.859375,-2.05
18:27:21.875000,-2.48
18:27:21.890625,-2.88
18:27:21.906250,-3.29
18:27:21.921875,-3.76
18:27:21.937500,-4.40
18:27:21.953125,-5.21
18:27:21.968750,-6.13
18:27:21.984375,-6.97
18:27:22,-7.54
18:27:22.015625,-7.67
18:27:22.031250,-7.33
18:27:22.046875,-6.62
18:27:22.062500,-5.72
18:27:22.078125,-4.83
18:27:22.093750,-4.03
18:27:22.109375,-3.35
18:27:22.125000,-2.75
18:27:22.140625,-2.15
18:27:22.156250,-1.57
18:27:22.171875,-1.03
18:27:22.187500,-0.56
18:27:22.203125,-0.17
18:27:22.218750,0.20
18:27:22.234375,0.59
18:27:22.250000,1.05
18:27:22.265625,1.53
18:27:22.281250,1.95
18:27:22.296875,2.24
18:27:22.312500,2.40
18:27:22.328125,2.50
18:27:22.343750,2.62
18:27:22.359375,2.83
18:27:22.375000,3.10
18:27:22.390625,3.36
18:27:22.406250,3.53
18:27:22.421875,3.56
18:27:22.437500,3.51
18:27:22.453125,3.46
18:27:22.468750,3.45
18:27:22.484375,3.50
18:27:22.500000,3.57
18:27:22.515625,3.57
18:27:22.531250,3.47
18:27:22.546875,3.27
18:27:22.562500,2.96
18:27:22.578125,2.56
18:27:22.593750,2.09
18:27:22.609375,1.54
18:27:22.625000,0.91
18:27:22.640625,0.26
18:27:22.656250,-0.31
18:27:22.671875,-0.74
18:27:22.687500,-0.96
18:27:22.703125,-1.01
18:27:22.718750,-0.95
18:27:22.734375,-0.85
18:27:22.750000,-0.80
18:27:22.765625,-0.80
18:27:22.781250,-0.89
18:27:22.796875,-1.08
18:27:22.812500,-1.43
18:27:22.828125,-1.97
18:27:22.843750,-2.71
18:27:22.859375,-3.61
18:27:22.875000,-4.58
18:27:22.890625,-5.51
18:27:22.906250,-6.32
18:27:22.921875,-6.93
18:27:22.937500,-7.34
18:27:22.953125,-7.54
18:27:22.968750,-7.54
18:27:22.984375,-7.38
18:27:23,-7.04
18:27:23.015625,-6.55
18:27:23.031250,-5.89
18:27:23.046875,-5.08
18:27:23.062500,-4.18
18:27:23.078125,-3.27
18:27:23.093750,-2.43
18:27:23.109375,-1.65
18:27:23.125000,-0.91
18:27:23.140625,-0.15
18:27:23.156250,0.62
18:27:23.171875,1.33
18:27:23.187500,1.87
18:27:23.203125,2.22
18:27:23.218750,2.47
18:27:23.234375,2.78
18:27:23.250000,3.33
18:27:23.265625,4.11
18:27:23.281250,4.94
18:27:23.296875,5.54
18:27:23.312500,5.67
18:27:23.328125,5.26
18:27:23.343750,4.52
18:27:23.359375,3.77
18:27:23.375000,3.30
18:27:23.390625,3.24
18:27:23.406250,3.52
18:27:23.421875,3.94
18:27:23.437500,4.29
18:27:23.453125,4.46
18:27:23.468750,4.41
18:27:23.484375,4.20
18:27:23.500000,3.86
18:27:23.515625,3.43
18:27:23.531250,2.92
18:27:23.546875,2.37
18:27:23.562500,1.81
18:27:23.578125,1.29
18:27:23.593750,0.81
18:27:23.609375,0.37
18:27:23.625000,-0.03
18:27:23.640625,-0.39
18:27:23.656250,-0.69
18:27:23.671875,-0.93
18:27:23.687500,-1.16
18:27:23.703125,-1.43
18:27:23.718750,-1.81
18:27:23.734375,-2.26
18:27:23.750000,-2.69
18:27:23.765625,-3.01
18:27:23.781250,-3.18
18:27:23.796875,-3.29
18:27:23.812500,-3.48
18:27:23.828125,-3.93
18:27:23.843750,-4.68
18:27:23.859375,-5.64
18:27:23.875000,-6.62
18:27:23.890625,-7.43
18:27:23.906250,-7.95
18:27:23.921875,-8.13
18:27:23.937500,-8.00
18:27:23.953125,-7.61
18:27:23.968750,-7.05
18:27:23.984375,-6.39
18:27:24,-5.75
18:27:24.015625,-5.21
18:27:24.031250,-4.81
18:27:24.046875,-4.53
18:27:24.062500,-4.30
18:27:24.078125,-4.05
18:27:24.093750,-3.76
18:27:24.109375,-3.45
18:27:24.125000,-3.15
18:27:24.140625,-2.81
18:27:24.156250,-2.36
18:27:24.171875,-1.70
18:27:24.187500,-0.79
18:27:24.203125,0.36
18:27:24.218750,1.63
18:27:24.234375,2.85
18:27:24.250000,3.85
18:27:24.265625,4.54
18:27:24.281250,4.88
18:27:24.296875,4.96
18:27:24.312500,4.89
18:27:24.328125,4.78
18:27:24.343750,4.70
18:27:24.359375,4.66
18:27:24.375000,4.63
18:27:24.390625,4.58
18:27:24.406250,4.52
18:27:24.421875,4.48
18:27:24.437500,4.49
18:27:24.453125,4.50
18:27:24.468750,4.38
18:27:24.484375,4.03
18:27:24.500000,3.42
18:27:24.515625,2.69
18:27:24.531250,2.04
18:27:24.546875,1.70
18:27:24.562500,1.70
18:27:24.578125,1.88
18:27:24.593750,1.96
18:27:24.609375,1.67
18:27:24.625000,0.92
18:27:24.640625,-0.15
18:27:24.656250,-1.30
18:27:24.671875,-2.36
18:27:24.687500,-3.23
18:27:24.703125,-3.98
18:27:24.718750,-4.69
18:27:24.734375,-5.35
18:27:24.750000,-5.85
18:27:24.765625,-6.07
18:27:24.781250,-5.94
18:27:24.796875,-5.55
18:27:24.812500,-5.10
18:27:24.828125,-4.86
18:27:24.843750,-5.04
18:27:24.859375,-5.68
18:27:24.875000,-6.64
18:27:24.890625,-7.66
18:27:24.906250,-8.42
18:27:24.921875,-8.70
18:27:24.937500,-8.40
18:27:24.953125,-7.57
18:27:24.968750,-6.38
18:27:24.984375,-5.05
18:27:25,-3.78
18:27:25.015625,-2.69
18:27:25.031250,-1.84
18:27:25.046875,-1.27
18:27:25.062500,-1.03
18:27:25.078125,-1.10
18:27:25.093750,-1.40
18:27:25.109375,-1.74
18:27:25.125000,-1.84
18:27:25.140625,-1.48
18:27:25.156250,-0.54
18:27:25.171875,0.89
18:27:25.187500,2.56
18:27:25.203125,4.15
18:27:25.218750,5.35
18:27:25.234375,6.00
18:27:25.250000,6.14
18:27:25.265625,5.93
18:27:25.281250,5.61
18:27:25.296875,5.39
18:27:25.312500,5.39
18:27:25.328125,5.60
18:27:25.343750,5.96
18:27:25.359375,6.35
18:27:25.375000,6.67
18:27:25.390625,6.90
18:27:25.406250,7.06
18:27:25.421875,7.22
18:27:25.437500,7.41
18:27:25.453125,7.64
18:27:25.468750,7.81
18:27:25.484375,7.84
18:27:25.500000,7.61
18:27:25.515625,7.09
18:27:25.531250,6.28
18:27:25.546875,5.26
18:27:25.562500,4.11
18:27:25.578125,2.91
18:27:25.593750,1.76
18:27:25.609375,0.72
18:27:25.625000,-0.21
18:27:25.640625,-1.09
18:27:25.656250,-2.03
18:27:25.671875,-3.20
18:27:25.687500,-4.74
18:27:25.703125,-6.70
18:27:25.718750,-8.99
18:27:25.734375,-11.35
18:27:25.750000,-13.49
18:27:25.765625,-15.09
18:27:25.781250,-16.02
18:27:25.796875,-16.30
18:27:25.812500,-16.15
18:27:25.828125,-15.79
18:27:25.843750,-15.34
18:27:25.859375,-14.66
18:27:25.875000,-13.30
18:27:25.890625,-10.63
18:27:25.906250,-5.98
18:27:25.921875,1.08
18:27:25.937500,10.59
18:27:25.953125,22.19
18:27:25.968750,35.07
18:27:25.984375,48.09
18:27:26,59.99
18:27:26.015625,69.53
18:27:26.031250,75.78
18:27:26.046875,78.28
18:27:26.062500,77.09
18:27:26.078125,72.70
18:27:26.093750,65.85
18:27:26.109375,57.25
18:27:26.125000,47.46
18:27:26.140625,36.91
18:27:26.156250,25.97
18:27:26.171875,15.07
18:27:26.187500,4.71
18:27:26.203125,-4.59
18:27:26.218750,-12.47
18:27:26.234375,-18.80
18:27:26.250000,-23.70
18:27:26.265625,-27.44
18:27:26.281250,-30.22
18:27:26.296875,-32.14
18:27:26.312500,-33.15
18:27:26.328125,-33.23
18:27:26.343750,-32.44
18:27:26.359375,-31.07
18:27:26.375000,-29.50
18:27:26.390625,-28.11
18:27:26.406250,-27.06
18:27:26.421875,-26.30
18:27:26.437500,-25.60
18:27:26.453125,-24.68
18:27:26.468750,-23.43
18:27:26.484375,-21.91
18:27:26.500000,-20.30
18:27:26.515625,-18.83
18:27:26.531250,-17.64
18:27:26.546875,-16.76
18:27:26.562500,-16.15
18:27:26.578125,-15.67
18:27:26.593750,-15.18
18:27:26.609375,-14.56
18:27:26.625000,-13.68
18:27:26.640625,-12.53
18:27:26.656250,-11.14
18:27:26.671875,-9.68
18:27:26.687500,-8.35
18:27:26.703125,-7.32
18:27:26.718750,-6.67
18:27:26.734375,-6.38
18:27:26.750000,-6.31
18:27:26.765625,-6.33
18:27:26.781250,-6.28
18:27:26.796875,-6.06
18:27:26.812500,-5.64
18:27:26.828125,-5.06
18:27:26.843750,-4.45
18:27:26.859375,-3.96
18:27:26.875000,-3.74
18:27:26.890625,-3.84
18:27:26.906250,-4.20
18:27:26.921875,-4.62
18:27:26.937500,-4.87
18:27:26.953125,-4.83
18:27:26.968750,-4.45
18:27:26.984375,-3.88
18:27:27,-3.28
18:27:27.015625,-2.78
18:27:27.031250,-2.40
18:27:27.046875,-2.05
18:27:27.062500,-1.64
18:27:27.078125,-1.10
18:27:27.093750,-0.46
18:27:27.109375,0.23
18:27:27.125000,0.91
18:27:27.140625,1.59
18:27:27.156250,2.33
18:27:27.171875,3.20
18:27:27.187500,4.17
18:27:27.203125,5.09
18:27:27.218750,5.72
18:27:27.234375,5.83
18:27:27.250000,5.33
18:27:27.265625,4.33
18:27:27.281250,3.12
18:27:27.296875,2.00
18:27:27.312500,1.20
18:27:27.328125,0.74
18:27:27.343750,0.53
18:27:27.359375,0.47
18:27:27.375000,0.50
18:27:27.390625,0.67
18:27:27.406250,1.06
18:27:27.421875,1.68
18:27:27.437500,2.41
18:27:27.453125,3.10
18:27:27.468750,3.58
18:27:27.484375,3.81
18:27:27.500000,3.82
18:27:27.515625,3.76
18:27:27.531250,3.74
18:27:27.546875,3.83
18:27:27.562500,4.04
18:27:27.578125,4.33
18:27:27.593750,4.61
18:27:27.609375,4.84
18:27:27.625000,4.97
18:27:27.640625,5.04
18:27:27.656250,5.09
18:27:27.671875,5.21
18:27:27.687500,5.46
18:27:27.703125,5.84
18:27:27.718750,6.24
18:27:27.734375,6.53
18:27:27.750000,6.60
18:27:27.765625,6.40
18:27:27.781250,5.99
18:27:27.796875,5.45
18:27:27.812500,4.91
18:27:27.828125,4.45
18:27:27.843750,4.06
18:27:27.859375,3.70
18:27:27.875000,3.30
18:27:27.890625,2.80
18:27:27.906250,2.16
18:27:27.921875,1.38
18:27:27.937500,0.46
18:27:27.953125,-0.54
18:27:27.968750,-1.56
18:27:27.984375,-2.55
18:27:28,-3.45
18:27:28.015625,-4.25
18:27:28.031250,-4.95
18:27:28.046875,-5.55
18:27:28.062500,-6.08
18:27:28.078125,-6.53
18:27:28.093750,-6.94
18:27:28.109375,-7.32
18:27:28.125000,-7.69
18:27:28.140625,-8.04
18:27:28.156250,-8.29
18:27:28.171875,-8.33
18:27:28.187500,-8.05
18:27:28.203125,-7.39
18:27:28.218750,-6.38
18:27:28.234375,-5.14
18:27:28.250000,-3.84
18:27:28.265625,-2.63
18:27:28.281250,-1.58
18:27:28.296875,-0.70
18:27:28.312500,0.03
18:27:28.328125,0.67
18:27:28.343750,1.24
18:27:28.359375,1.76
18:27:28.375000,2.26
18:27:28.390625,2.73
18:27:28.406250,3.19
18:27:28.421875,3.66
18:27:28.437500,4.11
18:27:28.453125,4.50
18:27:28.468750,4.79
18:27:28.484375,4.93
18:27:28.500000,4.91
18:27:28.515625,4.78
18:27:28.531250,4.62
18:27:28.546875,4.49
18:27:28.562500,4.47
18:27:28.578125,4.54
18:27:28.593750,4.62
18:27:28.609375,4.65
18:27:28.625000,4.54
18:27:28.640625,4.34
18:27:28.656250,4.08
18:27:28.671875,3.83
18:27:28.687500,3.57
18:27:28.703125,3.29
18:27:28.718750,2.89
18:27:28.734375,2.38
18:27:28.750000,1.81
18:27:28.765625,1.31
18:27:28.781250,1.01
18:27:28.796875,0.91
18:27:28.812500,0.89
18:27:28.828125,0.73
18:27:28.843750,0.24
18:27:28.859375,-0.66
18:27:28.875000,-1.88
18:27:28.890625,-3.19
18:27:28.906250,-4.32
18:27:28.921875,-5.07
18:27:28.937500,-5.35
18:27:28.953125,-5.26
18:27:28.968750,-4.96
18:27:28.984375,-4.62
18:27:29,-4.33
18:27:29.015625,-4.06
18:27:29.031250,-3.66
18:27:29.046875,-2.91
18:27:29.062500,-1.63
18:27:29.078125,0.22
18:27:29.093750,2.49
18:27:29.109375,4.93
18:27:29.125000,7.27
18:27:29.140625,9.26
18:27:29.156250,10.71
18:27:29.171875,11.65
18:27:29.187500,12.36
18:27:29.203125,13.26
18:27:29.218750,14.68
18:27:29.234375,16.63
18:27:29.250000,18.89
18:27:29.265625,21.13
18:27:29.281250,22.93
18:27:29.296875,23.97
18:27:29.312500,24.28
18:27:29.328125,24.33
18:27:29.343750,24.77
18:27:29.359375,26.07
18:27:29.375000,28.25
18:27:29.390625,30.99
18:27:29.406250,33.80
18:27:29.421875,35.78
18:27:29.437500,35.83
18:27:29.453125,33.21
18:27:29.468750,28.19
18:27:29.484375,22.42
18:27:29.500000,18.45
18:27:29.515625,18.75
18:27:29.531250,24.64
18:27:29.546875,35.34
18:27:29.562500,47.37
18:27:29.578125,55.61
18:27:29.593750,55.34
18:27:29.609375,44.29
18:27:29.625000,23.27
18:27:29.640625,-4.89
18:27:29.656250,-36.97
18:27:29.671875,-70.52
18:27:29.687500,-101.35
18:27:29.703125,-124.15
18:27:29.718750,-135.05
18:27:29.734375,-134.01
18:27:29.750000,-124.32
18:27:29.765625,-109.88
18:27:29.781250,-93.53
18:27:29.796875,-76.99
18:27:29.812500,-61.18
18:27:29.828125,-46.82
18:27:29.843750,-34.91
18:27:29.859375,-26.75
18:27:29.875000,-23.13
18:27:29.890625,-23.54
18:27:29.906250,-26.19
18:27:29.921875,-28.83
18:27:29.937500,-29.72
18:27:29.953125,-27.95
18:27:29.968750,-23.85
18:27:29.984375,-18.87
18:27:30,-15.05
18:27:30.015625,-14.11
18:27:30.031250,-16.95
18:27:30.046875,-23.76
18:27:30.062500,-34.13
18:27:30.078125,-46.65
18:27:30.093750,-58.19
18:27:30.109375,-65.02
18:27:30.125000,-62.70
18:27:30.140625,-48.94
18:27:30.156250,-24.97
18:27:30.171875,4.56
18:27:30.187500,33.05
18:27:30.203125,54.41
18:27:30.218750,64.55
18:27:30.234375,64.08
18:27:30.250000,56.99
18:27:30.265625,47.95
18:27:30.281250,39.80
18:27:30.296875,33.08
18:27:30.312500,27.00
18:27:30.328125,20.87
18:27:30.343750,14.91
18:27:30.359375,10.23
18:27:30.375000,8.07
18:27:30.390625,8.70
18:27:30.406250,11.36
18:27:30.421875,14.62
18:27:30.437500,17.04
18:27:30.453125,18.01
18:27:30.468750,18.23
18:27:30.484375,18.23
18:27:30.500000,18.83
18:27:30.515625,20.67
18:27:30.531250,23.82
18:27:30.546875,27.83
18:27:30.562500,31.96
18:27:30.578125,35.56
18:27:30.593750,38.29
18:27:30.609375,40.09
18:27:30.625000,41.12
18:27:30.640625,41.74
18:27:30.656250,42.34
18:27:30.671875,43.15
18:27:30.687500,44.26
18:27:30.703125,45.65
18:27:30.718750,47.42
18:27:30.734375,49.90
18:27:30.750000,53.58
18:27:30.765625,58.65
18:27:30.781250,64.51
18:27:30.796875,69.46
18:27:30.812500,70.91
18:27:30.828125,66.34
18:27:30.843750,54.50
18:27:30.859375,36.24
18:27:30.875000,14.41
18:27:30.890625,-7.16
18:27:30.906250,-25.14
18:27:30.921875,-37.75
18:27:30.937500,-45.02
18:27:30.953125,-48.21
18:27:30.968750,-48.80
18:27:30.984375,-47.83
18:27:31,-45.73
18:27:31.015625,-42.65
18:27:31.031250,-39.06
18:27:31.046875,-35.72
18:27:31.062500,-33.42
18:27:31.078125,-32.61
18:27:31.093750,-33.12
18:27:31.109375,-34.20
18:27:31.125000,-34.82
18:27:31.140625,-34.12
18:27:31.156250,-31.74
18:27:31.171875,-27.94
18:27:31.187500,-23.44
18:27:31.203125,-19.11
18:27:31.218750,-15.61
18:27:31.234375,-13.21
18:27:31.250000,-11.75
18:27:31.265625,-10.76
18:27:31.281250,-9.77
18:27:31.296875,-8.51
18:27:31.312500,-7.06
18:27:31.328125,-5.69
18:27:31.343750,-4.73
18:27:31.359375,-4.34
18:27:31.375000,-4.41
18:27:31.390625,-4.63
18:27:31.406250,-4.65
18:27:31.421875,-4.29
18:27:31.437500,-3.61
18:27:31.453125,-2.86
18:27:31.468750,-2.38
18:27:31.484375,-2.41
18:27:31.500000,-3.06
18:27:31.515625,-4.23
18:27:31.531250,-5.71
18:27:31.546875,-7.24
18:27:31.562500,-8.61
18:27:31.578125,-9.73
18:27:31.593750,-10.68
18:27:31.609375,-11.63
18:27:31.625000,-12.86
18:27:31.640625,-14.56
18:27:31.656250,-16.83
18:27:31.671875,-19.52
18:27:31.687500,-22.35
18:27:31.703125,-24.99
18:27:31.718750,-27.18
18:27:31.734375,-28.80
18:27:31.750000,-29.88
18:27:31.765625,-30.49
18:27:31.781250,-30.58
18:27:31.796875,-30.03
18:27:31.812500,-28.61
18:27:31.828125,-26.17
18:27:31.843750,-22.72
18:27:31.859375,-18.58
18:27:31.875000,-14.28
18:27:31.890625,-10.52
18:27:31.906250,-7.94
18:27:31.921875,-6.95
18:27:31.937500,-7.56
18:27:31.953125,-9.32
18:27:31.968750,-11.48
18:27:31.984375,-13.17
18:27:32,-13.71
18:27:32.015625,-12.84
18:27:32.031250,-10.76
18:27:32.046875,-8.02
18:27:32.062500,-5.34
18:27:32.078125,-3.35
18:27:32.093750,-2.46
18:27:32.109375,-2.67
18:27:32.125000,-3.44
18:27:32.140625,-3.60
18:27:32.156250,-1.52
18:27:32.171875,4.51
18:27:32.187500,15.62
18:27:32.203125,31.81
18:27:32.218750,51.76
18:27:32.234375,73.17
18:27:32.250000,93.52
18:27:32.265625,110.83
18:27:32.281250,124.03
18:27:32.296875,132.95
18:27:32.312500,137.83
18:27:32.328125,139.04
18:27:32.343750,136.95
18:27:32.359375,132.14
18:27:32.375000,125.55
18:27:32.390625,118.43
18:27:32.406250,112.05
18:27:32.421875,107.19
18:27:32.437500,103.91
18:27:32.453125,101.65
18:27:32.468750,99.57
18:27:32.484375,96.98
18:27:32.500000,93.47
18:27:32.515625,88.98
18:27:32.531250,83.51
18:27:32.546875,76.97
18:27:32.562500,69.15
18:27:32.578125,59.73
18:27:32.593750,48.57
18:27:32.609375,35.81
18:27:32.625000,21.85
18:27:32.640625,7.10
18:27:32.656250,-8.08
18:27:32.671875,-23.41
18:27:32.687500,-38.46
18:27:32.703125,-52.60
18:27:32.718750,-65.08
18:27:32.734375,-75.14
18:27:32.750000,-82.25
18:27:32.765625,-86.30
18:27:32.781250,-87.71
18:27:32.796875,-87.24
18:27:32.812500,-85.66
18:27:32.828125,-83.44
18:27:32.843750,-80.61
18:27:32.859375,-77.22
18:27:32.875000,-73.12
18:27:32.890625,-68.16
18:27:32.906250,-62.25
18:27:32.921875,-55.53
18:27:32.937500,-48.32
18:27:32.953125,-40.95
18:27:32.968750,-33.50
18:27:32.984375,-25.72
18:27:33,-17.96
18:27:33.015625,-10.33
18:27:33.031250,-2.58
18:27:33.046875,5.72
18:27:33.062500,14.72
18:27:33.078125,24.14
18:27:33.093750,33.56
18:27:33.109375,42.77
18:27:33.125000,51.94
18:27:33.140625,59.98
18:27:33.156250,66.35
18:27:33.171875,71.52
18:27:33.187500,76.78
18:27:33.203125,82.89
18:27:33.218750,89.44
18:27:33.234375,95.11
18:27:33.250000,98.41
18:27:33.265625,98.32
18:27:33.281250,92.36
18:27:33.296875,79.68
18:27:33.312500,61.89
18:27:33.328125,42.25
18:27:33.343750,22.99
18:27:33.359375,3.87
18:27:33.375000,-17.55
18:27:33.390625,-44.44
18:27:33.406250,-79.00
18:27:33.421875,-124.64
18:27:33.437500,-181.30
18:27:33.453125,-244.32
18:27:33.468750,-305.56
18:27:33.484375,-357.34
18:27:33.500000,-395.12
18:27:33.515625,-418.34
18:27:33.531250,-429.66
18:27:33.546875,-413.13
18:27:33.562500,-362.70
18:27:33.578125,-286.23
18:27:33.593750,-202.20
18:27:33.609375,-126.83
18:27:33.625000,-67.21
18:27:33.640625,-23.06
18:27:33.656250,8.30
18:27:33.671875,29.32
18:27:33.687500,41.76
18:27:33.703125,44.17
18:27:33.718750,36.98
18:27:33.734375,22.25
18:27:33.750000,7.60
18:27:33.765625,-0.30
18:27:33.781250,2.08
18:27:33.796875,14.11
18:27:33.812500,31.96
18:27:33.828125,50.27
18:27:33.843750,61.93
18:27:33.859375,63.43
18:27:33.875000,56.58
18:27:33.890625,47.49
18:27:33.906250,42.28
18:27:33.921875,44.80
18:27:33.937500,55.44
18:27:33.953125,72.27
18:27:33.968750,91.91
18:27:33.984375,108.35
18:27:34,117.26
18:27:34.015625,118.26
18:27:34.031250,114.58
18:27:34.046875,109.54
18:27:34.062500,104.67
18:27:34.078125,99.35
18:27:34.093750,92.64
18:27:34.109375,84.11
18:27:34.125000,73.78
18:27:34.140625,63.04
18:27:34.156250,54.10
18:27:34.171875,49.20
18:27:34.187500,49.25
18:27:34.203125,55.38
18:27:34.218750,65.94
18:27:34.234375,78.92
18:27:34.250000,91.96
18:27:34.265625,101.89
18:27:34.281250,105.52
18:27:34.296875,100.44
18:27:34.312500,85.92
18:27:34.328125,63.29
18:27:34.343750,35.90
18:27:34.359375,7.95
18:27:34.375000,-16.50
18:27:34.390625,-34.95
18:27:34.406250,-46.82
18:27:34.421875,-52.84
18:27:34.437500,-54.19
18:27:34.453125,-52.00
18:27:34.468750,-47.43
18:27:34.484375,-41.65
18:27:34.500000,-36.00
18:27:34.515625,-31.60
18:27:34.531250,-29.25
18:27:34.546875,-29.11
18:27:34.562500,-30.48
18:27:34.578125,-32.12
18:27:34.593750,-32.69
18:27:34.609375,-31.36
18:27:34.625000,-28.06
18:27:34.640625,-23.55
18:27:34.656250,-18.84
18:27:34.671875,-14.90
18:27:34.687500,-12.23
18:27:34.703125,-10.67
18:27:34.718750,-9.59
18:27:34.734375,-8.16
18:27:34.750000,-5.77
18:27:34.765625,-2.21
18:27:34.781250,2.28
18:27:34.796875,7.17
18:27:34.812500,11.82
18:27:34.828125,15.65
18:27:34.843750,18.24
18:27:34.859375,19.41
18:27:34.875000,19.25
18:27:34.890625,18.07
18:27:34.906250,16.32
18:27:34.921875,14.43
18:27:34.937500,12.73
18:27:34.953125,11.34
18:27:34.968750,10.24
18:27:34.984375,9.33
18:27:35,8.55
18:27:35.015625,7.85
18:27:35.031250,7.24
18:27:35.046875,6.65
18:27:35.062500,6.03
18:27:35.078125,5.35
18:27:35.093750,4.65
18:27:35.109375,4.02
18:27:35.125000,3.54
18:27:35.140625,3.19
18:27:35.156250,2.78
18:27:35.171875,2.09
18:27:35.187500,0.97
18:27:35.203125,-0.53
18:27:35.218750,-2.20
18:27:35.234375,-3.78
18:27:35.250000,-5.10
18:27:35.265625,-6.12
18:27:35.281250,-6.92
18:27:35.296875,-7.56
18:27:35.312500,-8.08
18:27:35.328125,-8.42
18:27:35.343750,-8.54
18:27:35.359375,-8.45
18:27:35.375000,-8.24
18:27:35.390625,-7.99
18:27:35.406250,-7.76
18:27:35.421875,-7.52
18:27:35.437500,-7.17
18:27:35.453125,-6.64
18:27:35.468750,-5.95
18:27:35.484375,-5.19
18:27:35.500000,-4.56
18:27:35.515625,-4.20
18:27:35.531250,-4.19
18:27:35.546875,-4.46
18:27:35.562500,-4.87
18:27:35.578125,-5.25
18:27:35.593750,-5.44
18:27:35.609375,-5.41
18:27:35.625000,-5.17
18:27:35.640625,-4.77
18:27:35.656250,-4.30
18:27:35.671875,-3.78
18:27:35.687500,-3.25
18:27:35.703125,-2.77
18:27:35.718750,-2.38
18:27:35.734375,-2.15
18:27:35.750000,-2.10
18:27:35.765625,-2.20
18:27:35.781250,-2.38
18:27:35.796875,-2.57
18:27:35.812500,-2.74
18:27:35.828125,-2.92
18:27:35.843750,-3.14
18:27:35.859375,-3.36
18:27:35.875000,-3.48
18:27:35.890625,-3.31
18:27:35.906250,-2.67
18:27:35.921875,-1.50
18:27:35.937500,0.08
18:27:35.953125,1.76
18:27:35.968750,3.16
18:27:35.984375,3.93
18:27:36,3.93
18:27:36.015625,3.24
18:27:36.031250,2.17
18:27:36.046875,1.13
18:27:36.062500,0.47
18:27:36.078125,0.39
18:27:36.093750,0.87
18:27:36.109375,1.75
18:27:36.125000,2.82
18:27:36.140625,3.90
18:27:36.156250,4.88
18:27:36.171875,5.66
18:27:36.187500,6.19
18:27:36.203125,6.33
18:27:36.218750,6.03
18:27:36.234375,5.24
18:27:36.250000,4.05
18:27:36.265625,2.55
18:27:36.281250,0.82
18:27:36.296875,-1.06
18:27:36.312500,-3.05
18:27:36.328125,-4.97
18:27:36.343750,-6.58
18:27:36.359375,-7.57
18:27:36.375000,-7.76
18:27:36.390625,-7.18
18:27:36.406250,-6.14
18:27:36.421875,-5.12
18:27:36.437500,-4.51
18:27:36.453125,-4.53
18:27:36.468750,-5.15
18:27:36.484375,-6.19
18:27:36.500000,-7.40
18:27:36.515625,-8.64
18:27:36.531250,-9.86
18:27:36.546875,-11.10
18:27:36.562500,-12.53
18:27:36.578125,-14.30
18:27:36.593750,-16.55
18:27:36.609375,-19.32
18:27:36.625000,-22.44
18:27:36.640625,-25.63
18:27:36.656250,-28.51
18:27:36.671875,-30.80
18:27:36.687500,-32.41
18:27:36.703125,-33.56
18:27:36.718750,-34.72
18:27:36.734375,-36.40
18:27:36.750000,-38.85
18:27:36.765625,-41.82
18:27:36.781250,-44.43
18:27:36.796875,-45.36
18:27:36.812500,-43.26
18:27:36.828125,-37.21
18:27:36.843750,-27.06
18:27:36.859375,-13.53
18:27:36.875000,2.01
18:27:36.890625,17.89
18:27:36.906250,32.39
18:27:36.921875,44.17
18:27:36.937500,52.49
18:27:36.953125,57.59
18:27:36.968750,60.73
18:27:36.984375,63.87
18:27:37,68.98
18:27:37.015625,77.05
18:27:37.031250,87.49
18:27:37.046875,98.15
18:27:37.062500,106.14
18:27:37.078125,109.09
18:27:37.093750,106.11
18:27:37.109375,98.09
18:27:37.125000,87.13
18:27:37.140625,75.55
18:27:37.156250,64.99
18:27:37.171875,56.12
18:27:37.187500,48.77
18:27:37.203125,42.45
18:27:37.218750,36.71
18:27:37.234375,31.26
18:27:37.250000,25.85
18:27:37.265625,20.16
18:27:37.281250,13.78
18:27:37.296875,6.37
18:27:37.312500,-2.11
18:27:37.328125,-11.28
18:27:37.343750,-20.34
18:27:37.359375,-28.36
18:27:37.375000,-34.55
18:27:37.390625,-38.58
18:27:37.406250,-40.61
18:27:37.421875,-41.21
18:27:37.437500,-41.13
18:27:37.453125,-40.98
18:27:37.468750,-41.07
18:27:37.484375,-41.38
18:27:37.500000,-41.63
18:27:37.515625,-41.49
18:27:37.531250,-40.74
18:27:37.546875,-39.43
18:27:37.562500,-37.80
18:27:37.578125,-36.18
18:27:37.593750,-34.82
18:27:37.609375,-33.72
18:27:37.625000,-32.62
18:27:37.640625,-31.13
18:27:37.656250,-28.90
18:27:37.671875,-25.76
18:27:37.687500,-21.83
18:27:37.703125,-17.45
18:27:37.718750,-13.06
18:27:37.734375,-9.01
18:27:37.750000,-5.50
18:27:37.765625,-2.56
18:27:37.781250,-0.11
18:27:37.796875,1.98
18:27:37.812500,3.80
18:27:37.828125,5.41
18:27:37.843750,6.85
18:27:37.859375,8.14
18:27:37.875000,9.27
18:27:37.890625,10.25
18:27:37.906250,11.03
18:27:37.921875,11.58
18:27:37.937500,11.90
18:27:37.953125,11.99
18:27:37.968750,11.89
18:27:37.984375,11.67
18:27:38,11.37
18:27:38.015625,11.05
18:27:38.031250,10.76
18:27:38.046875,10.48
18:27:38.062500,10.20
18:27:38.078125,9.85
18:27:38.093750,9.37
18:27:38.109375,8.70
18:27:38.125000,7.86
18:27:38.140625,6.94
18:27:38.156250,6.03
18:27:38.171875,5.22
18:27:38.187500,4.53
18:27:38.203125,3.91
18:27:38.218750,3.26
18:27:38.234375,2.51
18:27:38.250000,1.64
18:27:38.265625,0.69
18:27:38.281250,-0.26
18:27:38.296875,-1.16
18:27:38.312500,-2.00
18:27:38.328125,-2.76
18:27:38.343750,-3.48
18:27:38.359375,-4.15
18:27:38.375000,-4.79
18:27:38.390625,-5.38
18:27:38.406250,-5.97
18:27:38.421875,-6.58
18:27:38.437500,-7.25
18:27:38.453125,-7.99
18:27:38.468750,-8.73
18:27:38.484375,-9.32
18:27:38.500000,-9.59
18:27:38.515625,-9.41
18:27:38.531250,-8.70
18:27:38.546875,-7.51
18:27:38.562500,-6.00
18:27:38.578125,-4.35
18:27:38.593750,-2.74
18:27:38.609375,-1.28
18:27:38.625000,0.03
18:27:38.640625,1.22
18:27:38.656250,2.31
18:27:38.671875,3.29
18:27:38.687500,4.07
18:27:38.703125,4.57
18:27:38.718750,4.71
18:27:38.734375,4.53
18:27:38.750000,4.11
18:27:38.765625,3.65
18:27:38.781250,3.29
18:27:38.796875,3.15
18:27:38.812500,3.26
18:27:38.828125,3.56
18:27:38.843750,3.96
18:27:38.859375,4.33
18:27:38.875000,4.60
18:27:38.890625,4.71
18:27:38.906250,4.62
18:27:38.921875,4.37
18:27:38.937500,4.01
18:27:38.953125,3.62
18:27:38.968750,3.27
18:27:38.984375,2.98
18:27:39,2.69
18:27:39.015625,2.31
18:27:39.031250,1.77
18:27:39.046875,1.09
18:27:39.062500,0.35
18:27:39.078125,-0.30
18:27:39.093750,-0.79
18:27:39.109375,-1.18
18:27:39.125000,-1.64
18:27:39.140625,-2.39
18:27:39.156250,-3.60
18:27:39.171875,-5.29
18:27:39.187500,-7.27
18:27:39.203125,-9.20
18:27:39.218750,-10.71
18:27:39.234375,-11.60
18:27:39.250000,-12.00
18:27:39.265625,-12.34
18:27:39.281250,-13.22
18:27:39.296875,-15.15
18:27:39.312500,-18.22
18:27:39.328125,-22.02
18:27:39.343750,-25.73
18:27:39.359375,-28.44
18:27:39.375000,-29.54
18:27:39.390625,-29.02
18:27:39.406250,-27.47
18:27:39.421875,-25.82
18:27:39.437500,-24.97
18:27:39.453125,-25.34
18:27:39.468750,-26.72
18:27:39.484375,-28.43
18:27:39.500000,-29.58
18:27:39.515625,-29.51
18:27:39.531250,-28.10
18:27:39.546875,-25.78
18:27:39.562500,-23.40
18:27:39.578125,-21.96
18:27:39.593750,-22.32
18:27:39.609375,-24.91
18:27:39.625000,-29.29
18:27:39.640625,-33.83
18:27:39.656250,-35.70
18:27:39.671875,-31.36
18:27:39.687500,-17.69
18:27:39.703125,6.66
18:27:39.718750,40.28
18:27:39.734375,78.95
18:27:39.750000,116.83
18:27:39.765625,148.32
18:27:39.781250,169.83
18:27:39.796875,180.61
18:27:39.812500,182.33
18:27:39.828125,177.90
18:27:39.843750,170.06
18:27:39.859375,160.61
18:27:39.875000,150.36
18:27:39.890625,139.53
18:27:39.906250,128.21
18:27:39.921875,116.53
18:27:39.937500,104.56
18:27:39.953125,92.10
18:27:39.968750,78.72
18:27:39.984375,63.93
18:27:40,47.56
18:27:40.015625,30.00
18:27:40.031250,12.20
18:27:40.046875,-4.55
18:27:40.062500,-19.06
18:27:40.078125,-30.57
18:27:40.093750,-39.02
18:27:40.109375,-44.97
18:27:40.125000,-49.33
18:27:40.140625,-52.98
18:27:40.156250,-56.52
18:27:40.171875,-60.09
18:27:40.187500,-63.51
18:27:40.203125,-66.44
18:27:40.218750,-68.62
18:27:40.234375,-70.05
18:27:40.250000,-70.91
18:27:40.265625,-71.54
18:27:40.281250,-72.22
18:27:40.296875,-73.05
18:27:40.312500,-73.96
18:27:40.328125,-74.65
18:27:40.343750,-74.74
18:27:40.359375,-73.86
18:27:40.375000,-71.78
18:27:40.390625,-68.52
18:27:40.406250,-64.29
18:27:40.421875,-59.48
18:27:40.437500,-54.50
18:27:40.453125,-49.67
18:27:40.468750,-45.14
18:27:40.484375,-40.90
18:27:40.500000,-36.89
18:27:40.515625,-33.03
18:27:40.531250,-29.30
18:27:40.546875,-25.74
18:27:40.562500,-22.41
18:27:40.578125,-19.36
18:27:40.593750,-16.58
18:27:40.609375,-14.06
18:27:40.625000,-11.75
18:27:40.640625,-9.67
18:27:40.656250,-7.78
18:27:40.671875,-6.07
18:27:40.687500,-4.49
18:27:40.703125,-3.02
18:27:40.718750,-1.71
18:27:40.734375,-0.68
18:27:40.750000,-0.12
18:27:40.765625,-0.14
18:27:40.781250,-0.75
18:27:40.796875,-1.72
18:27:40.812500,-2.69
18:27:40.828125,-3.23
18:27:40.843750,-2.98
18:27:40.859375,-1.80
18:27:40.875000,0.30
18:27:40.890625,3.17
18:27:40.906250,6.64
18:27:40.921875,10.60
18:27:40.937500,14.98
18:27:40.953125,19.62
18:27:40.968750,24.22
18:27:40.984375,28.38
18:27:41,31.65
18:27:41.015625,33.70
18:27:41.031250,34.42
18:27:41.046875,33.90
18:27:41.062500,32.37
18:27:41.078125,30.01
18:27:41.093750,26.93
18:27:41.109375,23.20
18:27:41.125000,18.91
18:27:41.140625,14.29
18:27:41.156250,9.65
18:27:41.171875,5.31
18:27:41.187500,1.50
18:27:41.203125,-1.71
18:27:41.218750,-4.42
18:27:41.234375,-6.80
18:27:41.250000,-9.03
18:27:41.265625,-11.22
18:27:41.281250,-13.40
18:27:41.296875,-15.46
18:27:41.312500,-17.25
18:27:41.328125,-18.51
18:27:41.343750,-19.05
18:27:41.359375,-18.78
18:27:41.375000,-17.76
18:27:41.390625,-16.27
18:27:41.406250,-14.59
18:27:41.421875,-12.98
18:27:41.437500,-11.51
18:27:41.453125,-10.11
18:27:41.468750,-8.63
18:27:41.484375,-6.99
18:27:41.500000,-5.24
18:27:41.515625,-3.52
18:27:41.531250,-1.97
18:27:41.546875,-0.68
18:27:41.562500,0.39
18:27:41.578125,1.28
18:27:41.593750,2.03
18:27:41.609375,2.61
18:27:41.625000,2.98
18:27:41.640625,3.16
18:27:41.656250,3.24
18:27:41.671875,3.38
18:27:41.687500,3.73
18:27:41.703125,4.33
18:27:41.718750,5.09
18:27:41.734375,5.83
18:27:41.750000,6.36
18:27:41.765625,6.58
18:27:41.781250,6.52
18:27:41.796875,6.30
18:27:41.812500,6.09
18:27:41.828125,5.97
18:27:41.843750,5.95
18:27:41.859375,5.97
18:27:41.875000,5.98
18:27:41.890625,5.93
18:27:41.906250,5.82
18:27:41.921875,5.64
18:27:41.937500,5.37
18:27:41.953125,4.96
18:27:41.968750,4.38
18:27:41.984375,3.63
18:27:42,2.78
18:27:42.015625,1.93
18:27:42.031250,1.19
18:27:42.046875,0.62
18:27:42.062500,0.20
18:27:42.078125,-0.11
18:27:42.093750,-0.38
18:27:42.109375,-0.65
18:27:42.125000,-0.92
18:27:42.140625,-1.20
18:27:42.156250,-1.54
18:27:42.171875,-1.99
18:27:42.187500,-2.59
18:27:42.203125,-3.35
18:27:42.218750,-4.23
18:27:42.234375,-5.15
18:27:42.250000,-6.05
18:27:42.265625,-6.90
18:27:42.281250,-7.68
18:27:42.296875,-8.37
18:27:42.312500,-8.89
18:27:42.328125,-9.14
18:27:42.343750,-9.02
18:27:42.359375,-8.49
18:27:42.375000,-7.63
18:27:42.390625,-6.58
18:27:42.406250,-5.46
18:27:42.421875,-4.38
18:27:42.437500,-3.34
18:27:42.453125,-2.29
18:27:42.468750,-1.21
18:27:42.484375,-0.11
18:27:42.500000,0.89
18:27:42.515625,1.67
18:27:42.531250,2.11
18:27:42.546875,2.19
18:27:42.562500,1.98
18:27:42.578125,1.63
18:27:42.593750,1.34
18:27:42.609375,1.24
18:27:42.625000,1.35
18:27:42.640625,1.57
18:27:42.656250,1.71
18:27:42.671875,1.60
18:27:42.687500,1.17
18:27:42.703125,0.46
18:27:42.718750,-0.37
18:27:42.734375,-1.16
18:27:42.750000,-1.78
18:27:42.765625,-2.23
18:27:42.781250,-2.53
18:27:42.796875,-2.78
18:27:42.812500,-3.01
18:27:42.828125,-3.26
18:27:42.843750,-3.51
18:27:42.859375,-3.77
18:27:42.875000,-4.04
18:27:42.890625,-4.30
18:27:42.906250,-4.53
18:27:42.921875,-4.70
18:27:42.937500,-4.79
18:27:42.953125,-4.80
18:27:42.968750,-4.72
18:27:42.984375,-4.57
18:27:43,-4.34
18:27:43.015625,-4.04
18:27:43.031250,-3.73
18:27:43.046875,-3.47
18:27:43.062500,-3.34
18:27:43.078125,-3.35
18:27:43.093750,-3.42
18:27:43.109375,-3.42
18:27:43.125000,-3.22
18:27:43.140625,-2.76
18:27:43.156250,-2.15
18:27:43.171875,-1.58
18:27:43.187500,-1.24
18:27:43.203125,-1.25
18:27:43.218750,-1.55
18:27:43.234375,-2.04
18:27:43.250000,-2.56
18:27:43.265625,-3.00
18:27:43.281250,-3.29
18:27:43.296875,-3.37
18:27:43.312500,-3.14
18:27:43.328125,-2.55
18:27:43.343750,-1.59
18:27:43.359375,-0.38
18:27:43.375000,0.83
18:27:43.390625,1.86
18:27:43.406250,2.60
18:27:43.421875,3.11
18:27:43.437500,3.59
18:27:43.453125,4.21
18:27:43.468750,5.03
18:27:43.484375,5.95
18:27:43.500000,6.79
18:27:43.515625,7.37
18:27:43.531250,7.67
18:27:43.546875,7.75
18:27:43.562500,7.71
18:27:43.578125,7.62
18:27:43.593750,7.47
18:27:43.609375,7.18
18:27:43.625000,6.72
18:27:43.640625,6.14
18:27:43.656250,5.57
18:27:43.671875,5.21
18:27:43.687500,5.21
18:27:43.703125,5.71
18:27:43.718750,6.75
18:27:43.734375,8.32
18:27:43.750000,10.30
18:27:43.765625,12.51
18:27:43.781250,14.65
18:27:43.796875,16.43
18:27:43.812500,17.58
18:27:43.828125,18.00
18:27:43.843750,17.74
18:27:43.859375,17.04
18:27:43.875000,16.15
18:27:43.890625,15.31
18:27:43.906250,14.65
18:27:43.921875,14.13
18:27:43.937500,13.71
18:27:43.953125,13.30
18:27:43.968750,12.85
18:27:43.984375,12.35
18:27:44,11.83
18:27:44.015625,11.34
18:27:44.031250,10.90
18:27:44.046875,10.53
18:27:44.062500,10.20
18:27:44.078125,9.84
18:27:44.093750,9.41
18:27:44.109375,8.86
18:27:44.125000,8.17
18:27:44.140625,7.39
18:27:44.156250,6.54
18:27:44.171875,5.69
18:27:44.187500,4.85
18:27:44.203125,4.01
18:27:44.218750,3.17
18:27:44.234375,2.35
18:27:44.250000,1.54
18:27:44.265625,0.80
18:27:44.281250,0.17
18:27:44.296875,-0.30
18:27:44.312500,-0.62
18:27:44.328125,-0.79
18:27:44.343750,-0.85
18:27:44.359375,-0.89
18:27:44.375000,-1.00
18:27:44.390625,-1.30
18:27:44.406250,-1.87
18:27:44.421875,-2.72
18:27:44.437500,-3.82
18:27:44.453125,-5.02
18:27:44.468750,-6.20
18:27:44.484375,-7.18
18:27:44.500000,-7.88
18:27:44.515625,-8.27
18:27:44.531250,-8.40
18:27:44.546875,-8.38
18:27:44.562500,-8.33
18:27:44.578125,-8.35
18:27:44.593750,-8.50
18:27:44.609375,-8.80
18:27:44.625000,-9.23
18:27:44.640625,-9.72
18:27:44.656250,-10.17
18:27:44.671875,-10.47
18:27:44.687500,-10.53
18:27:44.703125,-10.29
18:27:44.718750,-9.80
18:27:44.734375,-9.15
18:27:44.750000,-8.51
18:27:44.765625,-7.99
18:27:44.781250,-7.70
18:27:44.796875,-7.61
18:27:44.812500,-7.62
18:27:44.828125,-7.63
18:27:44.843750,-7.58
18:27:44.859375,-7.44
18:27:44.875000,-7.27
18:27:44.890625,-7.11
18:27:44.906250,-6.98
18:27:44.921875,-6.86
18:27:44.937500,-6.72
18:27:44.953125,-6.59
18:27:44.968750,-6.54
18:27:44.984375,-6.65
18:27:45,-6.98
18:27:45.015625,-7.47
18:27:45.031250,-7.99
18:27:45.046875,-8.41
18:27:45.062500,-8.62
18:27:45.078125,-8.63
18:27:45.093750,-8.48
18:27:45.109375,-8.22
18:27:45.125000,-7.84
18:27:45.140625,-7.31
18:27:45.156250,-6.57
18:27:45.171875,-5.62
18:27:45.187500,-4.54
18:27:45.203125,-3.43
18:27:45.218750,-2.39
18:27:45.234375,-1.46
18:27:45.250000,-0.62
18:27:45.265625,0.15
18:27:45.281250,0.84
18:27:45.296875,1.41
18:27:45.312500,1.78
18:27:45.328125,1.94
18:27:45.343750,1.98
18:27:45.359375,2.09
18:27:45.375000,2.51
18:27:45.390625,3.37
18:27:45.406250,4.60
18:27:45.421875,5.97
18:27:45.437500,7.13
18:27:45.453125,7.78
18:27:45.468750,7.83
18:27:45.484375,7.36
18:27:45.500000,6.61
18:27:45.515625,5.79
18:27:45.531250,5.03
18:27:45.546875,4.33
18:27:45.562500,3.64
18:27:45.578125,2.93
18:27:45.593750,2.24
18:27:45.609375,1.65
18:27:45.625000,1.19
18:27:45.640625,0.85
18:27:45.656250,0.55
18:27:45.671875,0.25
18:27:45.687500,-0.09
18:27:45.703125,-0.42
18:27:45.718750,-0.72
18:27:45.734375,-1.00
18:27:45.750000,-1.29
18:27:45.765625,-1.65
18:27:45.781250,-2.07
18:27:45.796875,-2.51
18:27:45.812500,-2.90
18:27:45.828125,-3.21
18:27:45.843750,-3.47
18:27:45.859375,-3.74
18:27:45.875000,-4.05
18:27:45.890625,-4.40
18:27:45.906250,-4.75
18:27:45.921875,-5.06
18:27:45.937500,-5.32
18:27:45.953125,-5.52
18:27:45.968750,-5.66
18:27:45.984375,-5.69
18:27:46,-5.48
18:27:46.015625,-4.94
18:27:46.031250,-4.08
18:27:46.046875,-3.00
18:27:46.062500,-1.91
18:27:46.078125,-0.99
18:27:46.093750,-0.33
18:27:46.109375,0.09
18:27:46.125000,0.34
18:27:46.140625,0.54
18:27:46.156250,0.73
18:27:46.171875,0.94
18:27:46.187500,1.16
18:27:46.203125,1.43
18:27:46.218750,1.76
18:27:46.234375,2.18
18:27:46.250000,2.65
18:27:46.265625,3.09
18:27:46.281250,3.44
18:27:46.296875,3.68
18:27:46.312500,3.87
18:27:46.328125,4.07
18:27:46.343750,4.37
18:27:46.359375,4.70
18:27:46.375000,4.94
18:27:46.390625,5.02
18:27:46.406250,5.00
18:27:46.421875,5.00
18:27:46.437500,5.09
18:27:46.453125,5.31
18:27:46.468750,5.61
18:27:46.484375,5.91
18:27:46.500000,6.07
18:27:46.515625,6.02
18:27:46.531250,5.83
18:27:46.546875,5.65
18:27:46.562500,5.70
18:27:46.578125,6.06
18:27:46.593750,6.72
18:27:46.609375,7.60
18:27:46.625000,8.57
18:27:46.640625,9.29
18:27:46.656250,9.57
18:27:46.671875,9.47
18:27:46.687500,9.35
18:27:46.703125,9.75
18:27:46.718750,11.03
18:27:46.734375,13.28
18:27:46.750000,16.34
18:27:46.765625,19.94
18:27:46.781250,23.23
18:27:46.796875,25.57
18:27:46.812500,26.97
18:27:46.828125,28.13
18:27:46.843750,30.00
18:27:46.859375,33.18
18:27:46.875000,37.71
18:27:46.890625,43.27
18:27:46.906250,49.46
18:27:46.921875,54.77
18:27:46.937500,58.00
18:27:46.953125,59.02
18:27:46.968750,58.99
18:27:46.984375,59.52
18:27:47,61.64
18:27:47.015625,65.50
18:27:47.031250,70.70
18:27:47.046875,76.66
18:27:47.062500,80.74
18:27:47.078125,80.44
18:27:47.093750,74.68
18:27:47.109375,64.41
18:27:47.125000,51.68
18:27:47.140625,38.23
18:27:47.156250,24.81
18:27:47.171875,11.21
18:27:47.187500,-3.64
18:27:47.203125,-24.13
18:27:47.218750,-54.64
18:27:47.234375,-97.05
18:27:47.250000,-149.35
18:27:47.265625,-206.86
18:27:47.281250,-264.54
18:27:47.296875,-318.63
18:27:47.312500,-367.10
18:27:47.328125,-392.40
18:27:47.343750,-381.62
18:27:47.359375,-333.79
18:27:47.375000,-262.40
18:27:47.390625,-185.79
18:27:47.406250,-116.70
18:27:47.421875,-60.03
18:27:47.437500,-15.78
18:27:47.453125,18.05
18:27:47.468750,43.96
18:27:47.484375,61.72
18:27:47.500000,70.97
18:27:47.515625,72.72
18:27:47.531250,70.03
18:27:47.546875,66.43
18:27:47.562500,64.26
18:27:47.578125,64.13
18:27:47.593750,65.78
18:27:47.609375,68.88
18:27:47.625000,71.36
18:27:47.640625,71.44
18:27:47.656250,68.76
18:27:47.671875,64.51
18:27:47.687500,60.30
18:27:47.703125,56.88
18:27:47.718750,53.91
18:27:47.734375,51.00
18:27:47.750000,48.28
18:27:47.765625,45.22
18:27:47.781250,41.52
18:27:47.796875,37.37
18:27:47.812500,33.31
18:27:47.828125,29.63
18:27:47.843750,25.37
18:27:47.859375,19.79
18:27:47.875000,12.86
18:27:47.890625,5.59
18:27:47.906250,-0.91
18:27:47.921875,-5.71
18:27:47.937500,-8.33
18:27:47.953125,-9.14
18:27:47.968750,-9.44
18:27:47.984375,-11.06
18:27:48,-16.08
18:27:48.015625,-25.35
18:27:48.031250,-38.92
18:27:48.046875,-55.98
18:27:48.062500,-74.56
18:27:48.078125,-91.20
18:27:48.093750,-101.13
18:27:48.109375,-99.60
18:27:48.125000,-81.33
18:27:48.140625,-49.50
18:27:48.156250,-11.64
18:27:48.171875,22.69
18:27:48.187500,45.66
18:27:48.203125,54.40
18:27:48.218750,51.89
18:27:48.234375,44.77
18:27:48.250000,39.41
18:27:48.265625,38.80
18:27:48.281250,41.31
18:27:48.296875,43.51
18:27:48.312500,42.71
18:27:48.328125,38.93
18:27:48.343750,34.68
18:27:48.359375,33.09
18:27:48.375000,35.68
18:27:48.390625,41.20
18:27:48.406250,46.67
18:27:48.421875,48.56
18:27:48.437500,45.71
18:27:48.453125,39.52
18:27:48.468750,33.26
18:27:48.484375,30.24
18:27:48.500000,32.38
18:27:48.515625,39.99
18:27:48.531250,50.79
18:27:48.546875,61.87
18:27:48.562500,70.28
18:27:48.578125,74.03
18:27:48.593750,72.11
18:27:48.609375,64.54
18:27:48.625000,52.21
18:27:48.640625,37.15
18:27:48.656250,22.20
18:27:48.671875,10.21
18:27:48.687500,3.38
18:27:48.703125,2.20
18:27:48.718750,5.58
18:27:48.734375,11.13
18:27:48.750000,16.69
18:27:48.765625,20.98
18:27:48.781250,24.38
18:27:48.796875,28.27
18:27:48.812500,33.60
18:27:48.828125,40.04
18:27:48.843750,45.48
18:27:48.859375,47.02
18:27:48.875000,42.01
18:27:48.890625,29.97
18:27:48.906250,12.65
18:27:48.921875,-6.09
18:27:48.937500,-22.08
18:27:48.953125,-32.92
18:27:48.968750,-38.70
18:27:48.984375,-41.78
18:27:49,-45.28
18:27:49.015625,-51.87
18:27:49.031250,-61.87
18:27:49.046875,-73.84
18:27:49.062500,-84.80
18:27:49.078125,-91.72
18:27:49.093750,-93.25
18:27:49.109375,-90.24
18:27:49.125000,-85.88
18:27:49.140625,-81.44
18:27:49.156250,-80.13
18:27:49.171875,-80.76
18:27:49.187500,-82.98
18:27:49.203125,-85.97
18:27:49.218750,-88.11
18:27:49.234375,-87.68
18:27:49.250000,-82.88
18:27:49.265625,-72.62
18:27:49.281250,-57.09
18:27:49.296875,-38.35
18:27:49.312500,-19.62
18:27:49.328125,-5.33
18:27:49.343750,0.18
18:27:49.359375,-2.62
18:27:49.375000,-10.56
18:27:49.390625,-18.11
18:27:49.406250,-19.18
18:27:49.421875,-9.96
18:27:49.437500,8.86
18:27:49.453125,32.63
18:27:49.468750,54.21
18:27:49.484375,67.61
18:27:49.500000,70.87
18:27:49.515625,63.71
18:27:49.531250,48.84
18:27:49.546875,30.45
18:27:49.562500,12.26
18:27:49.578125,-3.41
18:27:49.593750,-14.39
18:27:49.609375,-18.29
18:27:49.625000,-14.24
18:27:49.640625,-3.15
18:27:49.656250,12.85
18:27:49.671875,31.31
18:27:49.687500,49.60
18:27:49.703125,64.69
18:27:49.718750,73.72
18:27:49.734375,75.06
18:27:49.750000,68.56
18:27:49.765625,56.58
18:27:49.781250,44.25
18:27:49.796875,39.37
18:27:49.812500,46.58
18:27:49.828125,66.97
18:27:49.843750,96.31
18:27:49.859375,125.65
18:27:49.875000,144.30
18:27:49.890625,142.80
18:27:49.906250,117.02
18:27:49.921875,70.17
18:27:49.937500,10.89
18:27:49.953125,-50.31
18:27:49.968750,-103.92
18:27:49.984375,-143.37
18:27:50,-162.26
18:27:50.015625,-155.79
18:27:50.031250,-124.68
18:27:50.046875,-76.45
18:27:50.062500,-23.74
18:27:50.078125,19.68
18:27:50.093750,44.43
18:27:50.109375,50.42
18:27:50.125000,46.93
18:27:50.140625,45.28
18:27:50.156250,55.39
18:27:50.171875,75.63
18:27:50.187500,91.90
18:27:50.203125,88.81
18:27:50.218750,61.70
18:27:50.234375,19.25
18:27:50.250000,-22.88
18:27:50.265625,-51.75
18:27:50.281250,-63.54
18:27:50.296875,-63.13
18:27:50.312500,-59.76
18:27:50.328125,-60.27
18:27:50.343750,-65.23
18:27:50.359375,-70.57
18:27:50.375000,-71.99
18:27:50.390625,-68.77
18:27:50.406250,-64.37
18:27:50.421875,-64.07
18:27:50.437500,-71.91
18:27:50.453125,-86.71
18:27:50.468750,-102.68
18:27:50.484375,-110.90
18:27:50.500000,-103.67
18:27:50.515625,-78.63
18:27:50.531250,-40.32
18:27:50.546875,2.34
18:27:50.562500,36.87
18:27:50.578125,55.92
18:27:50.593750,58.91
18:27:50.609375,50.76
18:27:50.625000,38.80
18:27:50.640625,29.00
18:27:50.656250,23.82
18:27:50.671875,22.47
18:27:50.687500,22.77
18:27:50.703125,22.78
18:27:50.718750,22.18
18:27:50.734375,21.30
18:27:50.750000,20.56
18:27:50.765625,20.27
18:27:50.781250,20.65
18:27:50.796875,21.56
18:27:50.812500,22.93
18:27:50.828125,24.73
18:27:50.843750,26.95
18:27:50.859375,30.41
18:27:50.875000,34.86
18:27:50.890625,39.85
18:27:50.906250,44.84
18:27:50.921875,49.37
18:27:50.937500,53.15
18:27:50.953125,56.28
18:27:50.968750,59.39
18:27:50.984375,63.35
18:27:51,68.95
18:27:51.015625,75.77
18:27:51.031250,81.91
18:27:51.046875,84.18
18:27:51.062500,79.44
18:27:51.078125,66.07
18:27:51.093750,45.09
18:27:51.109375,20.05
18:27:51.125000,-4.28
18:27:51.140625,-23.59
18:27:51.156250,-35.80
18:27:51.171875,-41.19
18:27:51.187500,-41.76
18:27:51.203125,-39.80
18:27:51.218750,-36.85
18:27:51.234375,-33.48
18:27:51.250000,-29.68
18:27:51.265625,-25.57
18:27:51.281250,-21.66
18:27:51.296875,-18.79
18:27:51.312500,-17.51
18:27:51.328125,-17.76
18:27:51.343750,-18.94
18:27:51.359375,-19.87
18:27:51.375000,-19.73
18:27:51.390625,-18.31
18:27:51.406250,-16.07
18:27:51.421875,-13.82
18:27:51.437500,-12.34
18:27:51.453125,-12.01
18:27:51.468750,-12.65
18:27:51.484375,-13.71
18:27:51.500000,-14.51
18:27:51.515625,-14.58
18:27:51.531250,-13.78
18:27:51.546875,-12.34
18:27:51.562500,-10.65
18:27:51.578125,-9.13
18:27:51.593750,-8.03
18:27:51.609375,-7.39
18:27:51.625000,-7.08
18:27:51.640625,-6.85
18:27:51.656250,-6.54
18:27:51.671875,-6.06
18:27:51.687500,-5.41
18:27:51.703125,-4.70
18:27:51.718750,-4.05
18:27:51.734375,-3.55
18:27:51.750000,-3.25
18:27:51.765625,-3.12
18:27:51.781250,-3.08
18:27:51.796875,-3.07
18:27:51.812500,-3.05
18:27:51.828125,-2.99
18:27:51.843750,-2.90
18:27:51.859375,-2.82
18:27:51.875000,-2.75
18:27:51.890625,-2.71
18:27:51.906250,-2.67
18:27:51.921875,-2.64
18:27:51.937500,-2.58
18:27:51.953125,-2.51
18:27:51.968750,-2.40
18:27:51.984375,-2.25
18:27:52,-2.10
18:27:52.015625,-2.00
18:27:52.031250,-2.02
18:27:52.046875,-2.21
18:27:52.062500,-2.56
18:27:52.078125,-3.00
18:27:52.093750,-3.41
18:27:52.109375,-3.72
18:27:52.125000,-3.89
18:27:52.140625,-3.93
18:27:52.156250,-3.83
18:27:52.171875,-3.60
18:27:52.187500,-3.15
18:27:52.203125,-2.39
18:27:52.218750,-1.24
18:27:52.234375,0.27
18:27:52.250000,2.05
18:27:52.265625,3.92
18:27:52.281250,5.72
18:27:52.296875,7.35
18:27:52.312500,8.79
18:27:52.328125,10.11
18:27:52.343750,11.41
18:27:52.359375,12.76
18:27:52.375000,14.15
18:27:52.390625,15.56
18:27:52.406250,16.91
18:27:52.421875,18.19
18:27:52.437500,19.41
18:27:52.453125,20.62
18:27:52.468750,21.91
18:27:52.484375,23.35
18:27:52.500000,24.94
18:27:52.515625,26.63
18:27:52.531250,28.34
18:27:52.546875,29.98
18:27:52.562500,31.50
18:27:52.578125,32.95
18:27:52.593750,34.40
18:27:52.609375,35.92
18:27:52.625000,37.48
18:27:52.640625,38.87
18:27:52.656250,39.80
18:27:52.671875,40.04
18:27:52.687500,39.53
18:27:52.703125,38.37
18:27:52.718750,36.60
18:27:52.734375,33.94
18:27:52.750000,29.68
18:27:52.765625,22.86
18:27:52.781250,12.67
18:27:52.796875,-1.06
18:27:52.812500,-17.71
18:27:52.828125,-35.94
18:27:52.843750,-54.15
18:27:52.859375,-70.88
18:27:52.875000,-85.05
18:27:52.890625,-95.99
18:27:52.906250,-103.38
18:27:52.921875,-107.12
18:27:52.937500,-107.49
18:27:52.953125,-105.19
18:27:52.968750,-101.29
18:27:52.984375,-96.96
18:27:53,-93.02
18:27:53.015625,-89.54
18:27:53.031250,-85.88
18:27:53.046875,-80.99
18:27:53.062500,-73.99
18:27:53.078125,-64.65
18:27:53.093750,-53.54
18:27:53.109375,-41.77
18:27:53.125000,-30.48
18:27:53.140625,-20.47
18:27:53.156250,-11.98
18:27:53.171875,-4.89
18:27:53.187500,0.97
18:27:53.203125,5.62
18:27:53.218750,8.91
18:27:53.234375,10.73
18:27:53.250000,11.16
18:27:53.265625,10.60
18:27:53.281250,9.62
18:27:53.296875,8.78
18:27:53.312500,8.38
18:27:53.328125,8.49
18:27:53.343750,8.98
18:27:53.359375,9.67
18:27:53.375000,10.43
18:27:53.390625,11.25
18:27:53.406250,12.21
18:27:53.421875,13.35
18:27:53.437500,14.71
18:27:53.453125,16.20
18:27:53.468750,17.68
18:27:53.484375,18.93
18:27:53.500000,19.72
18:27:53.515625,19.95
18:27:53.531250,19.64
18:27:53.546875,18.95
18:27:53.562500,18.14
18:27:53.578125,17.44
18:27:53.593750,16.96
18:27:53.609375,16.62
18:27:53.625000,16.29
18:27:53.640625,15.76
18:27:53.656250,14.92
18:27:53.671875,13.80
18:27:53.687500,12.54
18:27:53.703125,11.31
18:27:53.718750,10.23
18:27:53.734375,9.33
18:27:53.750000,8.51
18:27:53.765625,7.65
18:27:53.781250,6.64
18:27:53.796875,5.46
18:27:53.812500,4.14
18:27:53.828125,2.80
18:27:53.843750,1.54
18:27:53.859375,0.49
18:27:53.875000,-0.24
18:27:53.890625,-0.54
18:27:53.906250,-0.35
18:27:53.921875,0.30
18:27:53.937500,1.32
18:27:53.953125,2.46
18:27:53.968750,3.50
18:27:53.984375,4.26
18:27:54,4.68
18:27:54.015625,4.88
18:27:54.031250,5.04
18:27:54.046875,5.33
18:27:54.062500,5.79
18:27:54.078125,6.38
18:27:54.093750,6.95
18:27:54.109375,7.38
18:27:54.125000,7.63
18:27:54.140625,7.75
18:27:54.156250,7.83
18:27:54.171875,7.90
18:27:54.187500,7.96
18:27:54.203125,7.96
18:27:54.218750,7.83
18:27:54.234375,7.59
18:27:54.250000,7.31
18:27:54.265625,7.09
18:27:54.281250,7.02
18:27:54.296875,7.10
18:27:54.312500,7.26
18:27:54.328125,7.38
18:27:54.343750,7.34
18:27:54.359375,7.09
18:27:54.375000,6.66
18:27:54.390625,6.15
18:27:54.406250,5.66
18:27:54.421875,5.23
18:27:54.437500,4.84
18:27:54.453125,4.38
18:27:54.468750,3.81
18:27:54.484375,3.14
18:27:54.500000,2.45
18:27:54.515625,1.82
18:27:54.531250,1.31
18:27:54.546875,0.88
18:27:54.562500,0.45
18:27:54.578125,-0.05
18:27:54.593750,-0.64
18:27:54.609375,-1.27
18:27:54.625000,-1.86
18:27:54.640625,-2.38
18:27:54.656250,-2.83
18:27:54.671875,-3.23
18:27:54.687500,-3.58
18:27:54.703125,-3.85
18:27:54.718750,-3.97
18:27:54.734375,-3.89
18:27:54.750000,-3.58
18:27:54.765625,-3.13
18:27:54.781250,-2.63
18:27:54.796875,-2.16
18:27:54.812500,-1.81
18:27:54.828125,-1.54
18:27:54.843750,-1.28
18:27:54.859375,-0.94
18:27:54.875000,-0.43
18:27:54.890625,0.23
18:27:54.906250,0.96
18:27:54.921875,1.62
18:27:54.937500,2.07
18:27:54.953125,2.26
18:27:54.968750,2.26
18:27:54.984375,2.21
18:27:55,2.25
18:27:55.015625,2.48
18:27:55.031250,2.90
18:27:55.046875,3.40
18:27:55.062500,3.88
18:27:55.078125,4.25
18:27:55.093750,4.46
18:27:55.109375,4.55
18:27:55.125000,4.56
18:27:55.140625,4.52
18:27:55.156250,4.49
18:27:55.171875,4.45
18:27:55.187500,4.41
18:27:55.203125,4.34
18:27:55.218750,4.20
18:27:55.234375,3.99
18:27:55.250000,3.70
18:27:55.265625,3.34
18:27:55.281250,2.90
18:27:55.296875,2.38
18:27:55.312500,1.77
18:27:55.328125,1.10
18:27:55.343750,0.43
18:27:55.359375,-0.13
18:27:55.375000,-0.50
18:27:55.390625,-0.63
18:27:55.406250,-0.58
18:27:55.421875,-0.48
18:27:55.437500,-0.47
18:27:55.453125,-0.64
18:27:55.468750,-1.02
18:27:55.484375,-1.58
18:27:55.500000,-2.28
18:27:55.515625,-3.09
18:27:55.531250,-3.99
18:27:55.546875,-4.94
18:27:55.562500,-5.88
18:27:55.578125,-6.69
18:27:55.593750,-7.25
18:27:55.609375,-7.46
18:27:55.625000,-7.26
18:27:55.640625,-6.67
18:27:55.656250,-5.73
18:27:55.671875,-4.53
18:27:55.687500,-3.18
18:27:55.703125,-1.84
18:27:55.718750,-0.60
18:27:55.734375,0.44
18:27:55.750000,1.27
18:27:55.765625,1.89
18:27:55.781250,2.38
18:27:55.796875,2.76
18:27:55.812500,3.04
18:27:55.828125,3.17
18:27:55.843750,3.13
18:27:55.859375,2.90
18:27:55.875000,2.49
18:27:55.890625,1.99
18:27:55.906250,1.50
18:27:55.921875,1.14
18:27:55.937500,0.98
18:27:55.953125,1.05
18:27:55.968750,1.31
18:27:55.984375,1.67
18:27:56,2.03
18:27:56.015625,2.33
18:27:56.031250,2.57
18:27:56.046875,2.80
18:27:56.062500,3.09
18:27:56.078125,3.47
18:27:56.093750,3.93
18:27:56.109375,4.38
18:27:56.125000,4.75
18:27:56.140625,4.98
18:27:56.156250,5.03
18:27:56.171875,4.92
18:27:56.187500,4.67
18:27:56.203125,4.32
18:27:56.218750,3.91
18:27:56.234375,3.45
18:27:56.250000,2.92
18:27:56.265625,2.28
18:27:56.281250,1.52
18:27:56.296875,0.66
18:27:56.312500,-0.26
18:27:56.328125,-1.14
18:27:56.343750,-1.93
18:27:56.359375,-2.59
18:27:56.375000,-3.14
18:27:56.390625,-3.65
18:27:56.406250,-4.17
18:27:56.421875,-4.68
18:27:56.437500,-5.14
18:27:56.453125,-5.47
18:27:56.468750,-5.57
18:27:56.484375,-5.41
18:27:56.500000,-4.99
18:27:56.515625,-4.36
18:27:56.531250,-3.61
18:27:56.546875,-2.85
18:27:56.562500,-2.19
18:27:56.578125,-1.70
18:27:56.593750,-1.39
18:27:56.609375,-1.18
18:27:56.625000,-0.95
18:27:56.640625,-0.53
18:27:56.656250,0.17
18:27:56.671875,1.14
18:27:56.687500,2.29
18:27:56.703125,3.42
18:27:56.718750,4.38
18:27:56.734375,5.03
18:27:56.750000,5.32
18:27:56.765625,5.28
18:27:56.781250,5.01
18:27:56.796875,4.69
18:27:56.812500,4.48
18:27:56.828125,4.52
18:27:56.843750,4.88
18:27:56.859375,5.48
18:27:56.875000,6.16
18:27:56.890625,6.69
18:27:56.906250,6.91
18:27:56.921875,6.75
18:27:56.937500,6.30
18:27:56.953125,5.73
18:27:56.968750,5.18
18:27:56.984375,4.72
18:27:57,4.30
18:27:57.015625,3.89
18:27:57.031250,3.44
18:27:57.046875,2.97
18:27:57.062500,2.51
18:27:57.078125,2.08
18:27:57.093750,1.67
18:27:57.109375,1.25
18:27:57.125000,0.80
18:27:57.140625,0.36
18:27:57.156250,0.02
18:27:57.171875,-0.15
18:27:57.187500,-0.14
18:27:57.203125,-0.02
18:27:57.218750,0.08
18:27:57.234375,0.03
18:27:57.250000,-0.25
18:27:57.265625,-0.79
18:27:57.281250,-1.54
18:27:57.296875,-2.38
18:27:57.312500,-3.22
18:27:57.328125,-3.96
18:27:57.343750,-4.59
18:27:57.359375,-5.15
18:27:57.375000,-5.66
18:27:57.390625,-6.09
18:27:57.406250,-6.34
18:27:57.421875,-6.22
18:27:57.437500,-5.61
18:27:57.453125,-4.50
18:27:57.468750,-3.05
18:27:57.484375,-1.54
18:27:57.500000,-0.21
18:27:57.515625,0.82
18:27:57.531250,1.56
18:27:57.546875,2.18
18:27:57.562500,2.81
18:27:57.578125,3.51
18:27:57.593750,4.22
18:27:57.609375,4.86
18:27:57.625000,5.37
18:27:57.640625,5.75
18:27:57.656250,6.07
18:27:57.671875,6.36
18:27:57.687500,6.65
18:27:57.703125,6.94
18:27:57.718750,7.22
18:27:57.734375,7.51
18:27:57.750000,7.88
18:27:57.765625,8.34
18:27:57.781250,8.90
18:27:57.796875,9.48
18:27:57.812500,10.00
18:27:57.828125,10.39
18:27:57.843750,10.64
18:27:57.859375,10.80
18:27:57.875000,10.92
18:27:57.890625,11.09
18:27:57.906250,11.30
18:27:57.921875,11.54
18:27:57.937500,11.72
18:27:57.953125,11.77
18:27:57.968750,11.60
18:27:57.984375,11.17
18:27:58,10.52
18:27:58.015625,9.73
18:27:58.031250,8.91
18:27:58.046875,8.15
18:27:58.062500,7.47
18:27:58.078125,6.82
18:27:58.093750,6.12
18:27:58.109375,5.31
18:27:58.125000,4.32
18:27:58.140625,3.15
18:27:58.156250,1.80
18:27:58.171875,0.30
18:27:58.187500,-1.26
18:27:58.203125,-2.73
18:27:58.218750,-3.99
18:27:58.234375,-4.96
18:27:58.250000,-5.65
18:27:58.265625,-6.19
18:27:58.281250,-6.70
18:27:58.296875,-7.25
18:27:58.312500,-7.75
18:27:58.328125,-8.07
18:27:58.343750,-8.06
18:27:58.359375,-7.70
18:27:58.375000,-7.10
18:27:58.390625,-6.47
18:27:58.406250,-5.93
18:27:58.421875,-5.52
18:27:58.437500,-5.12
18:27:58.453125,-4.61
18:27:58.468750,-3.90
18:27:58.484375,-3.03
18:27:58.500000,-2.13
18:27:58.515625,-1.39
18:27:58.531250,-0.92
18:27:58.546875,-0.75
18:27:58.562500,-0.82
18:27:58.578125,-0.98
18:27:58.593750,-1.10
18:27:58.609375,-1.05
18:27:58.625000,-0.81
18:27:58.640625,-0.42
18:27:58.656250,0.02
18:27:58.671875,0.42
18:27:58.687500,0.71
18:27:58.703125,0.92
18:27:58.718750,1.09
18:27:58.734375,1.26
18:27:58.750000,1.40
18:27:58.765625,1.46
18:27:58.781250,1.37
18:27:58.796875,1.13
18:27:58.812500,0.80
18:27:58.828125,0.51
18:27:58.843750,0.33
18:27:58.859375,0.31
18:27:58.875000,0.37
18:27:58.890625,0.43
18:27:58.906250,0.40
18:27:58.921875,0.24
18:27:58.937500,-0.04
18:27:58.953125,-0.41
18:27:58.968750,-0.86
18:27:58.984375,-1.39
18:27:59,-1.98
18:27:59.015625,-2.58
18:27:59.031250,-3.13
18:27:59.046875,-3.59
18:27:59.062500,-3.93
18:27:59.078125,-4.17
18:27:59.093750,-4.37
18:27:59.109375,-4.62
18:27:59.125000,-4.97
18:27:59.140625,-5.47
18:27:59.156250,-6.12
18:27:59.171875,-6.88
18:27:59.187500,-7.68
18:27:59.203125,-8.38
18:27:59.218750,-8.87
18:27:59.234375,-9.01
18:27:59.250000,-8.70
18:27:59.265625,-7.95
18:27:59.281250,-6.86
18:27:59.296875,-5.63
18:27:59.312500,-4.48
18:27:59.328125,-3.58
18:27:59.343750,-2.96
18:27:59.359375,-2.54
18:27:59.375000,-2.19
18:27:59.390625,-1.79
18:27:59.406250,-1.29
18:27:59.421875,-0.76
18:27:59.437500,-0.22
18:27:59.453125,0.30
18:27:59.468750,0.84
18:27:59.484375,1.41
18:27:59.500000,2.01
18:27:59.515625,2.54
18:27:59.531250,2.92
18:27:59.546875,3.10
18:27:59.562500,3.14
18:27:59.578125,3.14
18:27:59.593750,3.26
18:27:59.609375,3.54
18:27:59.625000,3.96
18:27:59.640625,4.39
18:27:59.656250,4.72
18:27:59.671875,4.85
18:27:59.687500,4.76
18:27:59.703125,4.52
18:27:59.718750,4.19
18:27:59.734375,3.88
18:27:59.750000,3.66
18:27:59.765625,3.57
18:27:59.781250,3.57
18:27:59.796875,3.59
18:27:59.812500,3.55
18:27:59.828125,3.37
18:27:59.843750,3.02
18:27:59.859375,2.56
18:27:59.875000,2.08
18:27:59.890625,1.68
18:27:59.906250,1.45
18:27:59.921875,1.39
18:27:59.937500,1.45
18:27:59.953125,1.49
18:27:59.968750,1.41
18:27:59.984375,1.17
18:28:00,0.77
18:28:00.015625,0.27
18:28:00.031250,-0.22
18:28:00.046875,-0.70
18:28:00.062500,-1.20
18:28:00.078125,-1.78
18:28:00.093750,-2.45
18:28:00.109375,-3.16
18:28:00.125000,-3.80
18:28:00.140625,-4.26
18:28:00.156250,-4.52
18:28:00.171875,-4.67
18:28:00.187500,-4.81
18:28:00.203125,-5.00
18:28:00.218750,-5.18
18:28:00.234375,-5.21
18:28:00.250000,-4.95
18:28:00.265625,-4.34
18:28:00.281250,-3.47
18:28:00.296875,-2.54
18:28:00.312500,-1.72
18:28:00.328125,-1.11
18:28:00.343750,-0.68
18:28:00.359375,-0.31
18:28:00.375000,0.10
18:28:00.390625,0.56
18:28:00.406250,1.03
18:28:00.421875,1.43
18:28:00.437500,1.74
18:28:00.453125,1.99
18:28:00.468750,2.26
18:28:00.484375,2.60
18:28:00.500000,2.99
18:28:00.515625,3.34
18:28:00.531250,3.55
18:28:00.546875,3.56
18:28:00.562500,3.40
18:28:00.578125,3.17
18:28:00.593750,2.99
18:28:00.609375,2.92
18:28:00.625000,2.99
18:28:00.640625,3.13
18:28:00.656250,3.26
18:28:00.671875,3.34
18:28:00.687500,3.34
18:28:00.703125,3.27
18:28:00.718750,3.17
18:28:00.734375,3.05
18:28:00.750000,2.93
18:28:00.765625,2.76
18:28:00.781250,2.51
18:28:00.796875,2.14
18:28:00.812500,1.63
18:28:00.828125,1.05
18:28:00.843750,0.50
18:28:00.859375,0.08
18:28:00.875000,-0.14
18:28:00.890625,-0.16
18:28:00.906250,-0.07
18:28:00.921875,0.00
18:28:00.937500,-0.05
18:28:00.953125,-0.28
18:28:00.968750,-0.62
18:28:00.984375,-0.94
18:28:01,-1.09
18:28:01.015625,-0.97
18:28:01.031250,-0.66
18:28:01.046875,-0.35
18:28:01.062500,-0.27
18:28:01.078125,-0.60
18:28:01.093750,-1.33
18:28:01.109375,-2.29
18:28:01.125000,-3.21
18:28:01.140625,-3.84
18:28:01.156250,-4.10
18:28:01.171875,-4.08
18:28:01.187500,-3.89
18:28:01.203125,-3.64
18:28:01.218750,-3.31
18:28:01.234375,-2.82
18:28:01.250000,-2.13
18:28:01.265625,-1.34
18:28:01.281250,-0.61
18:28:01.296875,-0.14
18:28:01.312500,-0.02
18:28:01.328125,-0.16
18:28:01.343750,-0.34
18:28:01.359375,-0.35
18:28:01.375000,-0.07
18:28:01.390625,0.47
18:28:01.406250,1.10
18:28:01.421875,1.66
18:28:01.437500,2.03
18:28:01.453125,2.19
18:28:01.468750,2.23
18:28:01.484375,2.24
18:28:01.500000,2.32
18:28:01.515625,2.48
18:28:01.531250,2.71
18:28:01.546875,2.97
18:28:01.562500,3.21
18:28:01.578125,3.40
18:28:01.593750,3.51
18:28:01.609375,3.53
18:28:01.625000,3.49
18:28:01.640625,3.43
18:28:01.656250,3.40
18:28:01.671875,3.39
18:28:01.687500,3.38
18:28:01.703125,3.30
18:28:01.718750,3.12
18:28:01.734375,2.84
18:28:01.750000,2.52
18:28:01.765625,2.23
18:28:01.781250,1.99
18:28:01.796875,1.76
18:28:01.812500,1.45
18:28:01.828125,0.99
18:28:01.843750,0.39
18:28:01.859375,-0.24
18:28:01.875000,-0.75
18:28:01.890625,-1.00
18:28:01.906250,-1.02
18:28:01.921875,-0.87
18:28:01.937500,-0.75
18:28:01.953125,-0.78
18:28:01.968750,-0.99
18:28:01.984375,-1.33
18:28:02,-1.68
18:28:02.015625,-1.95
18:28:02.031250,-2.18
18:28:02.046875,-2.47
18:28:02.062500,-2.95
18:28:02.078125,-3.69
18:28:02.093750,-4.61
18:28:02.109375,-5.52
18:28:02.125000,-6.17
18:28:02.140625,-6.39
18:28:02.156250,-6.12
18:28:02.171875,-5.46
18:28:02.187500,-4.61
18:28:02.203125,-3.75
18:28:02.218750,-2.99
18:28:02.234375,-2.37
18:28:02.250000,-1.84
18:28:02.265625,-1.39
18:28:02.281250,-1.01
18:28:02.296875,-0.73
18:28:02.312500,-0.56
18:28:02.328125,-0.49
18:28:02.343750,-0.42
18:28:02.359375,-0.26
18:28:02.375000,0.06
18:28:02.390625,0.56
18:28:02.406250,1.12
18:28:02.421875,1.63
18:28:02.437500,1.96
18:28:02.453125,2.07
18:28:02.468750,1.98
18:28:02.484375,1.79
18:28:02.500000,1.60
18:28:02.515625,1.51
18:28:02.531250,1.55
18:28:02.546875,1.71
18:28:02.562500,1.93
18:28:02.578125,2.14
18:28:02.593750,2.27
18:28:02.609375,2.28
18:28:02.625000,2.17
18:28:02.640625,1.96
18:28:02.656250,1.70
18:28:02.671875,1.43
18:28:02.687500,1.19
18:28:02.703125,0.97
18:28:02.718750,0.79
18:28:02.734375,0.68
18:28:02.750000,0.67
18:28:02.765625,0.73
18:28:02.781250,0.83
18:28:02.796875,0.86
18:28:02.812500,0.74
18:28:02.828125,0.41
18:28:02.843750,-0.12
18:28:02.859375,-0.78
18:28:02.875000,-1.48
18:28:02.890625,-2.15
18:28:02.906250,-2.73
18:28:02.921875,-3.21
18:28:02.937500,-3.54
18:28:02.953125,-3.70
18:28:02.968750,-3.73
18:28:02.984375,-3.70
18:28:03,-3.74
18:28:03.015625,-3.99
18:28:03.031250,-4.50
18:28:03.046875,-5.21
18:28:03.062500,-5.92
18:28:03.078125,-6.45
18:28:03.093750,-6.63
18:28:03.109375,-6.41
18:28:03.125000,-5.83
18:28:03.140625,-5.01
18:28:03.156250,-4.12
18:28:03.171875,-3.32
18:28:03.187500,-2.67
18:28:03.203125,-2.20
18:28:03.218750,-1.83
18:28:03.234375,-1.45
18:28:03.250000,-0.98
18:28:03.265625,-0.42
18:28:03.281250,0.14
18:28:03.296875,0.58
18:28:03.312500,0.77
18:28:03.328125,0.71
18:28:03.343750,0.49
18:28:03.359375,0.28
18:28:03.375000,0.20
18:28:03.390625,0.28
18:28:03.406250,0.48
18:28:03.421875,0.71
18:28:03.437500,0.90
18:28:03.453125,1.08
18:28:03.468750,1.29
18:28:03.484375,1.59
18:28:03.500000,1.98
18:28:03.515625,2.39
18:28:03.531250,2.75
18:28:03.546875,2.99
18:28:03.562500,3.10
18:28:03.578125,3.11
18:28:03.593750,3.07
18:28:03.609375,2.97
18:28:03.625000,2.81
18:28:03.640625,2.57
18:28:03.656250,2.28
18:28:03.671875,1.98
18:28:03.687500,1.72
18:28:03.703125,1.51
18:28:03.718750,1.32
18:28:03.734375,1.07
18:28:03.750000,0.74
18:28:03.765625,0.31
18:28:03.781250,-0.18
18:28:03.796875,-0.68
18:28:03.812500,-1.10
18:28:03.828125,-1.41
18:28:03.843750,-1.60
18:28:03.859375,-1.75
18:28:03.875000,-1.94
18:28:03.890625,-2.23
18:28:03.906250,-2.61
18:28:03.921875,-3.04
18:28:03.937500,-3.44
18:28:03.953125,-3.80
18:28:03.968750,-4.12
18:28:03.984375,-4.46
18:28:04,-4.81
18:28:04.015625,-5.12
18:28:04.031250,-5.23
18:28:04.046875,-5.01
18:28:04.062500,-4.42
18:28:04.078125,-3.56
18:28:04.093750,-2.67
18:28:04.109375,-1.95
18:28:04.125000,-1.52
18:28:04.140625,-1.32
18:28:04.156250,-1.26
18:28:04.171875,-1.18
18:28:04.187500,-1.03
18:28:04.203125,-0.78
18:28:04.218750,-0.43
18:28:04.234375,0.01
18:28:04.250000,0.55
18:28:04.265625,1.20
18:28:04.281250,1.90
18:28:04.296875,2.55
18:28:04.312500,3.02
18:28:04.328125,3.26
18:28:04.343750,3.27
18:28:04.359375,3.15
18:28:04.375000,2.99
18:28:04.390625,2.89
18:28:04.406250,2.85
18:28:04.421875,2.87
18:28:04.437500,2.90
18:28:04.453125,2.89
18:28:04.468750,2.82
18:28:04.484375,2.65
18:28:04.500000,2.42
18:28:04.515625,2.14
18:28:04.531250,1.90
18:28:04.546875,1.75
18:28:04.562500,1.70
18:28:04.578125,1.69
18:28:04.593750,1.60
18:28:04.609375,1.37
18:28:04.625000,1.00
18:28:04.640625,0.58
18:28:04.656250,0.20
18:28:04.671875,-0.07
18:28:04.687500,-0.21
18:28:04.703125,-0.28
18:28:04.718750,-0.35
18:28:04.734375,-0.44
18:28:04.750000,-0.53
18:28:04.765625,-0.60
18:28:04.781250,-0.65
18:28:04.796875,-0.76
18:28:04.812500,-1.08
18:28:04.828125,-1.71
18:28:04.843750,-2.64
18:28:04.859375,-3.75
18:28:04.875000,-4.81
18:28:04.890625,-5.62
18:28:04.906250,-6.02
18:28:04.921875,-6.01
18:28:04.937500,-5.71
18:28:04.953125,-5.27
18:28:04.968750,-4.81
18:28:04.984375,-4.38
18:28:05,-3.96
18:28:05.015625,-3.52
18:28:05.031250,-3.06
18:28:05.046875,-2.65
18:28:05.062500,-2.33
18:28:05.078125,-2.11
18:28:05.093750,-1.91
18:28:05.109375,-1.65
18:28:05.125000,-1.25
18:28:05.140625,-0.77
18:28:05.156250,-0.29
18:28:05.171875,0.08
18:28:05.187500,0.31
18:28:05.203125,0.44
18:28:05.218750,0.58
18:28:05.234375,0.79
18:28:05.250000,1.12
18:28:05.265625,1.52
18:28:05.281250,1.96
18:28:05.296875,2.41
18:28:05.312500,2.82
18:28:05.328125,3.15
18:28:05.343750,3.32
18:28:05.359375,3.26
18:28:05.375000,2.96
18:28:05.390625,2.50
18:28:05.406250,2.03
18:28:05.421875,1.70
18:28:05.437500,1.59
18:28:05.453125,1.67
18:28:05.468750,1.83
18:28:05.484375,1.94
18:28:05.500000,1.90
18:28:05.515625,1.70
18:28:05.531250,1.39
18:28:05.546875,1.00
18:28:05.562500,0.58
18:28:05.578125,0.15
18:28:05.593750,-0.27
18:28:05.609375,-0.64
18:28:05.625000,-0.89
18:28:05.640625,-1.02
18:28:05.656250,-1.03
18:28:05.671875,-1.02
18:28:05.687500,-1.10
18:28:05.703125,-1.32
18:28:05.718750,-1.70
18:28:05.734375,-2.17
18:28:05.750000,-2.66
18:28:05.765625,-3.09
18:28:05.781250,-3.47
18:28:05.796875,-3.82
18:28:05.812500,-4.18
18:28:05.828125,-4.55
18:28:05.843750,-4.87
18:28:05.859375,-5.02
18:28:05.875000,-4.93
18:28:05.890625,-4.59
18:28:05.906250,-4.08
18:28:05.921875,-3.50
18:28:05.937500,-2.96
18:28:05.953125,-2.49
18:28:05.968750,-2.04
18:28:05.984375,-1.57
18:28:06,-1.03
18:28:06.015625,-0.42
18:28:06.031250,0.22
18:28:06.046875,0.81
18:28:06.062500,1.28
18:28:06.078125,1.60
18:28:06.093750,1.76
18:28:06.109375,1.78
18:28:06.125000,1.74
18:28:06.140625,1.72
18:28:06.156250,1.81
18:28:06.171875,2.01
18:28:06.187500,2.30
18:28:06.203125,2.58
18:28:06.218750,2.79
18:28:06.234375,2.91
18:28:06.250000,2.96
18:28:06.265625,2.98
18:28:06.281250,2.97
18:28:06.296875,2.91
18:28:06.312500,2.78
18:28:06.328125,2.61
18:28:06.343750,2.45
18:28:06.359375,2.39
18:28:06.375000,2.42
18:28:06.390625,2.53
18:28:06.406250,2.61
18:28:06.421875,2.57
18:28:06.437500,2.36
18:28:06.453125,1.97
18:28:06.468750,1.48
18:28:06.484375,0.96
18:28:06.500000,0.51
18:28:06.515625,0.20
18:28:06.531250,0.06
18:28:06.546875,0.04
18:28:06.562500,0.06
18:28:06.578125,0.02
18:28:06.593750,-0.16
18:28:06.609375,-0.49
18:28:06.625000,-0.93
18:28:06.640625,-1.43
18:28:06.656250,-1.97
18:28:06.671875,-2.51
18:28:06.687500,-3.06
18:28:06.703125,-3.57
18:28:06.718750,-4.02
18:28:06.734375,-4.34
18:28:06.750000,-4.53
18:28:06.765625,-4.58
18:28:06.781250,-4.52
18:28:06.796875,-4.42
18:28:06.812500,-4.30
18:28:06.828125,-4.15
18:28:06.843750,-3.93
18:28:06.859375,-3.59
18:28:06.875000,-3.09
18:28:06.890625,-2.46
18:28:06.906250,-1.77
18:28:06.921875,-1.08
18:28:06.937500,-0.44
18:28:06.953125,0.14
18:28:06.968750,0.69
18:28:06.984375,1.24
18:28:07,1.77
18:28:07.015625,2.21
18:28:07.031250,2.48
18:28:07.046875,2.51
18:28:07.062500,2.30
18:28:07.078125,1.94
18:28:07.093750,1.58
18:28:07.109375,1.33
18:28:07.125000,1.24
18:28:07.140625,1.26
18:28:07.156250,1.30
18:28:07.171875,1.27
18:28:07.187500,1.16
18:28:07.203125,1.05
18:28:07.218750,1.05
18:28:07.234375,1.22
18:28:07.250000,1.52
18:28:07.265625,1.83
18:28:07.281250,2.01
18:28:07.296875,1.94
18:28:07.312500,1.67
18:28:07.328125,1.28
18:28:07.343750,0.92
18:28:07.359375,0.64
18:28:07.375000,0.46
18:28:07.390625,0.32
18:28:07.406250,0.19
18:28:07.421875,0.06
18:28:07.437500,-0.04
18:28:07.453125,-0.11
18:28:07.468750,-0.18
18:28:07.484375,-0.30
18:28:07.500000,-0.51
18:28:07.515625,-0.84
18:28:07.531250,-1.29
18:28:07.546875,-1.82
18:28:07.562500,-2.39
18:28:07.578125,-2.95
18:28:07.593750,-3.45
18:28:07.609375,-3.89
18:28:07.625000,-4.22
18:28:07.640625,-4.45
18:28:07.656250,-4.54
18:28:07.671875,-4.49
18:28:07.687500,-4.30
18:28:07.703125,-4.02
18:28:07.718750,-3.69
18:28:07.734375,-3.37
18:28:07.750000,-3.13
18:28:07.765625,-2.93
18:28:07.781250,-2.70
18:28:07.796875,-2.34
18:28:07.812500,-1.75
18:28:07.828125,-0.95
18:28:07.843750,-0.03
18:28:07.859375,0.85
18:28:07.875000,1.55
18:28:07.890625,2.00
18:28:07.906250,2.23
18:28:07.921875,2.35
18:28:07.937500,2.45
18:28:07.953125,2.57
18:28:07.968750,2.68
18:28:07.984375,2.75
18:28:08,2.76
18:28:08.015625,2.74
18:28:08.031250,2.78
18:28:08.046875,2.90
18:28:08.062500,3.08
18:28:08.078125,3.24
18:28:08.093750,3.28
18:28:08.109375,3.14
18:28:08.125000,2.87
18:28:08.140625,2.58
18:28:08.156250,2.42
18:28:08.171875,2.42
18:28:08.187500,2.54
18:28:08.203125,2.66
18:28:08.218750,2.64
18:28:08.234375,2.46
18:28:08.250000,2.14
18:28:08.265625,1.80
18:28:08.281250,1.51
18:28:08.296875,1.28
18:28:08.312500,1.03
18:28:08.328125,0.68
18:28:08.343750,0.22
18:28:08.359375,-0.30
18:28:08.375000,-0.75
18:28:08.390625,-1.03
18:28:08.406250,-1.14
18:28:08.421875,-1.15
18:28:08.437500,-1.17
18:28:08.453125,-1.32
18:28:08.468750,-1.62
18:28:08.484375,-2.06
18:28:08.500000,-2.58
18:28:08.515625,-3.11
18:28:08.531250,-3.61
18:28:08.546875,-4.04
18:28:08.562500,-4.38
18:28:08.578125,-4.61
18:28:08.593750,-4.71
18:28:08.609375,-4.71
18:28:08.625000,-4.62
18:28:08.640625,-4.47
18:28:08.656250,-4.27
18:28:08.671875,-3.99
18:28:08.687500,-3.63
18:28:08.703125,-3.18
18:28:08.718750,-2.70
18:28:08.734375,-2.23
18:28:08.750000,-1.81
18:28:08.765625,-1.44
18:28:08.781250,-1.06
18:28:08.796875,-0.64
18:28:08.812500,-0.14
18:28:08.828125,0.40
18:28:08.843750,0.90
18:28:08.859375,1.29
18:28:08.875000,1.51
18:28:08.890625,1.56
18:28:08.906250,1.49
18:28:08.921875,1.37
18:28:08.937500,1.26
18:28:08.953125,1.18
18:28:08.968750,1.14
18:28:08.984375,1.14
18:28:09,1.24
18:28:09.015625,1.47
18:28:09.031250,1.84
18:28:09.046875,2.31
18:28:09.062500,2.78
18:28:09.078125,3.15
18:28:09.093750,3.37
18:28:09.109375,3.44
18:28:09.125000,3.44
18:28:09.140625,3.42
18:28:09.156250,3.43
18:28:09.171875,3.44
18:28:09.187500,3.43
18:28:09.203125,3.42
18:28:09.218750,3.47
18:28:09.234375,3.66
18:28:09.250000,4.03
18:28:09.265625,4.53
18:28:09.281250,5.00
18:28:09.296875,5.26
18:28:09.312500,5.16
18:28:09.328125,4.68
18:28:09.343750,3.88
18:28:09.359375,2.90
18:28:09.375000,1.87
18:28:09.390625,0.91
18:28:09.406250,0.05
18:28:09.421875,-0.74
18:28:09.437500,-1.51
18:28:09.453125,-2.37
18:28:09.468750,-3.36
18:28:09.484375,-4.48
18:28:09.500000,-5.70
18:28:09.515625,-6.93
18:28:09.531250,-8.07
18:28:09.546875,-9.07
18:28:09.562500,-9.88
18:28:09.578125,-10.45
18:28:09.593750,-10.76
18:28:09.609375,-10.76
18:28:09.625000,-10.42
18:28:09.640625,-9.77
18:28:09.656250,-8.83
18:28:09.671875,-7.71
18:28:09.687500,-6.49
18:28:09.703125,-5.25
18:28:09.718750,-4.07
18:28:09.734375,-3.02
18:28:09.750000,-2.16
18:28:09.765625,-1.49
18:28:09.781250,-0.97
18:28:09.796875,-0.43
18:28:09.812500,0.30
18:28:09.828125,1.34
18:28:09.843750,2.66
18:28:09.859375,4.12
18:28:09.875000,5.45
18:28:09.890625,6.42
18:28:09.906250,6.90
18:28:09.921875,6.97
18:28:09.937500,6.78
18:28:09.953125,6.55
18:28:09.968750,6.44
18:28:09.984375,6.46
18:28:10,6.53
18:28:10.015625,6.56
18:28:10.031250,6.48
18:28:10.046875,6.27
18:28:10.062500,6.01
18:28:10.078125,5.78
18:28:10.093750,5.63
18:28:10.109375,5.55
18:28:10.125000,5.48
18:28:10.140625,5.30
18:28:10.156250,4.95
18:28:10.171875,4.41
18:28:10.187500,3.73
18:28:10.203125,2.99
18:28:10.218750,2.28
18:28:10.234375,1.65
18:28:10.250000,1.10
18:28:10.265625,0.60
18:28:10.281250,0.11
18:28:10.296875,-0.39
18:28:10.312500,-0.89
18:28:10.328125,-1.35
18:28:10.343750,-1.76
18:28:10.359375,-2.16
18:28:10.375000,-2.61
18:28:10.390625,-3.19
18:28:10.406250,-3.93
18:28:10.421875,-4.76
18:28:10.437500,-5.57
18:28:10.453125,-6.23
18:28:10.468750,-6.62
18:28:10.484375,-6.72
18:28:10.500000,-6.56
18:28:10.515625,-6.20
18:28:10.531250,-5.70
18:28:10.546875,-5.08
18:28:10.562500,-4.35
18:28:10.578125,-3.52
18:28:10.593750,-2.67
18:28:10.609375,-1.90
18:28:10.625000,-1.32
18:28:10.640625,-0.99
18:28:10.656250,-0.84
18:28:10.671875,-0.76
18:28:10.687500,-0.62
18:28:10.703125,-0.31
18:28:10.718750,0.17
18:28:10.734375,0.76
18:28:10.750000,1.35
18:28:10.765625,1.86
18:28:10.781250,2.21
18:28:10.796875,2.40
18:28:10.812500,2.45
18:28:10.828125,2.44
18:28:10.843750,2.44
18:28:10.859375,2.50
18:28:10.875000,2.64
18:28:10.890625,2.86
18:28:10.906250,3.08
18:28:10.921875,3.26
18:28:10.937500,3.37
18:28:10.953125,3.44
18:28:10.968750,3.52
18:28:10.984375,3.62
18:28:11,3.73
18:28:11.015625,3.76
18:28:11.031250,3.63
18:28:11.046875,3.33
18:28:11.062500,2.90
18:28:11.078125,2.43
18:28:11.093750,1.99
18:28:11.109375,1.61
18:28:11.125000,1.27
18:28:11.140625,0.95
18:28:11.156250,0.69
18:28:11.171875,0.54
18:28:11.187500,0.53
18:28:11.203125,0.60
18:28:11.218750,0.62
18:28:11.234375,0.44
18:28:11.250000,0.02
18:28:11.265625,-0.53
18:28:11.281250,-1.04
18:28:11.296875,-1.34
18:28:11.312500,-1.42
18:28:11.328125,-1.42
18:28:11.343750,-1.53
18:28:11.359375,-1.90
18:28:11.375000,-2.50
18:28:11.390625,-3.20
18:28:11.406250,-3.85
18:28:11.421875,-4.37
18:28:11.437500,-4.72
18:28:11.453125,-4.95
18:28:11.468750,-5.03
18:28:11.484375,-4.91
18:28:11.500000,-4.54
18:28:11.515625,-3.92
18:28:11.531250,-3.15
18:28:11.546875,-2.33
18:28:11.562500,-1.55
18:28:11.578125,-0.83
18:28:11.593750,-0.19
18:28:11.609375,0.37
18:28:11.625000,0.81
18:28:11.640625,1.09
18:28:11.656250,1.24
18:28:11.671875,1.34
18:28:11.687500,1.50
18:28:11.703125,1.80
18:28:11.718750,2.24
18:28:11.734375,2.72
18:28:11.750000,3.11
18:28:11.765625,3.38
18:28:11.781250,3.56
18:28:11.796875,3.73
18:28:11.812500,3.93
18:28:11.828125,4.15
18:28:11.843750,4.33
18:28:11.859375,4.38
18:28:11.875000,4.30
18:28:11.890625,4.20
18:28:11.906250,4.17
18:28:11.921875,4.31
18:28:11.937500,4.57
18:28:11.953125,4.84
18:28:11.968750,4.94
18:28:11.984375,4.75
18:28:12,4.29
18:28:12.015625,3.64
18:28:12.031250,2.94
18:28:12.046875,2.29
18:28:12.062500,1.70
18:28:12.078125,1.18
18:28:12.093750,0.69
18:28:12.109375,0.24
18:28:12.125000,-0.12
18:28:12.140625,-0.38
18:28:12.156250,-0.57
18:28:12.171875,-0.78
18:28:12.187500,-1.11
18:28:12.203125,-1.61
18:28:12.218750,-2.27
18:28:12.234375,-2.95
18:28:12.250000,-3.51
18:28:12.265625,-3.83
18:28:12.281250,-3.92
18:28:12.296875,-3.86
18:28:12.312500,-3.83
18:28:12.328125,-3.96
18:28:12.343750,-4.34
18:28:12.359375,-4.91
18:28:12.375000,-5.58
18:28:12.390625,-6.19
18:28:12.406250,-6.63
18:28:12.421875,-6.80
18:28:12.437500,-6.64
18:28:12.453125,-6.12
18:28:12.468750,-5.28
18:28:12.484375,-4.20
18:28:12.500000,-3.01
18:28:12.515625,-1.82
18:28:12.531250,-0.77
18:28:12.546875,0.09
18:28:12.562500,0.76
18:28:12.578125,1.26
18:28:12.593750,1.65
18:28:12.609375,2.00
18:28:12.625000,2.36
18:28:12.640625,2.74
18:28:12.656250,3.12
18:28:12.671875,3.43
18:28:12.687500,3.60
18:28:12.703125,3.58
18:28:12.718750,3.43
18:28:12.734375,3.24
18:28:12.750000,3.18
18:28:12.765625,3.35
18:28:12.781250,3.75
18:28:12.796875,4.26
18:28:12.812500,4.70
18:28:12.828125,4.92
18:28:12.843750,4.87
18:28:12.859375,4.61
18:28:12.875000,4.27
18:28:12.890625,3.99
18:28:12.906250,3.81
18:28:12.921875,3.72
18:28:12.937500,3.62
18:28:12.953125,3.45
18:28:12.968750,3.21
18:28:12.984375,2.92
18:28:13,2.61
18:28:13.015625,2.28
18:28:13.031250,1.87
18:28:13.046875,1.36
18:28:13.062500,0.79
18:28:13.078125,0.26
18:28:13.093750,-0.12
18:28:13.109375,-0.27
18:28:13.125000,-0.20
18:28:13.140625,-0.00
18:28:13.156250,0.20
18:28:13.171875,0.30
18:28:13.187500,0.31
18:28:13.203125,0.24
18:28:13.218750,0.16
18:28:13.234375,0.07
18:28:13.250000,-0.07
18:28:13.265625,-0.33
18:28:13.281250,-0.78
18:28:13.296875,-1.46
18:28:13.312500,-2.37
18:28:13.328125,-3.45
18:28:13.343750,-4.61
18:28:13.359375,-5.77
18:28:13.375000,-6.84
18:28:13.390625,-7.75
18:28:13.406250,-8.43
18:28:13.421875,-8.81
18:28:13.437500,-8.86
18:28:13.453125,-8.57
18:28:13.468750,-7.96
18:28:13.484375,-7.10
18:28:13.500000,-6.12
18:28:13.515625,-5.12
18:28:13.531250,-4.15
18:28:13.546875,-3.17
18:28:13.562500,-2.13
18:28:13.578125,-0.95
18:28:13.593750,0.40
18:28:13.609375,1.86
18:28:13.625000,3.28
18:28:13.640625,4.51
18:28:13.656250,5.43
18:28:13.671875,5.97
18:28:13.687500,6.15
18:28:13.703125,6.04
18:28:13.718750,5.76
18:28:13.734375,5.40
18:28:13.750000,5.02
18:28:13.765625,4.63
18:28:13.781250,4.19
18:28:13.796875,3.60
18:28:13.812500,2.81
18:28:13.828125,1.79
18:28:13.843750,0.64
18:28:13.859375,-0.46
18:28:13.875000,-1.33
18:28:13.890625,-1.78
18:28:13.906250,-1.75
18:28:13.921875,-1.24
18:28:13.937500,-0.38
18:28:13.953125,0.68
18:28:13.968750,1.75
18:28:13.984375,2.67
18:28:14,3.28
18:28:14.015625,3.51
18:28:14.031250,3.37
18:28:14.046875,2.96
18:28:14.062500,2.40
18:28:14.078125,1.76
18:28:14.093750,1.05
18:28:14.109375,0.20
18:28:14.125000,-0.85
18:28:14.140625,-2.04
18:28:14.156250,-3.19
18:28:14.171875,-4.05
18:28:14.187500,-4.44
18:28:14.203125,-4.32
18:28:14.218750,-3.86
18:28:14.234375,-3.34
18:28:14.250000,-2.99
18:28:14.265625,-2.95
18:28:14.281250,-3.18
18:28:14.296875,-3.57
18:28:14.312500,-3.99
18:28:14.328125,-4.38
18:28:14.343750,-4.75
18:28:14.359375,-5.12
18:28:14.375000,-5.48
18:28:14.390625,-5.76
18:28:14.406250,-5.88
18:28:14.421875,-5.77
18:28:14.437500,-5.48
18:28:14.453125,-5.12
18:28:14.468750,-4.85
18:28:14.484375,-4.77
18:28:14.500000,-4.86
18:28:14.515625,-5.03
18:28:14.531250,-5.08
18:28:14.546875,-4.88
18:28:14.562500,-4.35
18:28:14.578125,-3.52
18:28:14.593750,-2.44
18:28:14.609375,-1.15
18:28:14.625000,0.35
18:28:14.640625,2.08
18:28:14.656250,3.98
18:28:14.671875,5.89
18:28:14.687500,7.54
18:28:14.703125,8.68
18:28:14.718750,9.16
18:28:14.734375,9.01
18:28:14.750000,8.42
18:28:14.765625,7.63
18:28:14.781250,6.82
18:28:14.796875,6.06
18:28:14.812500,5.30
18:28:14.828125,4.44
18:28:14.843750,3.43
18:28:14.859375,2.26
18:28:14.875000,1.03
18:28:14.890625,-0.10
18:28:14.906250,-0.98
18:28:14.921875,-1.49
18:28:14.937500,-1.62
18:28:14.953125,-1.45
18:28:14.968750,-1.07
18:28:14.984375,-0.62
18:28:15,-0.17
18:28:15.015625,0.24
18:28:15.031250,0.59
18:28:15.046875,0.85
18:28:15.062500,0.97
18:28:15.078125,0.89
18:28:15.093750,0.60
18:28:15.109375,0.10
18:28:15.125000,-0.53
18:28:15.140625,-1.22
18:28:15.156250,-1.90
18:28:15.171875,-2.56
18:28:15.187500,-3.18
18:28:15.203125,-3.77
18:28:15.218750,-4.28
18:28:15.234375,-4.69
18:28:15.250000,-4.94
18:28:15.265625,-5.04
18:28:15.281250,-5.00
18:28:15.296875,-4.87
18:28:15.312500,-4.70
18:28:15.328125,-4.52
18:28:15.343750,-4.28
18:28:15.359375,-3.92
18:28:15.375000,-3.40
18:28:15.390625,-2.72
18:28:15.406250,-1.93
18:28:15.421875,-1.16
18:28:15.437500,-0.49
18:28:15.453125,0.06
18:28:15.468750,0.53
18:28:15.484375,1.00
18:28:15.500000,1.52
18:28:15.515625,2.05
18:28:15.531250,2.55
18:28:15.546875,2.91
18:28:15.562500,3.10
18:28:15.578125,3.16
18:28:15.593750,3.18
18:28:15.609375,3.23
18:28:15.625000,3.36
18:28:15.640625,3.54
18:28:15.656250,3.71
18:28:15.671875,3.79
18:28:15.687500,3.77
18:28:15.703125,3.66
18:28:15.718750,3.52
18:28:15.734375,3.35
18:28:15.750000,3.14
18:28:15.765625,2.85
18:28:15.781250,2.42
18:28:15.796875,1.89
18:28:15.812500,1.33
18:28:15.828125,0.85
18:28:15.843750,0.51
18:28:15.859375,0.33
18:28:15.875000,0.24
18:28:15.890625,0.12
18:28:15.906250,-0.09
18:28:15.921875,-0.42
18:28:15.937500,-0.82
18:28:15.953125,-1.24
18:28:15.968750,-1.63
18:28:15.984375,-1.96
18:28:16,-2.23
18:28:16.015625,-2.48
18:28:16.031250,-2.76
18:28:16.046875,-3.13
18:28:16.062500,-3.61
18:28:16.078125,-4.15
18:28:16.093750,-4.67
18:28:16.109375,-5.03
18:28:16.125000,-5.15
18:28:16.140625,-5.04
18:28:16.156250,-4.80
18:28:16.171875,-4.55
18:28:16.187500,-4.32
18:28:16.203125,-4.07
18:28:16.218750,-3.65
18:28:16.234375,-2.93
18:28:16.250000,-1.89
18:28:16.265625,-0.67
18:28:16.281250,0.49
18:28:16.296875,1.36
18:28:16.312500,1.82
18:28:16.328125,1.90
18:28:16.343750,1.75
18:28:16.359375,1.53
18:28:16.375000,1.36
18:28:16.390625,1.30
18:28:16.406250,1.35
18:28:16.421875,1.49
18:28:16.437500,1.71
18:28:16.453125,2.03
18:28:16.468750,2.42
18:28:16.484375,2.87
18:28:16.500000,3.35
18:28:16.515625,3.81
18:28:16.531250,4.21
18:28:16.546875,4.51
18:28:16.562500,4.66
18:28:16.578125,4.64
18:28:16.593750,4.46
18:28:16.609375,4.19
18:28:16.625000,3.88
18:28:16.640625,3.62
18:28:16.656250,3.42
18:28:16.671875,3.27
18:28:16.687500,3.11
18:28:16.703125,2.88
18:28:16.718750,2.56
18:28:16.734375,2.18
18:28:16.750000,1.78
18:28:16.765625,1.41
18:28:16.781250,1.13
18:28:16.796875,0.93
18:28:16.812500,0.75
18:28:16.828125,0.54
18:28:16.843750,0.18
18:28:16.859375,-0.38
18:28:16.875000,-1.10
18:28:16.890625,-1.86
18:28:16.906250,-2.51
18:28:16.921875,-2.96
18:28:16.937500,-3.23
18:28:16.953125,-3.48
18:28:16.968750,-3.85
18:28:16.984375,-4.44
18:28:17,-5.22
18:28:17.015625,-6.00
18:28:17.031250,-6.59
18:28:17.046875,-6.81
18:28:17.062500,-6.65
18:28:17.078125,-6.20
18:28:17.093750,-5.58
18:28:17.109375,-4.93
18:28:17.125000,-4.30
18:28:17.140625,-3.72
18:28:17.156250,-3.17
18:28:17.171875,-2.64
18:28:17.187500,-2.09
18:28:17.203125,-1.47
18:28:17.218750,-0.75
18:28:17.234375,0.05
18:28:17.250000,0.85
18:28:17.265625,1.51
18:28:17.281250,1.95
18:28:17.296875,2.15
18:28:17.312500,2.19
18:28:17.328125,2.25
18:28:17.343750,2.47
18:28:17.359375,2.93
18:28:17.375000,3.57
18:28:17.390625,4.28
18:28:17.406250,4.86
18:28:17.421875,5.21
18:28:17.437500,5.31
18:28:17.453125,5.20
18:28:17.468750,5.01
18:28:17.484375,4.83
18:28:17.500000,4.68
18:28:17.515625,4.49
18:28:17.531250,4.18
18:28:17.546875,3.73
18:28:17.562500,3.20
18:28:17.578125,2.75
18:28:17.593750,2.51
18:28:17.609375,2.53
18:28:17.625000,2.71
18:28:17.640625,2.83
18:28:17.656250,2.74
18:28:17.671875,2.36
18:28:17.687500,1.76
18:28:17.703125,1.09
18:28:17.718750,0.48
18:28:17.734375,-0.00
18:28:17.750000,-0.35
18:28:17.765625,-0.61
18:28:17.781250,-0.82
18:28:17.796875,-1.06
18:28:17.812500,-1.42
18:28:17.828125,-1.95
18:28:17.843750,-2.65
18:28:17.859375,-3.46
18:28:17.875000,-4.23
18:28:17.890625,-4.80
18:28:17.906250,-5.10
18:28:17.921875,-5.17
18:28:17.937500,-5.14
18:28:17.953125,-5.16
18:28:17.968750,-5.28
18:28:17.984375,-5.45
18:28:18,-5.53
18:28:18.015625,-5.37
18:28:18.031250,-4.92
18:28:18.046875,-4.26
18:28:18.062500,-3.54
18:28:18.078125,-2.90
18:28:18.093750,-2.37
18:28:18.109375,-1.87
18:28:18.125000,-1.25
18:28:18.140625,-0.42
18:28:18.156250,0.58
18:28:18.171875,1.60
18:28:18.187500,2.39
18:28:18.203125,2.78
18:28:18.218750,2.75
18:28:18.234375,2.46
18:28:18.250000,2.14
18:28:18.265625,2.01
18:28:18.281250,2.16
18:28:18.296875,2.56
18:28:18.312500,3.06
18:28:18.328125,3.53
18:28:18.343750,3.91
18:28:18.359375,4.20
18:28:18.375000,4.44
18:28:18.390625,4.65
18:28:18.406250,4.80
18:28:18.421875,4.84
18:28:18.437500,4.73
18:28:18.453125,4.48
18:28:18.468750,4.14
18:28:18.484375,3.80
18:28:18.500000,3.51
18:28:18.515625,3.30
18:28:18.531250,3.13
18:28:18.546875,2.95
18:28:18.562500,2.67
18:28:18.578125,2.24
18:28:18.593750,1.66
18:28:18.609375,0.98
18:28:18.625000,0.32
18:28:18.640625,-0.15
18:28:18.656250,-0.36
18:28:18.671875,-0.34
18:28:18.687500,-0.23
18:28:18.703125,-0.25
18:28:18.718750,-0.54
18:28:18.734375,-1.09
18:28:18.750000,-1.79
18:28:18.765625,-2.42
18:28:18.781250,-2.85
18:28:18.796875,-3.05
18:28:18.812500,-3.13
18:28:18.828125,-3.22
18:28:18.843750,-3.46
18:28:18.859375,-3.88
18:28:18.875000,-4.46
18:28:18.890625,-5.11
18:28:18.906250,-5.74
18:28:18.921875,-6.23
18:28:18.937500,-6.49
18:28:18.953125,-6.42
18:28:18.968750,-6.01
18:28:18.984375,-5.30
18:28:19,-4.43
18:28:19.015625,-3.53
18:28:19.031250,-2.71
18:28:19.046875,-2.06
18:28:19.062500,-1.55
18:28:19.078125,-1.16
18:28:19.093750,-0.81
18:28:19.109375,-0.43
18:28:19.125000,0.05
18:28:19.140625,0.66
18:28:19.156250,1.40
18:28:19.171875,2.16
18:28:19.187500,2.82
18:28:19.203125,3.27
18:28:19.218750,3.46
18:28:19.234375,3.45
18:28:19.250000,3.36
18:28:19.265625,3.32
18:28:19.281250,3.42
18:28:19.296875,3.66
18:28:19.312500,3.99
18:28:19.328125,4.33
18:28:19.343750,4.61
18:28:19.359375,4.77
18:28:19.375000,4.77
18:28:19.390625,4.59
18:28:19.406250,4.26
18:28:19.421875,3.80
18:28:19.437500,3.30
18:28:19.453125,2.82
18:28:19.468750,2.47
18:28:19.484375,2.28
18:28:19.500000,2.30
18:28:19.515625,2.46
18:28:19.531250,2.70
18:28:19.546875,2.89
18:28:19.562500,2.94
18:28:19.578125,2.80
18:28:19.593750,2.51
18:28:19.609375,2.16
18:28:19.625000,1.83
18:28:19.640625,1.56
18:28:19.656250,1.32
18:28:19.671875,1.03
18:28:19.687500,0.65
18:28:19.703125,0.19
18:28:19.718750,-0.33
18:28:19.734375,-0.86
18:28:19.750000,-1.36
18:28:19.765625,-1.88
18:28:19.781250,-2.42
18:28:19.796875,-3.01
18:28:19.812500,-3.60
18:28:19.828125,-4.14
18:28:19.843750,-4.56
18:28:19.859375,-4.85
18:28:19.875000,-5.03
18:28:19.890625,-5.17
18:28:19.906250,-5.33
18:28:19.921875,-5.56
18:28:19.937500,-5.82
18:28:19.953125,-6.03
18:28:19.968750,-6.08
18:28:19.984375,-5.87
18:28:20,-5.35
18:28:20.015625,-4.56
18:28:20.031250,-3.60
18:28:20.046875,-2.63
18:28:20.062500,-1.75
18:28:20.078125,-1.02
18:28:20.093750,-0.41
18:28:20.109375,0.14
18:28:20.125000,0.69
18:28:20.140625,1.24
18:28:20.156250,1.78
18:28:20.171875,2.25
18:28:20.187500,2.61
18:28:20.203125,2.85
18:28:20.218750,2.99
18:28:20.234375,3.08
18:28:20.250000,3.14
18:28:20.265625,3.18
18:28:20.281250,3.21
18:28:20.296875,3.24
18:28:20.312500,3.30
18:28:20.328125,3.41
18:28:20.343750,3.56
18:28:20.359375,3.69
18:28:20.375000,3.73
18:28:20.390625,3.64
18:28:20.406250,3.43
18:28:20.421875,3.19
18:28:20.437500,3.02
18:28:20.453125,2.99
18:28:20.468750,3.09
18:28:20.484375,3.25
18:28:20.500000,3.39
18:28:20.515625,3.41
18:28:20.531250,3.29
18:28:20.546875,3.04
18:28:20.562500,2.69
18:28:20.578125,2.26
18:28:20.593750,1.78
18:28:20.609375,1.27
18:28:20.625000,0.78
18:28:20.640625,0.35
18:28:20.656250,-0.02
18:28:20.671875,-0.35
18:28:20.687500,-0.71
18:28:20.703125,-1.14
18:28:20.718750,-1.64
18:28:20.734375,-2.15
18:28:20.750000,-2.57
18:28:20.765625,-2.87
18:28:20.781250,-3.04
18:28:20.796875,-3.13
18:28:20.812500,-3.22
18:28:20.828125,-3.39
18:28:20.843750,-3.68
18:28:20.859375,-4.05
18:28:20.875000,-4.47
18:28:20.890625,-4.91
18:28:20.906250,-5.34
18:28:20.921875,-5.70
18:28:20.937500,-5.93
18:28:20.953125,-5.95
18:28:20.968750,-5.68
18:28:20.984375,-5.10
18:28:21,-4.26
18:28:21.015625,-3.32
18:28:21.031250,-2.41
18:28:21.046875,-1.66
18:28:21.062500,-1.13
18:28:21.078125,-0.78
18:28:21.093750,-0.54
18:28:21.109375,-0.32
18:28:21.125000,-0.02
18:28:21.140625,0.40
18:28:21.156250,0.95
18:28:21.171875,1.56
18:28:21.187500,2.17
18:28:21.203125,2.69
18:28:21.218750,3.06
18:28:21.234375,3.28
18:28:21.250000,3.40
18:28:21.265625,3.48
18:28:21.281250,3.55
18:28:21.296875,3.61
18:28:21.312500,3.63
18:28:21.328125,3.62
18:28:21.343750,3.61
18:28:21.359375,3.67
18:28:21.375000,3.79
18:28:21.390625,3.93
18:28:21.406250,3.99
18:28:21.421875,3.86
18:28:21.437500,3.55
18:28:21.453125,3.13
18:28:21.468750,2.70
18:28:21.484375,2.37
18:28:21.500000,2.13
18:28:21.515625,1.95
18:28:21.531250,1.78
18:28:21.546875,1.59
18:28:21.562500,1.39
18:28:21.578125,1.23
18:28:21.593750,1.10
18:28:21.609375,1.00
18:28:21.625000,0.94
18:28:21.640625,0.90
18:28:21.656250,0.90
18:28:21.671875,0.89
18:28:21.687500,0.79
18:28:21.703125,0.51
18:28:21.718750,0.03
18:28:21.734375,-0.60
18:28:21.750000,-1.26
18:28:21.765625,-1.81
18:28:21.781250,-2.20
18:28:21.796875,-2.50
18:28:21.812500,-2.84
18:28:21.828125,-3.30
18:28:21.843750,-3.88
18:28:21.859375,-4.50
18:28:21.875000,-5.02
18:28:21.890625,-5.40
18:28:21.906250,-5.66
18:28:21.921875,-5.88
18:28:21.937500,-6.08
18:28:21.953125,-6.23
18:28:21.968750,-6.20
18:28:21.984375,-5.90
18:28:22,-5.34
18:28:22.015625,-4.61
18:28:22.031250,-3.86
18:28:22.046875,-3.17
18:28:22.062500,-2.55
18:28:22.078125,-1.89
18:28:22.093750,-1.12
18:28:22.109375,-0.25
18:28:22.125000,0.62
18:28:22.140625,1.33
18:28:22.156250,1.77
18:28:22.171875,1.96
18:28:22.187500,2.01
18:28:22.203125,2.05
18:28:22.218750,2.18
18:28:22.234375,2.36
18:28:22.250000,2.50
18:28:22.265625,2.51
18:28:22.281250,2.39
18:28:22.296875,2.20
18:28:22.312500,2.06
18:28:22.328125,2.02
18:28:22.343750,2.10
18:28:22.359375,2.22
18:28:22.375000,2.35
18:28:22.390625,2.47
18:28:22.406250,2.61
18:28:22.421875,2.79
18:28:22.437500,3.01
18:28:22.453125,3.18
18:28:22.468750,3.20
18:28:22.484375,3.04
18:28:22.500000,2.72
18:28:22.515625,2.34
18:28:22.531250,2.01
18:28:22.546875,1.79
18:28:22.562500,1.67
18:28:22.578125,1.57
18:28:22.593750,1.40
18:28:22.609375,1.10
18:28:22.625000,0.68
18:28:22.640625,0.22
18:28:22.656250,-0.17
18:28:22.671875,-0.42
18:28:22.687500,-0.47
18:28:22.703125,-0.39
18:28:22.718750,-0.28
18:28:22.734375,-0.28
18:28:22.750000,-0.47
18:28:22.765625,-0.84
18:28:22.781250,-1.34
18:28:22.796875,-1.87
18:28:22.812500,-2.36
18:28:22.828125,-2.79
18:28:22.843750,-3.17
18:28:22.859375,-3.52
18:28:22.875000,-3.89
18:28:22.890625,-4.26
18:28:22.906250,-4.60
18:28:22.921875,-4.89
18:28:22.937500,-5.10
18:28:22.953125,-5.25
18:28:22.968750,-5.32
18:28:22.984375,-5.32
18:28:23,-5.22
18:28:23.015625,-4.99
18:28:23.031250,-4.62
18:28:23.046875,-4.10
18:28:23.062500,-3.46
18:28:23.078125,-2.76
18:28:23.093750,-2.02
18:28:23.109375,-1.30
18:28:23.125000,-0.60
18:28:23.140625,0.09
18:28:23.156250,0.72
18:28:23.171875,1.29
18:28:23.187500,1.75
18:28:23.203125,2.08
18:28:23.218750,2.30
18:28:23.234375,2.47
18:28:23.250000,2.62
18:28:23.265625,2.82
18:28:23.281250,3.08
18:28:23.296875,3.36
18:28:23.312500,3.62
18:28:23.328125,3.78
18:28:23.343750,3.84
18:28:23.359375,3.82
18:28:23.375000,3.76
18:28:23.390625,3.69
18:28:23.406250,3.60
18:28:23.421875,3.43
18:28:23.437500,3.15
18:28:23.453125,2.78
18:28:23.468750,2.40
18:28:23.484375,2.13
18:28:23.500000,2.02
18:28:23.515625,2.04
18:28:23.531250,2.08
18:28:23.546875,2.01
18:28:23.562500,1.78
18:28:23.578125,1.45
18:28:23.593750,1.15
18:28:23.609375,0.99
18:28:23.625000,0.97
18:28:23.640625,0.99
18:28:23.656250,0.90
18:28:23.671875,0.58
18:28:23.687500,0.06
18:28:23.703125,-0.56
18:28:23.718750,-1.10
18:28:23.734375,-1.46
18:28:23.750000,-1.65
18:28:23.765625,-1.77
18:28:23.781250,-1.95
18:28:23.796875,-2.29
18:28:23.812500,-2.81
18:28:23.828125,-3.43
18:28:23.843750,-4.08
18:28:23.859375,-4.66
18:28:23.875000,-5.13
18:28:23.890625,-5.51
18:28:23.906250,-5.79
18:28:23.921875,-5.97
18:28:23.937500,-6.04
18:28:23.953125,-5.95
18:28:23.968750,-5.67
18:28:23.984375,-5.19
18:28:24,-4.55
18:28:24.015625,-3.82
18:28:24.031250,-3.07
18:28:24.046875,-2.33
18:28:24.062500,-1.59
18:28:24.078125,-0.83
18:28:24.093750,-0.04
18:28:24.109375,0.76
18:28:24.125000,1.50
18:28:24.140625,2.09
18:28:24.156250,2.47
18:28:24.171875,2.63
18:28:24.187500,2.65
18:28:24.203125,2.62
18:28:24.218750,2.61
18:28:24.234375,2.69
18:28:24.250000,2.87
18:28:24.265625,3.12
18:28:24.281250,3.40
18:28:24.296875,3.68
18:28:24.312500,3.92
18:28:24.328125,4.13
18:28:24.343750,4.31
18:28:24.359375,4.44
18:28:24.375000,4.51
18:28:24.390625,4.45
18:28:24.406250,4.23
18:28:24.421875,3.88
18:28:24.437500,3.45
18:28:24.453125,3.05
18:28:24.468750,2.76
18:28:24.484375,2.58
18:28:24.500000,2.47
18:28:24.515625,2.34
18:28:24.531250,2.11
18:28:24.546875,1.78
18:28:24.562500,1.42
18:28:24.578125,1.11
18:28:24.593750,0.90
18:28:24.609375,0.78
18:28:24.625000,0.67
18:28:24.640625,0.48
18:28:24.656250,0.14
18:28:24.671875,-0.31
18:28:24.687500,-0.79
18:28:24.703125,-1.19
18:28:24.718750,-1.46
18:28:24.734375,-1.62
18:28:24.750000,-1.74
18:28:24.765625,-1.94
18:28:24.781250,-2.31
18:28:24.796875,-2.90
18:28:24.812500,-3.64
18:28:24.828125,-4.44
18:28:24.843750,-5.16
18:28:24.859375,-5.69
18:28:24.875000,-6.00
18:28:24.890625,-6.11
18:28:24.906250,-6.08
18:28:24.921875,-5.97
18:28:24.937500,-5.78
18:28:24.953125,-5.47
18:28:24.968750,-4.95
18:28:24.984375,-4.17
18:28:25,-3.17
18:28:25.015625,-2.06
18:28:25.031250,-1.02
18:28:25.046875,-0.24
18:28:25.062500,0.22
18:28:25.078125,0.39
18:28:25.093750,0.43
18:28:25.109375,0.51
18:28:25.125000,0.76
18:28:25.140625,1.18
18:28:25.156250,1.68
18:28:25.171875,2.11
18:28:25.187500,2.40
18:28:25.203125,2.53
18:28:25.218750,2.59
18:28:25.234375,2.67
18:28:25.250000,2.81
18:28:25.265625,3.00
18:28:25.281250,3.21
18:28:25.296875,3.40
18:28:25.312500,3.56
18:28:25.328125,3.66
18:28:25.343750,3.67
18:28:25.359375,3.52
18:28:25.375000,3.20
18:28:25.390625,2.76
18:28:25.406250,2.31
18:28:25.421875,1.96
18:28:25.437500,1.83
18:28:25.453125,1.90
18:28:25.468750,2.11
18:28:25.484375,2.31
18:28:25.500000,2.40
18:28:25.515625,2.28
18:28:25.531250,1.95
18:28:25.546875,1.46
18:28:25.562500,0.89
18:28:25.578125,0.34
18:28:25.593750,-0.12
18:28:25.609375,-0.45
18:28:25.625000,-0.69
18:28:25.640625,-0.88
18:28:25.656250,-1.08
18:28:25.671875,-1.31
18:28:25.687500,-1.55
18:28:25.703125,-1.74
18:28:25.718750,-1.88
18:28:25.734375,-2.03
18:28:25.750000,-2.28
18:28:25.765625,-2.72
18:28:25.781250,-3.38
18:28:25.796875,-4.18
