16:26:50,-0.00
16:26:50.015625,-0.00
16:26:50.031250,-0.00
16:26:50.046875,-0.00
16:26:50.062500,-0.00
16:26:50.078125,-0.00
16:26:50.093750,-0.00
16:26:50.109375,-0.00
16:26:50.125000,-0.00
16:26:50.140625,-0.00
16:26:50.156250,0.00
16:26:50.171875,0.01
16:26:50.187500,0.01
16:26:50.203125,-0.00
16:26:50.218750,-0.03
16:26:50.234375,-0.05
16:26:50.250000,-0.05
16:26:50.265625,0.00
16:26:50.281250,0.13
16:26:50.296875,0.36
16:26:50.312500,0.66
16:26:50.328125,1.01
16:26:50.343750,1.37
16:26:50.359375,1.72
16:26:50.375000,2.06
16:26:50.390625,2.40
16:26:50.406250,2.79
16:26:50.421875,3.24
16:26:50.437500,3.80
16:26:50.453125,4.42
16:26:50.468750,5.06
16:26:50.484375,5.66
16:26:50.500000,6.20
16:26:50.515625,6.68
16:26:50.531250,7.15
16:26:50.546875,7.68
16:26:50.562500,8.31
16:26:50.578125,9.14
16:26:50.593750,10.09
16:26:50.609375,11.04
16:26:50.625000,11.88
16:26:50.640625,12.56
16:26:50.656250,13.14
16:26:50.671875,13.76
16:26:50.687500,14.65
16:26:50.703125,15.96
16:26:50.718750,17.91
16:26:50.734375,20.32
16:26:50.750000,22.90
16:26:50.765625,25.38
16:26:50.781250,27.58
16:26:50.796875,29.57
16:26:50.812500,31.68
16:26:50.828125,34.32
16:26:50.843750,37.81
16:26:50.859375,42.54
16:26:50.875000,48.15
16:26:50.890625,54.10
16:26:50.906250,59.83
16:26:50.921875,64.97
16:26:50.937500,69.58
16:26:50.953125,74.14
16:26:50.968750,79.34
16:26:50.984375,85.71
16:26:51,93.76
16:26:51.015625,103.00
16:26:51.031250,112.62
16:26:51.046875,121.73
16:26:51.062500,129.77
16:26:51.078125,136.75
16:26:51.093750,143.30
16:26:51.109375,150.75
16:26:51.125000,157.77
16:26:51.140625,166.64
16:26:51.156250,177.95
16:26:51.171875,191.79
16:26:51.187500,206.97
16:26:51.203125,220.57
16:26:51.218750,228.25
16:26:51.234375,225.36
16:26:51.250000,208.53
16:26:51.265625,176.87
16:26:51.281250,132.76
16:26:51.296875,80.05
16:26:51.312500,23.07
16:26:51.328125,-34.94
16:26:51.343750,-92.44
16:26:51.359375,-149.16
16:26:51.375000,-205.23
16:26:51.390625,-260.37
16:26:51.406250,-313.74
16:26:51.421875,-363.87
16:26:51.437500,-409.83
16:26:51.453125,-450.91
16:26:51.468750,-486.50
16:26:51.484375,-515.74
16:26:51.500000,-537.23
16:26:51.515625,-549.22
16:26:51.531250,-549.96
16:26:51.546875,-538.37
16:26:51.562500,-514.21
16:26:51.578125,-478.67
16:26:51.593750,-433.88
16:26:51.609375,-382.45
16:26:51.625000,-327.02
16:26:51.640625,-269.84
16:26:51.656250,-212.63
16:26:51.671875,-156.66
16:26:51.687500,-102.95
16:26:51.703125,-52.38
16:26:51.718750,-5.91
16:26:51.734375,35.58
16:26:51.750000,71.44
16:26:51.765625,101.39
16:26:51.781250,125.54
16:26:51.796875,144.40
16:26:51.812500,158.65
16:26:51.828125,169.02
16:26:51.843750,176.13
16:26:51.859375,180.42
16:26:51.875000,182.19
16:26:51.890625,181.67
16:26:51.906250,179.14
16:26:51.921875,174.89
16:26:51.937500,169.30
16:26:51.953125,162.75
16:26:51.968750,155.61
16:26:51.984375,148.15
16:26:52,140.55
16:26:52.015625,132.92
16:26:52.031250,125.29
16:26:52.046875,117.67
16:26:52.062500,110.07
16:26:52.078125,102.49
16:26:52.093750,94.99
16:26:52.109375,87.61
16:26:52.125000,80.47
16:26:52.140625,73.67
16:26:52.156250,67.31
16:26:52.171875,61.39
16:26:52.187500,55.85
16:26:52.203125,50.57
16:26:52.218750,45.38
16:26:52.234375,40.20
16:26:52.250000,35.08
16:26:52.265625,30.18
16:26:52.281250,25.73
16:26:52.296875,21.93
16:26:52.312500,18.79
16:26:52.328125,16.15
16:26:52.343750,13.67
16:26:52.359375,11.00
16:26:52.375000,7.95
16:26:52.390625,4.61
16:26:52.406250,1.34
16:26:52.421875,-1.40
16:26:52.437500,-3.23
16:26:52.453125,-4.12
16:26:52.468750,-4.43
16:26:52.484375,-4.76
16:26:52.500000,-5.72
16:26:52.515625,-7.62
16:26:52.531250,-10.29
16:26:52.546875,-13.13
16:26:52.562500,-15.37
16:26:52.578125,-16.51
16:26:52.593750,-16.51
16:26:52.609375,-15.87
16:26:52.625000,-15.31
16:26:52.640625,-15.50
16:26:52.656250,-16.77
16:26:52.671875,-19.13
16:26:52.687500,-22.39
16:26:52.703125,-26.24
16:26:52.718750,-30.08
16:26:52.734375,-32.71
16:26:52.750000,-32.39
16:26:52.765625,-27.44
16:26:52.781250,-17.23
16:26:52.796875,-2.92
16:26:52.812500,12.62
16:26:52.828125,25.86
16:26:52.843750,34.29
16:26:52.859375,37.46
16:26:52.875000,37.03
16:26:52.890625,35.54
16:26:52.906250,34.87
16:26:52.921875,35.21
16:26:52.937500,35.35
16:26:52.953125,33.80
16:26:52.968750,30.07
16:26:52.984375,25.12
16:26:53,20.72
16:26:53.015625,18.34
16:26:53.031250,18.21
16:26:53.046875,19.23
16:26:53.062500,19.76
16:26:53.078125,18.58
16:26:53.093750,15.56
16:26:53.109375,11.55
16:26:53.125000,7.89
16:26:53.140625,5.57
16:26:53.156250,4.76
16:26:53.171875,4.95
16:26:53.187500,5.27
16:26:53.203125,5.09
16:26:53.218750,4.24
16:26:53.234375,2.99
16:26:53.250000,1.83
16:26:53.265625,1.17
16:26:53.281250,1.20
16:26:53.296875,1.89
16:26:53.312500,3.04
16:26:53.328125,4.38
16:26:53.343750,5.59
16:26:53.359375,6.42
16:26:53.375000,6.72
16:26:53.390625,6.51
16:26:53.406250,6.03
16:26:53.421875,5.56
16:26:53.437500,5.36
16:26:53.453125,5.48
16:26:53.468750,5.83
16:26:53.484375,6.22
16:26:53.500000,6.50
16:26:53.515625,6.69
16:26:53.531250,7.02
16:26:53.546875,7.77
16:26:53.562500,9.14
16:26:53.578125,11.17
16:26:53.593750,13.58
16:26:53.609375,15.94
16:26:53.625000,17.82
16:26:53.640625,18.92
16:26:53.656250,19.15
16:26:53.671875,18.60
16:26:53.687500,17.37
16:26:53.703125,15.45
16:26:53.718750,12.80
16:26:53.734375,9.22
16:26:53.750000,4.71
16:26:53.765625,-0.36
16:26:53.781250,-5.41
16:26:53.796875,-9.82
16:26:53.812500,-13.19
16:26:53.828125,-15.43
16:26:53.843750,-16.74
16:26:53.859375,-17.44
16:26:53.875000,-17.77
16:26:53.890625,-17.80
16:26:53.906250,-17.49
16:26:53.921875,-16.84
16:26:53.937500,-15.95
16:26:53.953125,-15.07
16:26:53.968750,-14.38
16:26:53.984375,-13.95
16:26:54,-13.64
16:26:54.015625,-13.18
16:26:54.031250,-12.32
16:26:54.046875,-10.91
16:26:54.062500,-9.08
16:26:54.078125,-7.16
16:26:54.093750,-5.55
16:26:54.109375,-4.54
16:26:54.125000,-4.22
16:26:54.140625,-4.39
16:26:54.156250,-4.78
16:26:54.171875,-5.08
16:26:54.187500,-5.10
16:26:54.203125,-4.88
16:26:54.218750,-4.57
16:26:54.234375,-4.37
16:26:54.250000,-4.39
16:26:54.265625,-4.58
16:26:54.281250,-4.78
16:26:54.296875,-4.79
16:26:54.312500,-4.48
16:26:54.328125,-3.81
16:26:54.343750,-2.90
16:26:54.359375,-1.97
16:26:54.375000,-1.18
16:26:54.390625,-0.66
16:26:54.406250,-0.36
16:26:54.421875,-0.16
16:26:54.437500,0.09
16:26:54.453125,0.45
16:26:54.468750,0.93
16:26:54.484375,1.42
16:26:54.500000,1.79
16:26:54.515625,1.94
16:26:54.531250,1.80
16:26:54.546875,1.36
16:26:54.562500,0.66
16:26:54.578125,-0.23
16:26:54.593750,-1.19
16:26:54.609375,-2.09
16:26:54.625000,-2.83
16:26:54.640625,-3.36
16:26:54.656250,-3.73
16:26:54.671875,-4.03
16:26:54.687500,-4.29
16:26:54.703125,-4.46
16:26:54.718750,-4.29
16:26:54.734375,-3.53
16:26:54.750000,-2.08
16:26:54.765625,-0.00
16:26:54.781250,2.36
16:26:54.796875,4.52
16:26:54.812500,5.94
16:26:54.828125,6.29
16:26:54.843750,5.58
16:26:54.859375,4.11
16:26:54.875000,2.33
16:26:54.890625,0.64
16:26:54.906250,-0.78
16:26:54.921875,-1.97
16:26:54.937500,-3.06
16:26:54.953125,-4.12
16:26:54.968750,-5.03
16:26:54.984375,-5.55
16:26:55,-5.44
16:26:55.015625,-4.66
16:26:55.031250,-3.43
16:26:55.046875,-2.09
16:26:55.062500,-1.01
16:26:55.078125,-0.39
16:26:55.093750,-0.20
16:26:55.109375,-0.30
16:26:55.125000,-0.47
16:26:55.140625,-0.62
16:26:55.156250,-0.78
16:26:55.171875,-1.09
16:26:55.187500,-1.69
16:26:55.203125,-2.66
16:26:55.218750,-3.95
16:26:55.234375,-5.46
16:26:55.250000,-6.99
16:26:55.265625,-8.33
16:26:55.281250,-9.23
16:26:55.296875,-9.46
16:26:55.312500,-8.92
16:26:55.328125,-7.71
16:26:55.343750,-6.22
16:26:55.359375,-5.01
16:26:55.375000,-4.60
16:26:55.390625,-5.22
16:26:55.406250,-6.69
16:26:55.421875,-8.45
16:26:55.437500,-9.90
16:26:55.453125,-10.74
16:26:55.468750,-11.15
16:26:55.484375,-11.74
16:26:55.500000,-13.21
16:26:55.515625,-15.87
16:26:55.531250,-19.47
16:26:55.546875,-23.18
16:26:55.562500,-25.94
16:26:55.578125,-26.90
16:26:55.593750,-25.79
16:26:55.609375,-23.08
16:26:55.625000,-19.80
16:26:55.640625,-17.32
16:26:55.656250,-16.97
16:26:55.671875,-19.70
16:26:55.687500,-25.69
16:26:55.703125,-34.04
16:26:55.718750,-42.85
16:26:55.734375,-49.74
16:26:55.750000,-52.69
16:26:55.765625,-50.94
16:26:55.781250,-45.20
16:26:55.796875,-37.18
16:26:55.812500,-28.49
16:26:55.828125,-19.64
16:26:55.843750,-9.70
16:26:55.859375,3.16
16:26:55.875000,20.50
16:26:55.890625,42.55
16:26:55.906250,67.89
16:26:55.921875,93.78
16:26:55.937500,116.90
16:26:55.953125,134.12
16:26:55.968750,142.98
16:26:55.984375,142.21
16:26:56,132.13
16:26:56.015625,114.91
16:26:56.031250,94.40
16:26:56.046875,75.06
16:26:56.062500,60.56
16:26:56.078125,52.46
16:26:56.093750,49.73
16:26:56.109375,49.50
16:26:56.125000,48.56
16:26:56.140625,44.85
16:26:56.156250,38.18
16:26:56.171875,29.87
16:26:56.187500,21.87
16:26:56.203125,15.79
16:26:56.218750,12.41
16:26:56.234375,11.71
16:26:56.250000,13.07
16:26:56.265625,15.48
16:26:56.281250,17.68
16:26:56.296875,18.22
16:26:56.312500,15.84
16:26:56.328125,9.86
16:26:56.343750,0.46
16:26:56.359375,-11.21
16:26:56.375000,-23.40
16:26:56.390625,-34.42
16:26:56.406250,-43.05
16:26:56.421875,-48.69
16:26:56.437500,-51.15
16:26:56.453125,-50.46
16:26:56.468750,-46.88
16:26:56.484375,-41.04
16:26:56.500000,-34.04
16:26:56.515625,-27.18
16:26:56.531250,-21.53
16:26:56.546875,-17.38
16:26:56.562500,-14.14
16:26:56.578125,-10.72
16:26:56.593750,-6.34
16:26:56.609375,-1.13
16:26:56.625000,3.85
16:26:56.640625,7.15
16:26:56.656250,7.79
16:26:56.671875,5.85
16:26:56.687500,2.49
16:26:56.703125,-0.64
16:26:56.718750,-2.16
16:26:56.734375,-1.49
16:26:56.750000,1.06
16:26:56.765625,4.62
16:26:56.781250,8.16
16:26:56.796875,10.78
16:26:56.812500,11.91
16:26:56.828125,11.37
16:26:56.843750,9.20
16:26:56.859375,5.66
16:26:56.875000,1.18
16:26:56.890625,-3.75
16:26:56.906250,-8.66
16:26:56.921875,-13.20
16:26:56.937500,-17.15
16:26:56.953125,-20.39
16:26:56.968750,-22.86
16:26:56.984375,-24.53
16:26:57,-25.44
16:26:57.015625,-25.66
16:26:57.031250,-25.32
16:26:57.046875,-24.53
16:26:57.062500,-23.39
16:26:57.078125,-21.84
16:26:57.093750,-19.82
16:26:57.109375,-17.30
16:26:57.125000,-14.43
16:26:57.140625,-11.56
16:26:57.156250,-9.13
16:26:57.171875,-7.50
16:26:57.187500,-6.71
16:26:57.203125,-6.53
16:26:57.218750,-6.53
16:26:57.234375,-6.38
16:26:57.250000,-6.10
16:26:57.265625,-6.03
16:26:57.281250,-6.69
16:26:57.296875,-8.43
16:26:57.312500,-11.19
16:26:57.328125,-14.45
16:26:57.343750,-17.47
16:26:57.359375,-19.59
16:26:57.375000,-20.53
16:26:57.390625,-20.44
16:26:57.406250,-19.74
16:26:57.421875,-18.89
16:26:57.437500,-18.12
16:26:57.453125,-17.45
16:26:57.468750,-16.71
16:26:57.484375,-15.70
16:26:57.500000,-14.38
16:26:57.515625,-12.89
16:26:57.531250,-11.53
16:26:57.546875,-10.59
16:26:57.562500,-10.28
16:26:57.578125,-10.59
16:26:57.593750,-11.30
16:26:57.609375,-12.14
16:26:57.625000,-12.86
16:26:57.640625,-13.38
16:26:57.656250,-13.75
16:26:57.671875,-14.09
16:26:57.687500,-14.41
16:26:57.703125,-14.65
16:26:57.718750,-14.68
16:26:57.734375,-14.46
16:26:57.750000,-14.11
16:26:57.765625,-13.89
16:26:57.781250,-14.01
16:26:57.796875,-14.48
16:26:57.812500,-15.03
16:26:57.828125,-15.17
16:26:57.843750,-14.47
16:26:57.859375,-12.75
16:26:57.875000,-10.22
16:26:57.890625,-7.34
16:26:57.906250,-4.59
16:26:57.921875,-2.26
16:26:57.937500,-0.38
16:26:57.953125,1.19
16:26:57.968750,2.61
16:26:57.984375,3.91
16:26:58,5.02
16:26:58.015625,5.79
16:26:58.031250,6.18
16:26:58.046875,6.24
16:26:58.062500,6.10
16:26:58.078125,5.89
16:26:58.093750,5.66
16:26:58.109375,5.44
16:26:58.125000,5.20
16:26:58.140625,4.95
16:26:58.156250,4.71
16:26:58.171875,4.46
16:26:58.187500,4.18
16:26:58.203125,3.85
16:26:58.218750,3.41
16:26:58.234375,2.84
16:26:58.250000,2.12
16:26:58.265625,1.30
16:26:58.281250,0.42
16:26:58.296875,-0.37
16:26:58.312500,-0.98
16:26:58.328125,-1.26
16:26:58.343750,-1.24
16:26:58.359375,-1.05
16:26:58.375000,-0.98
16:26:58.390625,-1.30
16:26:58.406250,-2.15
16:26:58.421875,-3.44
16:26:58.437500,-4.81
16:26:58.453125,-5.83
16:26:58.468750,-6.10
16:26:58.484375,-5.49
16:26:58.500000,-4.11
16:26:58.515625,-2.28
16:26:58.531250,-0.38
16:26:58.546875,1.32
16:26:58.562500,2.71
16:26:58.578125,3.87
16:26:58.593750,4.90
16:26:58.609375,5.86
16:26:58.625000,6.67
16:26:58.640625,7.20
16:26:58.656250,7.34
16:26:58.671875,7.06
16:26:58.687500,6.51
16:26:58.703125,5.90
16:26:58.718750,5.46
16:26:58.734375,5.30
16:26:58.750000,5.40
16:26:58.765625,5.65
16:26:58.781250,5.87
16:26:58.796875,5.95
16:26:58.812500,5.81
16:26:58.828125,5.45
16:26:58.843750,4.87
16:26:58.859375,4.09
16:26:58.875000,3.15
16:26:58.890625,2.13
16:26:58.906250,1.14
16:26:58.921875,0.25
16:26:58.937500,-0.45
16:26:58.953125,-0.99
16:26:58.968750,-1.39
16:26:58.984375,-1.74
16:26:59,-2.11
16:26:59.015625,-2.56
16:26:59.031250,-3.14
16:26:59.046875,-3.84
16:26:59.062500,-4.61
16:26:59.078125,-5.31
16:26:59.093750,-5.77
16:26:59.109375,-5.83
16:26:59.125000,-5.42
16:26:59.140625,-4.59
16:26:59.156250,-3.53
16:26:59.171875,-2.42
16:26:59.187500,-1.39
16:26:59.203125,-0.49
16:26:59.218750,0.35
16:26:59.234375,1.14
16:26:59.250000,1.88
16:26:59.265625,2.47
16:26:59.281250,2.85
16:26:59.296875,3.04
16:26:59.312500,3.08
16:26:59.328125,3.06
16:26:59.343750,2.98
16:26:59.359375,2.79
16:26:59.375000,2.45
16:26:59.390625,1.99
16:26:59.406250,1.55
16:26:59.421875,1.30
16:26:59.437500,1.32
16:26:59.453125,1.56
16:26:59.468750,1.86
16:26:59.484375,2.08
16:26:59.500000,2.11
16:26:59.515625,1.98
16:26:59.531250,1.76
16:26:59.546875,1.50
16:26:59.562500,1.28
16:26:59.578125,1.12
16:26:59.593750,1.08
16:26:59.609375,1.14
16:26:59.625000,1.19
16:26:59.640625,0.96
16:26:59.656250,0.11
16:26:59.671875,-1.66
16:26:59.687500,-4.41
16:26:59.703125,-7.80
16:26:59.718750,-11.10
16:26:59.734375,-13.33
16:26:59.750000,-13.54
16:26:59.765625,-11.18
16:26:59.781250,-6.33
16:26:59.796875,0.28
16:26:59.812500,7.47
16:26:59.828125,14.02
16:26:59.843750,19.03
16:26:59.859375,22.09
16:26:59.875000,23.27
16:26:59.890625,22.92
16:26:59.906250,21.52
16:26:59.921875,19.57
16:26:59.937500,17.54
16:26:59.953125,15.95
16:26:59.968750,15.31
16:26:59.984375,16.02
16:27:00,18.30
16:27:00.015625,22.17
16:27:00.031250,27.56
16:27:00.046875,34.32
16:27:00.062500,42.06
16:27:00.078125,49.88
16:27:00.093750,56.20
16:27:00.109375,58.97
16:27:00.125000,56.29
16:27:00.140625,47.20
16:27:00.156250,32.28
16:27:00.171875,13.75
16:27:00.187500,-5.06
16:27:00.203125,-20.76
16:27:00.218750,-30.88
16:27:00.234375,-34.64
16:27:00.250000,-32.96
16:27:00.265625,-27.92
16:27:00.281250,-21.89
16:27:00.296875,-16.56
16:27:00.312500,-12.36
16:27:00.328125,-8.38
16:27:00.343750,-2.95
16:27:00.359375,5.56
16:27:00.375000,17.79
16:27:00.390625,32.94
16:27:00.406250,48.90
16:27:00.421875,63.08
16:27:00.437500,73.38
16:27:00.453125,78.99
16:27:00.468750,80.69
16:27:00.484375,80.42
16:27:00.500000,80.55
16:27:00.515625,83.27
16:27:00.531250,90.02
16:27:00.546875,101.29
16:27:00.562500,116.45
16:27:00.578125,133.56
16:27:00.593750,149.55
16:27:00.609375,160.69
16:27:00.625000,163.45
16:27:00.640625,155.63
16:27:00.656250,136.98
16:27:00.671875,109.23
16:27:00.687500,75.25
16:27:00.703125,37.89
16:27:00.718750,-1.20
16:27:00.734375,-42.06
16:27:00.750000,-85.73
16:27:00.765625,-132.78
16:27:00.781250,-181.60
16:27:00.796875,-227.81
16:27:00.812500,-265.08
16:27:00.828125,-287.44
16:27:00.843750,-291.82
16:27:00.859375,-279.56
16:27:00.875000,-256.00
16:27:00.890625,-228.34
16:27:00.906250,-202.78
16:27:00.921875,-182.54
16:27:00.937500,-167.59
16:27:00.953125,-156.14
16:27:00.968750,-146.55
16:27:00.984375,-138.66
16:27:01,-133.48
16:27:01.015625,-131.79
16:27:01.031250,-132.58
16:27:01.046875,-132.48
16:27:01.062500,-126.76
16:27:01.078125,-111.28
16:27:01.093750,-84.53
16:27:01.109375,-48.51
16:27:01.125000,-8.29
16:27:01.140625,30.14
16:27:01.156250,62.07
16:27:01.171875,85.59
16:27:01.187500,101.63
16:27:01.203125,112.65
16:27:01.218750,120.93
16:27:01.234375,127.51
16:27:01.250000,132.13
16:27:01.265625,134.06
16:27:01.281250,133.08
16:27:01.296875,129.85
16:27:01.312500,125.64
16:27:01.328125,121.52
16:27:01.343750,117.76
16:27:01.359375,113.67
16:27:01.375000,108.09
16:27:01.390625,100.07
16:27:01.406250,89.53
16:27:01.421875,77.48
16:27:01.437500,65.64
16:27:01.453125,55.80
16:27:01.468750,49.16
16:27:01.484375,45.79
16:27:01.500000,44.72
16:27:01.515625,44.35
16:27:01.531250,43.20
16:27:01.546875,40.46
16:27:01.562500,36.16
16:27:01.578125,30.92
16:27:01.593750,25.52
16:27:01.609375,20.40
16:27:01.625000,15.59
16:27:01.640625,10.81
16:27:01.656250,5.74
16:27:01.671875,0.22
16:27:01.687500,-5.72
16:27:01.703125,-11.75
16:27:01.718750,-17.42
16:27:01.734375,-22.16
16:27:01.750000,-25.36
16:27:01.765625,-26.56
16:27:01.781250,-25.55
16:27:01.796875,-22.61
16:27:01.812500,-18.48
16:27:01.828125,-14.27
16:27:01.843750,-11.20
16:27:01.859375,-10.30
16:27:01.875000,-12.20
16:27:01.890625,-17.00
16:27:01.906250,-24.23
16:27:01.921875,-32.93
16:27:01.937500,-41.73
16:27:01.953125,-49.10
16:27:01.968750,-53.75
16:27:01.984375,-54.99
16:27:02,-53.01
16:27:02.015625,-48.85
16:27:02.031250,-43.95
16:27:02.046875,-39.68
16:27:02.062500,-36.80
16:27:02.078125,-35.33
16:27:02.093750,-34.72
16:27:02.109375,-34.18
16:27:02.125000,-33.12
16:27:02.140625,-31.31
16:27:02.156250,-28.88
16:27:02.171875,-26.17
16:27:02.187500,-23.58
16:27:02.203125,-21.39
16:27:02.218750,-19.75
16:27:02.234375,-18.59
16:27:02.250000,-17.71
16:27:02.265625,-16.85
16:27:02.281250,-15.74
16:27:02.296875,-14.31
16:27:02.312500,-12.63
16:27:02.328125,-10.93
16:27:02.343750,-9.47
16:27:02.359375,-8.41
16:27:02.375000,-7.74
16:27:02.390625,-7.25
16:27:02.406250,-6.65
16:27:02.421875,-5.68
16:27:02.437500,-4.18
16:27:02.453125,-2.20
16:27:02.468750,0.12
16:27:02.484375,2.58
16:27:02.500000,5.06
16:27:02.515625,7.47
16:27:02.531250,9.80
16:27:02.546875,12.08
16:27:02.562500,14.38
16:27:02.578125,16.76
16:27:02.593750,19.26
16:27:02.609375,21.85
16:27:02.625000,24.40
16:27:02.640625,26.57
16:27:02.656250,27.90
16:27:02.671875,27.94
16:27:02.687500,26.40
16:27:02.703125,23.36
16:27:02.718750,19.25
16:27:02.734375,14.85
16:27:02.750000,11.11
16:27:02.765625,8.91
16:27:02.781250,8.86
16:27:02.796875,11.14
16:27:02.812500,15.40
16:27:02.828125,20.82
16:27:02.843750,26.27
16:27:02.859375,30.61
16:27:02.875000,32.97
16:27:02.890625,33.09
16:27:02.906250,31.39
16:27:02.921875,28.91
16:27:02.937500,26.77
16:27:02.953125,25.63
16:27:02.968750,25.30
16:27:02.984375,24.76
16:27:03,22.66
16:27:03.015625,18.00
16:27:03.031250,10.53
16:27:03.046875,0.85
16:27:03.062500,-10.11
16:27:03.078125,-21.57
16:27:03.093750,-33.21
16:27:03.109375,-44.99
16:27:03.125000,-56.72
16:27:03.140625,-67.73
16:27:03.156250,-76.97
16:27:03.171875,-83.45
16:27:03.187500,-86.87
16:27:03.203125,-87.85
16:27:03.218750,-87.67
16:27:03.234375,-87.65
16:27:03.250000,-88.39
16:27:03.265625,-89.53
16:27:03.281250,-89.92
16:27:03.296875,-88.14
16:27:03.312500,-83.21
16:27:03.328125,-74.98
16:27:03.343750,-64.28
16:27:03.359375,-52.48
16:27:03.375000,-40.93
16:27:03.390625,-30.41
16:27:03.406250,-20.81
16:27:03.421875,-11.29
16:27:03.437500,-0.75
16:27:03.453125,11.61
16:27:03.468750,25.85
16:27:03.484375,41.21
16:27:03.500000,56.45
16:27:03.515625,70.33
16:27:03.531250,82.06
16:27:03.546875,91.48
16:27:03.562500,98.94
16:27:03.578125,104.96
16:27:03.593750,109.92
16:27:03.609375,113.90
16:27:03.625000,116.72
16:27:03.640625,118.16
16:27:03.656250,118.08
16:27:03.671875,116.50
16:27:03.687500,113.55
16:27:03.703125,109.42
16:27:03.718750,104.40
16:27:03.734375,98.84
16:27:03.750000,93.24
16:27:03.765625,88.20
16:27:03.781250,84.28
16:27:03.796875,81.89
16:27:03.812500,81.14
16:27:03.828125,81.86
16:27:03.843750,83.66
16:27:03.859375,85.99
16:27:03.875000,88.33
16:27:03.890625,90.27
16:27:03.906250,91.52
16:27:03.921875,92.03
16:27:03.937500,92.00
16:27:03.953125,91.87
16:27:03.968750,92.24
16:27:03.984375,93.71
16:27:04,96.69
16:27:04.015625,101.27
16:27:04.031250,107.10
16:27:04.046875,113.53
16:27:04.062500,119.70
16:27:04.078125,124.77
16:27:04.093750,128.12
16:27:04.109375,129.42
16:27:04.125000,128.68
16:27:04.140625,126.01
16:27:04.156250,121.51
16:27:04.171875,115.14
16:27:04.187500,106.67
16:27:04.203125,95.81
16:27:04.218750,82.30
16:27:04.234375,65.99
16:27:04.250000,46.79
16:27:04.265625,24.79
16:27:04.281250,0.42
16:27:04.296875,-25.37
16:27:04.312500,-50.92
16:27:04.328125,-74.04
16:27:04.343750,-92.65
16:27:04.359375,-105.53
16:27:04.375000,-112.79
16:27:04.390625,-115.89
16:27:04.406250,-116.91
16:27:04.421875,-117.55
16:27:04.437500,-118.45
16:27:04.453125,-119.10
16:27:04.468750,-118.62
16:27:04.484375,-116.45
16:27:04.500000,-112.96
16:27:04.515625,-109.02
16:27:04.531250,-105.37
16:27:04.546875,-101.92
16:27:04.562500,-97.76
16:27:04.578125,-91.65
16:27:04.593750,-82.98
16:27:04.609375,-72.25
16:27:04.625000,-60.97
16:27:04.640625,-51.03
16:27:04.656250,-43.85
16:27:04.671875,-39.93
16:27:04.687500,-38.95
16:27:04.703125,-40.20
16:27:04.718750,-43.08
16:27:04.734375,-47.13
16:27:04.750000,-51.97
16:27:04.765625,-56.97
16:27:04.781250,-61.22
16:27:04.796875,-63.73
16:27:04.812500,-63.85
16:27:04.828125,-61.50
16:27:04.843750,-57.22
16:27:04.859375,-51.97
16:27:04.875000,-46.64
16:27:04.890625,-41.75
16:27:04.906250,-37.29
16:27:04.921875,-32.87
16:27:04.937500,-28.00
16:27:04.953125,-22.39
16:27:04.968750,-16.06
16:27:04.984375,-9.37
16:27:05,-2.95
16:27:05.015625,2.51
16:27:05.031250,6.27
16:27:05.046875,7.72
16:27:05.062500,6.45
16:27:05.078125,2.37
16:27:05.093750,-4.20
16:27:05.109375,-12.57
16:27:05.125000,-21.88
16:27:05.140625,-31.40
16:27:05.156250,-40.68
16:27:05.171875,-49.57
16:27:05.187500,-58.01
16:27:05.203125,-65.72
16:27:05.218750,-72.05
16:27:05.234375,-76.18
16:27:05.250000,-77.48
16:27:05.265625,-76.00
16:27:05.281250,-72.54
16:27:05.296875,-68.42
16:27:05.312500,-64.91
16:27:05.328125,-62.80
16:27:05.343750,-62.16
16:27:05.359375,-62.59
16:27:05.375000,-63.52
16:27:05.390625,-64.68
16:27:05.406250,-66.34
16:27:05.421875,-69.36
16:27:05.437500,-74.88
16:27:05.453125,-83.86
16:27:05.468750,-96.42
16:27:05.484375,-111.43
16:27:05.500000,-126.56
16:27:05.515625,-138.97
16:27:05.531250,-146.38
16:27:05.546875,-147.94
16:27:05.562500,-144.29
16:27:05.578125,-136.81
16:27:05.593750,-126.25
16:27:05.609375,-111.84
16:27:05.625000,-91.34
16:27:05.640625,-62.13
16:27:05.656250,-22.50
16:27:05.671875,27.39
16:27:05.687500,85.38
16:27:05.703125,147.71
16:27:05.718750,209.47
16:27:05.734375,265.07
16:27:05.750000,308.83
16:27:05.765625,336.07
16:27:05.781250,344.32
16:27:05.796875,334.19
16:27:05.812500,309.37
16:27:05.828125,275.37
16:27:05.843750,237.65
16:27:05.859375,199.99
16:27:05.875000,163.76
16:27:05.890625,128.42
16:27:05.906250,92.74
16:27:05.921875,56.01
16:27:05.937500,18.67
16:27:05.953125,-17.62
16:27:05.968750,-50.81
16:27:05.984375,-79.34
16:27:06,-103.07
16:27:06.015625,-123.40
16:27:06.031250,-142.44
16:27:06.046875,-161.37
16:27:06.062500,-178.88
16:27:06.078125,-191.01
16:27:06.093750,-192.66
16:27:06.109375,-180.21
16:27:06.125000,-153.66
16:27:06.140625,-117.09
16:27:06.156250,-76.96
16:27:06.171875,-39.35
16:27:06.187500,-7.78
16:27:06.203125,17.34
16:27:06.218750,37.45
16:27:06.234375,54.04
16:27:06.250000,67.40
16:27:06.265625,76.74
16:27:06.281250,81.30
16:27:06.296875,81.34
16:27:06.312500,78.49
16:27:06.328125,75.03
16:27:06.343750,72.87
16:27:06.359375,72.73
16:27:06.375000,73.96
16:27:06.390625,75.03
16:27:06.406250,74.35
16:27:06.421875,71.00
16:27:06.437500,65.18
16:27:06.453125,58.13
16:27:06.468750,51.52
16:27:06.484375,46.75
16:27:06.500000,44.35
16:27:06.515625,43.79
16:27:06.531250,43.85
16:27:06.546875,43.20
16:27:06.562500,40.96
16:27:06.578125,36.98
16:27:06.593750,31.71
16:27:06.609375,25.87
16:27:06.625000,20.10
16:27:06.640625,14.84
16:27:06.656250,10.23
16:27:06.671875,6.19
16:27:06.687500,2.43
16:27:06.703125,-1.47
16:27:06.718750,-5.93
16:27:06.734375,-11.26
16:27:06.750000,-17.38
16:27:06.765625,-23.81
16:27:06.781250,-29.78
16:27:06.796875,-34.57
16:27:06.812500,-37.81
16:27:06.828125,-39.61
16:27:06.843750,-40.41
16:27:06.859375,-40.69
16:27:06.875000,-40.81
16:27:06.890625,-40.78
16:27:06.906250,-40.47
16:27:06.921875,-39.67
16:27:06.937500,-38.28
16:27:06.953125,-36.22
16:27:06.968750,-33.44
16:27:06.984375,-29.89
16:27:07,-25.58
16:27:07.015625,-20.72
16:27:07.031250,-15.73
16:27:07.046875,-11.18
16:27:07.062500,-7.60
16:27:07.078125,-5.28
16:27:07.093750,-4.18
16:27:07.109375,-4.10
16:27:07.125000,-4.77
16:27:07.140625,-5.93
16:27:07.156250,-7.44
16:27:07.171875,-9.11
16:27:07.187500,-10.73
16:27:07.203125,-12.10
16:27:07.218750,-13.13
16:27:07.234375,-14.03
16:27:07.250000,-15.17
16:27:07.265625,-16.93
16:27:07.281250,-19.39
16:27:07.296875,-22.16
16:27:07.312500,-24.48
16:27:07.328125,-25.44
16:27:07.343750,-24.46
16:27:07.359375,-21.61
16:27:07.375000,-17.62
16:27:07.390625,-13.63
16:27:07.406250,-10.70
16:27:07.421875,-9.41
16:27:07.437500,-9.61
16:27:07.453125,-10.62
16:27:07.468750,-11.62
16:27:07.484375,-12.11
16:27:07.500000,-12.10
16:27:07.515625,-12.12
16:27:07.531250,-12.91
16:27:07.546875,-15.10
16:27:07.562500,-18.84
16:27:07.578125,-23.76
16:27:07.593750,-29.06
16:27:07.609375,-33.86
16:27:07.625000,-37.56
16:27:07.640625,-40.09
16:27:07.656250,-41.96
16:27:07.671875,-43.99
16:27:07.687500,-46.96
16:27:07.703125,-51.19
16:27:07.718750,-56.36
16:27:07.734375,-61.60
16:27:07.750000,-65.86
16:27:07.765625,-68.18
16:27:07.781250,-68.11
16:27:07.796875,-65.83
16:27:07.812500,-62.31
16:27:07.828125,-59.30
16:27:07.843750,-59.08
16:27:07.859375,-63.95
16:27:07.875000,-75.35
16:27:07.890625,-92.95
16:27:07.906250,-114.31
16:27:07.921875,-135.29
16:27:07.937500,-151.36
16:27:07.953125,-159.19
16:27:07.968750,-157.70
16:27:07.984375,-148.19
16:27:08,-133.42
16:27:08.015625,-116.27
16:27:08.031250,-98.75
16:27:08.046875,-81.68
16:27:08.062500,-65.17
16:27:08.078125,-49.30
16:27:08.093750,-34.35
16:27:08.109375,-20.59
16:27:08.125000,-7.73
16:27:08.140625,5.22
16:27:08.156250,19.59
16:27:08.171875,36.18
16:27:08.187500,54.43
16:27:08.203125,72.07
16:27:08.218750,85.75
16:27:08.234375,92.26
16:27:08.250000,89.76
16:27:08.265625,78.68
16:27:08.281250,61.55
16:27:08.296875,42.25
16:27:08.312500,24.65
16:27:08.328125,11.51
16:27:08.343750,3.74
16:27:08.359375,0.45
16:27:08.375000,-0.49
16:27:08.390625,-1.51
16:27:08.406250,-4.29
16:27:08.421875,-8.87
16:27:08.437500,-13.41
16:27:08.453125,-14.38
16:27:08.468750,-7.50
16:27:08.484375,10.93
16:27:08.500000,42.70
16:27:08.515625,86.84
16:27:08.531250,139.57
16:27:08.546875,195.33
16:27:08.562500,248.43
16:27:08.578125,294.74
16:27:08.593750,332.69
16:27:08.609375,363.08
16:27:08.625000,387.97
16:27:08.640625,409.15
16:27:08.656250,426.98
16:27:08.671875,440.06
16:27:08.687500,445.96
16:27:08.703125,442.37
16:27:08.718750,428.14
16:27:08.734375,403.73
16:27:08.750000,370.78
16:27:08.765625,331.46
16:27:08.781250,287.52
16:27:08.796875,240.01
16:27:08.812500,189.26
16:27:08.828125,135.27
16:27:08.843750,78.30
16:27:08.859375,19.54
16:27:08.875000,-38.49
16:27:08.890625,-92.05
16:27:08.906250,-136.92
16:27:08.921875,-169.69
16:27:08.937500,-188.90
16:27:08.953125,-195.65
16:27:08.968750,-193.09
16:27:08.984375,-185.14
16:27:09,-175.07
16:27:09.015625,-164.52
16:27:09.031250,-153.77
16:27:09.046875,-142.69
16:27:09.062500,-131.97
16:27:09.078125,-123.57
16:27:09.093750,-120.15
16:27:09.109375,-123.93
16:27:09.125000,-135.61
16:27:09.140625,-153.98
16:27:09.156250,-176.36
16:27:09.171875,-199.43
16:27:09.187500,-219.94
16:27:09.203125,-235.20
16:27:09.218750,-243.24
16:27:09.234375,-242.78
16:27:09.250000,-233.29
16:27:09.265625,-215.06
16:27:09.281250,-189.45
16:27:09.296875,-158.95
16:27:09.312500,-127.10
16:27:09.328125,-98.01
16:27:09.343750,-75.55
16:27:09.359375,-62.35
16:27:09.375000,-58.88
16:27:09.390625,-63.15
16:27:09.406250,-71.21
16:27:09.421875,-78.43
16:27:09.437500,-81.09
16:27:09.453125,-77.61
16:27:09.468750,-68.72
16:27:09.484375,-56.71
16:27:09.500000,-44.19
16:27:09.515625,-32.91
16:27:09.531250,-23.31
16:27:09.546875,-14.83
16:27:09.562500,-6.68
16:27:09.578125,1.52
16:27:09.593750,9.43
16:27:09.609375,16.27
16:27:09.625000,21.31
16:27:09.640625,24.21
16:27:09.656250,25.31
16:27:09.671875,25.47
16:27:09.687500,25.80
16:27:09.703125,27.26
16:27:09.718750,30.26
16:27:09.734375,34.41
16:27:09.750000,38.54
16:27:09.765625,41.03
16:27:09.781250,40.41
16:27:09.796875,36.06
16:27:09.812500,28.51
16:27:09.828125,19.33
16:27:09.843750,10.60
16:27:09.859375,4.14
16:27:09.875000,0.90
16:27:09.890625,0.81
16:27:09.906250,2.99
16:27:09.921875,6.29
16:27:09.937500,9.74
16:27:09.953125,12.66
16:27:09.968750,14.73
16:27:09.984375,15.75
16:27:10,15.54
16:27:10.015625,13.96
16:27:10.031250,11.04
16:27:10.046875,7.06
16:27:10.062500,2.67
16:27:10.078125,-1.27
16:27:10.093750,-3.92
16:27:10.109375,-4.76
16:27:10.125000,-3.81
16:27:10.140625,-1.65
16:27:10.156250,0.82
16:27:10.171875,2.73
16:27:10.187500,3.55
16:27:10.203125,3.26
16:27:10.218750,2.25
16:27:10.234375,1.09
16:27:10.250000,0.20
16:27:10.265625,-0.22
16:27:10.281250,-0.36
16:27:10.296875,-0.53
16:27:10.312500,-1.03
16:27:10.328125,-1.91
16:27:10.343750,-2.96
16:27:10.359375,-3.78
16:27:10.375000,-3.96
16:27:10.390625,-3.31
16:27:10.406250,-1.90
16:27:10.421875,0.05
16:27:10.437500,2.29
16:27:10.453125,4.72
16:27:10.468750,7.42
16:27:10.484375,10.46
16:27:10.500000,13.77
16:27:10.515625,17.11
16:27:10.531250,20.15
16:27:10.546875,22.70
16:27:10.562500,24.90
16:27:10.578125,27.16
16:27:10.593750,29.98
16:27:10.609375,33.62
16:27:10.625000,37.94
16:27:10.640625,42.38
16:27:10.656250,46.20
16:27:10.671875,48.83
16:27:10.687500,50.16
16:27:10.703125,50.66
16:27:10.718750,51.31
16:27:10.734375,53.16
16:27:10.750000,56.92
16:27:10.765625,62.53
16:27:10.781250,69.06
16:27:10.796875,75.12
16:27:10.812500,79.45
16:27:10.828125,81.61
16:27:10.843750,82.09
16:27:10.859375,81.98
16:27:10.875000,82.24
16:27:10.890625,83.10
16:27:10.906250,83.77
16:27:10.921875,82.64
16:27:10.937500,77.50
16:27:10.953125,65.78
16:27:10.968750,44.91
16:27:10.984375,12.93
16:27:11,-30.37
16:27:11.015625,-82.41
16:27:11.031250,-137.51
16:27:11.046875,-187.84
16:27:11.062500,-225.69
16:27:11.078125,-245.96
16:27:11.093750,-247.84
16:27:11.109375,-234.74
16:27:11.125000,-212.59
16:27:11.140625,-187.56
16:27:11.156250,-164.23
16:27:11.171875,-144.92
16:27:11.187500,-130.14
16:27:11.203125,-119.34
16:27:11.218750,-111.50
16:27:11.234375,-105.30
16:27:11.250000,-98.96
16:27:11.265625,-90.40
16:27:11.281250,-77.68
16:27:11.296875,-59.76
16:27:11.312500,-37.10
16:27:11.328125,-11.69
16:27:11.343750,13.33
16:27:11.359375,34.81
16:27:11.375000,50.56
16:27:11.390625,60.02
16:27:11.406250,64.36
16:27:11.421875,65.88
16:27:11.437500,66.98
16:27:11.453125,69.34
16:27:11.468750,73.40
16:27:11.484375,78.45
16:27:11.500000,83.17
16:27:11.515625,86.24
16:27:11.531250,86.90
16:27:11.546875,85.10
16:27:11.562500,81.35
16:27:11.578125,76.45
16:27:11.593750,71.10
16:27:11.609375,65.78
16:27:11.625000,60.62
16:27:11.640625,55.57
16:27:11.656250,50.54
16:27:11.671875,45.50
16:27:11.687500,40.55
16:27:11.703125,35.81
16:27:11.718750,31.43
16:27:11.734375,27.42
16:27:11.750000,23.74
16:27:11.765625,20.34
16:27:11.781250,17.20
16:27:11.796875,14.42
16:27:11.812500,12.15
16:27:11.828125,10.48
16:27:11.843750,9.38
16:27:11.859375,8.63
16:27:11.875000,7.91
16:27:11.890625,6.93
16:27:11.906250,5.50
16:27:11.921875,3.65
16:27:11.937500,1.53
16:27:11.953125,-0.61
16:27:11.968750,-2.66
16:27:11.984375,-4.59
16:27:12,-6.47
16:27:12.015625,-8.37
16:27:12.031250,-10.22
16:27:12.046875,-11.79
16:27:12.062500,-12.76
16:27:12.078125,-12.86
16:27:12.093750,-12.02
16:27:12.109375,-10.43
16:27:12.125000,-8.45
16:27:12.140625,-6.51
16:27:12.156250,-4.90
16:27:12.171875,-3.71
16:27:12.187500,-2.81
16:27:12.203125,-2.00
16:27:12.218750,-1.13
16:27:12.234375,-0.18
16:27:12.250000,0.72
16:27:12.265625,1.40
16:27:12.281250,1.74
16:27:12.296875,1.70
16:27:12.312500,1.39
16:27:12.328125,0.93
16:27:12.343750,0.44
16:27:12.359375,-0.05
16:27:12.375000,-0.50
16:27:12.390625,-0.89
16:27:12.406250,-1.14
16:27:12.421875,-1.14
16:27:12.437500,-0.84
16:27:12.453125,-0.27
16:27:12.468750,0.47
16:27:12.484375,1.21
16:27:12.500000,1.76
16:27:12.515625,2.02
16:27:12.531250,1.97
16:27:12.546875,1.63
16:27:12.562500,1.08
16:27:12.578125,0.39
16:27:12.593750,-0.38
16:27:12.609375,-1.16
16:27:12.625000,-1.88
16:27:12.640625,-2.47
16:27:12.656250,-2.90
16:27:12.671875,-3.13
16:27:12.687500,-3.16
16:27:12.703125,-2.95
16:27:12.718750,-2.46
16:27:12.734375,-1.64
16:27:12.750000,-0.47
16:27:12.765625,0.98
16:27:12.781250,2.59
16:27:12.796875,4.16
16:27:12.812500,5.54
16:27:12.828125,6.69
16:27:12.843750,7.66
16:27:12.859375,8.56
16:27:12.875000,9.51
16:27:12.890625,10.51
16:27:12.906250,11.45
16:27:12.921875,12.13
16:27:12.937500,12.38
16:27:12.953125,12.09
16:27:12.968750,11.31
16:27:12.984375,10.18
16:27:13,8.92
16:27:13.015625,7.69
16:27:13.031250,6.61
16:27:13.046875,5.72
16:27:13.062500,5.03
16:27:13.078125,4.54
16:27:13.093750,4.21
16:27:13.109375,3.97
16:27:13.125000,3.71
16:27:13.140625,3.32
16:27:13.156250,2.73
16:27:13.171875,1.93
16:27:13.187500,1.00
16:27:13.203125,0.09
16:27:13.218750,-0.69
16:27:13.234375,-1.30
16:27:13.250000,-1.80
16:27:13.265625,-2.31
16:27:13.281250,-2.94
16:27:13.296875,-3.78
16:27:13.312500,-4.82
16:27:13.328125,-6.01
16:27:13.343750,-7.20
16:27:13.359375,-8.19
16:27:13.375000,-8.80
16:27:13.390625,-8.84
16:27:13.406250,-8.24
16:27:13.421875,-6.99
16:27:13.437500,-5.22
16:27:13.453125,-3.09
16:27:13.468750,-0.83
16:27:13.484375,1.35
16:27:13.500000,3.26
16:27:13.515625,4.75
16:27:13.531250,5.72
16:27:13.546875,6.15
16:27:13.562500,6.09
16:27:13.578125,5.69
16:27:13.593750,5.11
16:27:13.609375,4.53
16:27:13.625000,4.08
16:27:13.640625,3.84
16:27:13.656250,3.83
16:27:13.671875,3.98
16:27:13.687500,4.17
16:27:13.703125,4.22
16:27:13.718750,4.03
16:27:13.734375,3.59
16:27:13.750000,2.99
16:27:13.765625,2.39
16:27:13.781250,1.92
16:27:13.796875,1.61
16:27:13.812500,1.32
16:27:13.828125,0.84
16:27:13.843750,-0.02
16:27:13.859375,-1.33
16:27:13.875000,-2.98
16:27:13.890625,-4.75
16:27:13.906250,-6.39
16:27:13.921875,-7.71
16:27:13.937500,-8.70
16:27:13.953125,-9.49
16:27:13.968750,-10.36
16:27:13.984375,-11.52
16:27:14,-13.06
16:27:14.015625,-14.82
16:27:14.031250,-16.39
16:27:14.046875,-17.33
16:27:14.062500,-17.29
16:27:14.078125,-16.30
16:27:14.093750,-14.68
16:27:14.109375,-13.06
16:27:14.125000,-12.01
16:27:14.140625,-11.88
16:27:14.156250,-12.70
16:27:14.171875,-14.18
16:27:14.187500,-15.87
16:27:14.203125,-17.32
16:27:14.218750,-18.22
16:27:14.234375,-18.46
16:27:14.250000,-18.09
16:27:14.265625,-17.27
16:27:14.281250,-16.24
16:27:14.296875,-15.22
16:27:14.312500,-14.33
16:27:14.328125,-13.48
16:27:14.343750,-12.30
16:27:14.359375,-10.24
16:27:14.375000,-6.70
16:27:14.390625,-1.35
16:27:14.406250,5.65
16:27:14.421875,13.66
16:27:14.437500,21.73
16:27:14.453125,28.93
16:27:14.468750,34.63
16:27:14.484375,38.69
16:27:14.500000,41.26
16:27:14.515625,42.59
16:27:14.531250,42.86
16:27:14.546875,42.05
16:27:14.562500,40.07
16:27:14.578125,36.93
16:27:14.593750,32.83
16:27:14.609375,28.18
16:27:14.625000,23.43
16:27:14.640625,18.96
16:27:14.656250,14.89
16:27:14.671875,11.20
16:27:14.687500,7.82
16:27:14.703125,4.80
16:27:14.718750,2.49
16:27:14.734375,1.46
16:27:14.750000,2.29
16:27:14.765625,5.31
16:27:14.781250,10.32
16:27:14.796875,16.58
16:27:14.812500,22.95
16:27:14.828125,28.37
16:27:14.843750,32.35
16:27:14.859375,35.05
16:27:14.875000,37.07
16:27:14.890625,39.15
16:27:14.906250,41.84
16:27:14.921875,45.40
16:27:14.937500,49.94
16:27:14.953125,55.27
16:27:14.968750,61.22
16:27:14.984375,67.61
16:27:15,74.29
16:27:15.015625,81.00
16:27:15.031250,87.44
16:27:15.046875,93.38
16:27:15.062500,98.82
16:27:15.078125,104.00
16:27:15.093750,108.86
16:27:15.109375,113.32
16:27:15.125000,117.36
16:27:15.140625,121.01
16:27:15.156250,124.25
16:27:15.171875,126.93
16:27:15.187500,128.72
16:27:15.203125,129.21
16:27:15.218750,127.97
16:27:15.234375,123.67
16:27:15.250000,115.24
16:27:15.265625,102.49
16:27:15.281250,86.34
16:27:15.296875,68.26
16:27:15.312500,49.73
16:27:15.328125,31.89
16:27:15.343750,15.69
16:27:15.359375,1.97
16:27:15.375000,-10.55
16:27:15.390625,-22.96
16:27:15.406250,-35.18
16:27:15.421875,-45.70
16:27:15.437500,-52.77
16:27:15.453125,-55.43
16:27:15.468750,-53.74
16:27:15.484375,-48.15
16:27:15.500000,-39.17
16:27:15.515625,-30.75
16:27:15.531250,-26.72
16:27:15.546875,-29.26
16:27:15.562500,-38.59
16:27:15.578125,-54.43
16:27:15.593750,-77.19
16:27:15.609375,-107.72
16:27:15.625000,-145.89
16:27:15.640625,-190.04
16:27:15.656250,-241.70
16:27:15.671875,-300.98
16:27:15.687500,-365.33
16:27:15.703125,-429.62
16:27:15.718750,-488.89
16:27:15.734375,-540.54
16:27:15.750000,-584.58
16:27:15.765625,-621.76
16:27:15.781250,-631.47
16:27:15.796875,-602.23
16:27:15.812500,-538.26
16:27:15.828125,-458.60
16:27:15.843750,-382.05
16:27:15.859375,-315.53
16:27:15.875000,-255.44
16:27:15.890625,-195.48
16:27:15.906250,-135.44
16:27:15.921875,-73.36
16:27:15.937500,-16.54
16:27:15.953125,26.64
16:27:15.968750,52.58
16:27:15.984375,64.73
16:27:16,71.12
16:27:16.015625,80.38
16:27:16.031250,92.60
16:27:16.046875,108.05
16:27:16.062500,126.45
16:27:16.078125,143.67
16:27:16.093750,156.87
16:27:16.109375,166.38
16:27:16.125000,175.25
16:27:16.140625,186.63
16:27:16.156250,201.67
16:27:16.171875,219.50
16:27:16.187500,239.32
16:27:16.203125,260.76
16:27:16.218750,281.25
16:27:16.234375,298.47
16:27:16.250000,311.01
16:27:16.265625,318.41
16:27:16.281250,320.50
16:27:16.296875,317.04
16:27:16.312500,307.84
16:27:16.328125,293.95
16:27:16.343750,276.89
16:27:16.359375,256.80
16:27:16.375000,233.85
16:27:16.390625,208.91
16:27:16.406250,183.68
16:27:16.421875,160.13
16:27:16.437500,139.53
16:27:16.453125,121.89
16:27:16.468750,106.63
16:27:16.484375,92.70
16:27:16.500000,78.68
16:27:16.515625,64.07
16:27:16.531250,49.44
16:27:16.546875,36.03
16:27:16.562500,24.85
16:27:16.578125,16.14
16:27:16.593750,9.24
16:27:16.609375,3.32
16:27:16.625000,-2.34
16:27:16.640625,-8.12
16:27:16.656250,-13.90
16:27:16.671875,-19.21
16:27:16.687500,-23.61
16:27:16.703125,-26.89
16:27:16.718750,-29.23
16:27:16.734375,-31.10
16:27:16.750000,-33.00
16:27:16.765625,-35.27
16:27:16.781250,-37.95
16:27:16.796875,-40.75
16:27:16.812500,-43.32
16:27:16.828125,-45.37
16:27:16.843750,-46.86
16:27:16.859375,-47.93
16:27:16.875000,-48.72
16:27:16.890625,-49.26
16:27:16.906250,-49.39
16:27:16.921875,-48.88
16:27:16.937500,-47.47
16:27:16.953125,-45.05
16:27:16.968750,-41.59
16:27:16.984375,-37.18
16:27:17,-31.98
16:27:17.015625,-26.34
16:27:17.031250,-20.77
16:27:17.046875,-15.89
16:27:17.062500,-12.22
16:27:17.078125,-9.94
16:27:17.093750,-8.76
16:27:17.109375,-7.98
16:27:17.125000,-6.71
16:27:17.140625,-4.13
16:27:17.156250,0.19
16:27:17.171875,6.16
16:27:17.187500,13.13
16:27:17.203125,20.10
16:27:17.218750,26.00
16:27:17.234375,29.98
16:27:17.250000,31.67
16:27:17.265625,31.23
16:27:17.281250,29.25
16:27:17.296875,26.44
16:27:17.312500,23.39
16:27:17.328125,20.39
16:27:17.343750,17.37
16:27:17.359375,14.17
16:27:17.375000,10.69
16:27:17.390625,7.15
16:27:17.406250,4.15
16:27:17.421875,2.52
16:27:17.437500,2.93
16:27:17.453125,5.60
16:27:17.468750,10.14
16:27:17.484375,15.65
16:27:17.500000,21.04
16:27:17.515625,25.33
16:27:17.531250,27.89
16:27:17.546875,28.36
16:27:17.562500,26.68
16:27:17.578125,23.07
16:27:17.593750,18.10
16:27:17.609375,12.79
16:27:17.625000,8.40
16:27:17.640625,5.98
16:27:17.656250,5.84
16:27:17.671875,7.25
16:27:17.687500,8.73
16:27:17.703125,8.78
16:27:17.718750,6.69
16:27:17.734375,2.97
16:27:17.750000,-0.82
16:27:17.765625,-2.82
16:27:17.781250,-1.77
16:27:17.796875,2.44
16:27:17.812500,8.75
16:27:17.828125,15.41
16:27:17.843750,20.72
16:27:17.859375,23.65
16:27:17.875000,24.16
16:27:17.890625,23.14
16:27:17.906250,21.86
16:27:17.921875,21.44
16:27:17.937500,22.28
16:27:17.953125,23.99
16:27:17.968750,25.56
16:27:17.984375,25.77
16:27:18,23.60
16:27:18.015625,18.41
16:27:18.031250,10.09
16:27:18.046875,-0.92
16:27:18.062500,-13.60
16:27:18.078125,-26.40
16:27:18.093750,-37.51
16:27:18.109375,-45.36
16:27:18.125000,-49.08
16:27:18.140625,-48.64
16:27:18.156250,-44.69
16:27:18.171875,-38.14
16:27:18.187500,-29.73
16:27:18.203125,-20.09
16:27:18.218750,-9.98
16:27:18.234375,-0.55
16:27:18.250000,6.62
16:27:18.265625,9.96
16:27:18.281250,8.50
16:27:18.296875,2.26
16:27:18.312500,-7.76
16:27:18.328125,-20.00
16:27:18.343750,-32.88
16:27:18.359375,-45.19
16:27:18.375000,-56.22
16:27:18.390625,-65.78
16:27:18.406250,-73.83
16:27:18.421875,-80.43
16:27:18.437500,-85.33
16:27:18.453125,-87.93
16:27:18.468750,-87.37
16:27:18.484375,-82.94
16:27:18.500000,-74.49
16:27:18.515625,-62.70
16:27:18.531250,-49.04
16:27:18.546875,-35.42
16:27:18.562500,-23.59
16:27:18.578125,-14.63
16:27:18.593750,-8.62
16:27:18.609375,-4.89
16:27:18.625000,-2.23
16:27:18.640625,0.49
16:27:18.656250,4.03
16:27:18.671875,8.56
16:27:18.687500,13.48
16:27:18.703125,17.44
16:27:18.718750,18.89
16:27:18.734375,17.12
16:27:18.750000,12.92
16:27:18.765625,8.75
16:27:18.781250,7.90
16:27:18.796875,12.96
16:27:18.812500,24.40
16:27:18.828125,40.11
16:27:18.843750,55.90
16:27:18.859375,67.48
16:27:18.875000,72.16
16:27:18.890625,69.50
16:27:18.906250,60.96
16:27:18.921875,49.01
16:27:18.937500,36.32
16:27:18.953125,25.16
16:27:18.968750,17.54
16:27:18.984375,14.71
16:27:19,17.44
16:27:19.015625,25.56
16:27:19.031250,37.39
16:27:19.046875,49.79
16:27:19.062500,59.11
16:27:19.078125,62.75
16:27:19.093750,59.65
16:27:19.109375,50.81
16:27:19.125000,38.02
16:27:19.140625,23.89
16:27:19.156250,11.02
16:27:19.171875,1.30
16:27:19.187500,-4.72
16:27:19.203125,-7.52
16:27:19.218750,-8.16
16:27:19.234375,-8.52
16:27:19.250000,-10.32
16:27:19.265625,-15.68
16:27:19.281250,-25.22
16:27:19.296875,-37.59
16:27:19.312500,-49.65
16:27:19.328125,-57.51
16:27:19.343750,-57.52
16:27:19.359375,-47.26
16:27:19.375000,-27.67
16:27:19.390625,4.92
16:27:19.406250,48.21
16:27:19.421875,94.55
16:27:19.437500,134.69
16:27:19.453125,163.12
16:27:19.468750,178.64
16:27:19.484375,182.41
16:27:19.500000,176.16
16:27:19.515625,159.90
16:27:19.531250,133.86
16:27:19.546875,99.44
16:27:19.562500,61.00
16:27:19.578125,23.53
16:27:19.593750,-8.96
16:27:19.609375,-35.20
16:27:19.625000,-56.88
16:27:19.640625,-72.40
16:27:19.656250,-86.38
16:27:19.671875,-103.42
16:27:19.687500,-127.00
16:27:19.703125,-156.76
16:27:19.718750,-191.01
16:27:19.734375,-226.39
16:27:19.750000,-259.37
16:27:19.765625,-286.56
16:27:19.781250,-306.59
16:27:19.796875,-323.99
16:27:19.812500,-343.26
16:27:19.828125,-367.37
16:27:19.843750,-394.81
16:27:19.859375,-423.81
16:27:19.875000,-451.82
16:27:19.890625,-476.93
16:27:19.906250,-496.87
16:27:19.921875,-486.91
16:27:19.937500,-432.73
16:27:19.953125,-334.05
16:27:19.968750,-206.34
16:27:19.984375,-69.33
16:27:20,57.85
16:27:20.015625,162.77
16:27:20.031250,239.52
16:27:20.046875,295.73
16:27:20.062500,338.68
16:27:20.078125,371.41
16:27:20.093750,396.69
16:27:20.109375,405.80
16:27:20.125000,407.34
16:27:20.140625,402.35
16:27:20.156250,391.53
16:27:20.171875,369.23
16:27:20.187500,335.98
16:27:20.203125,294.36
16:27:20.218750,246.68
16:27:20.234375,196.47
16:27:20.250000,146.13
16:27:20.265625,98.34
16:27:20.281250,51.67
16:27:20.296875,5.14
16:27:20.312500,-40.42
16:27:20.328125,-80.13
16:27:20.343750,-108.81
16:27:20.359375,-122.86
16:27:20.375000,-120.88
16:27:20.390625,-106.58
16:27:20.406250,-84.83
16:27:20.421875,-62.41
16:27:20.437500,-42.71
16:27:20.453125,-25.63
16:27:20.468750,-8.71
16:27:20.484375,7.47
16:27:20.500000,19.10
16:27:20.515625,20.59
16:27:20.531250,4.89
16:27:20.546875,-30.11
16:27:20.562500,-82.19
16:27:20.578125,-143.83
16:27:20.593750,-206.12
16:27:20.609375,-261.56
16:27:20.625000,-307.44
16:27:20.640625,-342.14
16:27:20.656250,-351.20
16:27:20.671875,-322.41
16:27:20.687500,-253.85
16:27:20.703125,-160.19
16:27:20.718750,-62.67
16:27:20.734375,20.99
16:27:20.750000,90.99
16:27:20.765625,149.67
16:27:20.781250,200.07
16:27:20.796875,245.43
16:27:20.812500,278.46
16:27:20.828125,294.16
16:27:20.843750,290.38
16:27:20.859375,269.83
16:27:20.875000,238.87
16:27:20.890625,204.97
16:27:20.906250,172.61
16:27:20.921875,143.92
16:27:20.937500,118.86
16:27:20.953125,94.38
16:27:20.968750,68.27
16:27:20.984375,40.04
16:27:21,11.86
16:27:21.015625,-13.02
16:27:21.031250,-31.94
16:27:21.046875,-44.88
16:27:21.062500,-52.67
16:27:21.078125,-56.31
16:27:21.093750,-57.81
16:27:21.109375,-58.12
16:27:21.125000,-57.49
16:27:21.140625,-55.16
16:27:21.156250,-50.19
16:27:21.171875,-42.24
16:27:21.187500,-32.38
16:27:21.203125,-21.80
16:27:21.218750,-11.38
16:27:21.234375,-2.26
16:27:21.250000,5.10
16:27:21.265625,10.46
16:27:21.281250,14.23
16:27:21.296875,16.92
16:27:21.312500,18.86
16:27:21.328125,19.95
16:27:21.343750,20.39
16:27:21.359375,20.74
16:27:21.375000,21.27
16:27:21.390625,22.13
16:27:21.406250,22.89
16:27:21.421875,23.48
16:27:21.437500,23.38
16:27:21.453125,21.78
16:27:21.468750,18.17
16:27:21.484375,13.11
16:27:21.500000,8.08
16:27:21.515625,4.59
16:27:21.531250,3.44
16:27:21.546875,4.23
16:27:21.562500,6.88
16:27:21.578125,10.16
16:27:21.593750,12.02
16:27:21.609375,10.88
16:27:21.625000,7.07
16:27:21.640625,2.67
16:27:21.656250,0.21
16:27:21.671875,1.25
16:27:21.687500,5.62
16:27:21.703125,13.58
16:27:21.718750,23.01
16:27:21.734375,29.53
16:27:21.750000,28.72
16:27:21.765625,18.84
16:27:21.781250,1.91
16:27:21.796875,-16.91
16:27:21.812500,-30.56
16:27:21.828125,-31.47
16:27:21.843750,-10.89
16:27:21.859375,34.21
16:27:21.875000,98.42
16:27:21.890625,169.33
16:27:21.906250,232.31
16:27:21.921875,275.61
16:27:21.937500,293.17
16:27:21.953125,285.57
16:27:21.968750,241.60
16:27:21.984375,166.19
16:27:22,79.85
16:27:22.015625,4.95
16:27:22.031250,-49.17
16:27:22.046875,-85.53
16:27:22.062500,-110.15
16:27:22.078125,-127.09
16:27:22.093750,-138.28
16:27:22.109375,-145.18
16:27:22.125000,-147.13
16:27:22.140625,-147.06
16:27:22.156250,-148.56
16:27:22.171875,-155.10
16:27:22.187500,-168.02
16:27:22.203125,-185.33
16:27:22.218750,-203.72
16:27:22.234375,-220.65
16:27:22.250000,-235.47
16:27:22.265625,-247.35
16:27:22.281250,-258.02
16:27:22.296875,-271.45
16:27:22.312500,-286.58
16:27:22.328125,-301.96
16:27:22.343750,-313.89
16:27:22.359375,-318.54
16:27:22.375000,-314.05
16:27:22.390625,-301.42
16:27:22.406250,-282.45
16:27:22.421875,-260.27
16:27:22.437500,-238.08
16:27:22.453125,-217.79
16:27:22.468750,-199.75
16:27:22.484375,-182.43
16:27:22.500000,-164.24
16:27:22.515625,-144.46
16:27:22.531250,-123.27
16:27:22.546875,-100.60
16:27:22.562500,-76.73
16:27:22.578125,-52.34
16:27:22.593750,-28.34
16:27:22.609375,-6.01
16:27:22.625000,14.03
16:27:22.640625,31.51
16:27:22.656250,46.48
16:27:22.671875,59.31
16:27:22.687500,70.98
16:27:22.703125,82.49
16:27:22.718750,94.50
16:27:22.734375,107.21
16:27:22.750000,120.13
16:27:22.765625,132.72
16:27:22.781250,144.53
16:27:22.796875,155.38
16:27:22.812500,165.49
16:27:22.828125,175.55
16:27:22.843750,186.72
16:27:22.859375,200.58
16:27:22.875000,218.73
16:27:22.890625,241.88
16:27:22.906250,269.23
16:27:22.921875,297.93
16:27:22.937500,323.41
16:27:22.953125,340.73
16:27:22.968750,346.24
16:27:22.984375,338.85
16:27:23,320.22
16:27:23.015625,293.84
16:27:23.031250,263.44
16:27:23.046875,232.03
16:27:23.062500,201.64
16:27:23.078125,173.73
16:27:23.093750,149.75
16:27:23.109375,131.18
16:27:23.125000,119.01
16:27:23.140625,113.21
16:27:23.156250,112.52
16:27:23.171875,114.99
16:27:23.187500,118.82
16:27:23.203125,123.02
16:27:23.218750,127.48
16:27:23.234375,132.48
16:27:23.250000,138.16
16:27:23.265625,144.00
16:27:23.281250,148.89
16:27:23.296875,151.41
16:27:23.312500,150.20
16:27:23.328125,144.35
16:27:23.343750,133.52
16:27:23.359375,118.00
16:27:23.375000,98.57
16:27:23.390625,76.40
16:27:23.406250,52.85
16:27:23.421875,29.43
16:27:23.437500,7.58
16:27:23.453125,-11.44
16:27:23.468750,-26.80
16:27:23.484375,-38.17
16:27:23.500000,-45.77
16:27:23.515625,-50.18
16:27:23.531250,-52.12
16:27:23.546875,-52.16
16:27:23.562500,-50.70
16:27:23.578125,-48.01
16:27:23.593750,-44.40
16:27:23.609375,-40.26
16:27:23.625000,-35.99
16:27:23.640625,-31.86
16:27:23.656250,-27.81
16:27:23.671875,-23.52
16:27:23.687500,-18.61
16:27:23.703125,-12.94
16:27:23.718750,-6.81
16:27:23.734375,-0.98
16:27:23.750000,3.65
16:27:23.765625,6.30
16:27:23.781250,6.55
16:27:23.796875,4.40
16:27:23.812500,0.12
16:27:23.828125,-5.97
16:27:23.843750,-13.66
16:27:23.859375,-22.88
16:27:23.875000,-33.52
16:27:23.890625,-45.38
16:27:23.906250,-58.04
16:27:23.921875,-70.98
16:27:23.937500,-83.62
16:27:23.953125,-95.47
16:27:23.968750,-106.04
16:27:23.984375,-114.86
16:27:24,-121.47
16:27:24.015625,-125.65
16:27:24.031250,-127.70
16:27:24.046875,-128.62
16:27:24.062500,-129.90
16:27:24.078125,-132.88
16:27:24.093750,-138.13
16:27:24.109375,-144.84
16:27:24.125000,-151.04
16:27:24.140625,-154.30
16:27:24.156250,-152.80
16:27:24.171875,-146.13
16:27:24.187500,-135.44
16:27:24.203125,-122.82
16:27:24.218750,-110.35
16:27:24.234375,-99.26
16:27:24.250000,-89.62
16:27:24.265625,-80.73
16:27:24.281250,-71.87
16:27:24.296875,-62.82
16:27:24.312500,-54.01
16:27:24.328125,-46.10
16:27:24.343750,-39.46
16:27:24.359375,-33.78
16:27:24.375000,-28.26
16:27:24.390625,-22.06
16:27:24.406250,-14.99
16:27:24.421875,-7.61
16:27:24.437500,-1.01
16:27:24.453125,3.91
16:27:24.468750,7.06
16:27:24.484375,9.28
16:27:24.500000,12.04
16:27:24.515625,16.72
16:27:24.531250,23.98
16:27:24.546875,33.43
16:27:24.562500,43.80
16:27:24.578125,53.42
16:27:24.593750,60.74
16:27:24.609375,64.73
16:27:24.625000,64.98
16:27:24.640625,61.65
16:27:24.656250,55.28
16:27:24.671875,46.67
16:27:24.687500,36.93
16:27:24.703125,27.42
16:27:24.718750,19.69
16:27:24.734375,15.14
16:27:24.750000,14.64
16:27:24.765625,18.17
16:27:24.781250,24.79
16:27:24.796875,33.03
16:27:24.812500,41.44
16:27:24.828125,49.18
16:27:24.843750,56.12
16:27:24.859375,62.59
16:27:24.875000,68.83
16:27:24.890625,74.53
16:27:24.906250,78.83
16:27:24.921875,80.77
16:27:24.937500,79.81
16:27:24.953125,76.18
16:27:24.968750,70.90
16:27:24.984375,65.27
16:27:25,60.41
16:27:25.015625,56.78
16:27:25.031250,54.12
16:27:25.046875,51.73
16:27:25.062500,48.86
16:27:25.078125,45.11
16:27:25.093750,40.50
16:27:25.109375,35.41
16:27:25.125000,30.23
16:27:25.140625,25.02
16:27:25.156250,19.49
16:27:25.171875,13.02
16:27:25.187500,5.08
16:27:25.203125,-4.48
16:27:25.218750,-15.20
16:27:25.234375,-26.18
16:27:25.250000,-36.54
16:27:25.265625,-45.82
16:27:25.281250,-54.19
16:27:25.296875,-62.15
16:27:25.312500,-70.09
16:27:25.328125,-77.82
16:27:25.343750,-84.66
16:27:25.359375,-89.82
16:27:25.375000,-93.06
16:27:25.390625,-94.91
16:27:25.406250,-96.42
16:27:25.421875,-98.54
16:27:25.437500,-101.43
16:27:25.453125,-104.39
16:27:25.468750,-106.32
16:27:25.484375,-106.53
16:27:25.500000,-105.18
16:27:25.515625,-103.26
16:27:25.531250,-101.98
16:27:25.546875,-102.04
16:27:25.562500,-103.31
16:27:25.578125,-105.02
16:27:25.593750,-106.31
16:27:25.609375,-106.64
16:27:25.625000,-105.93
16:27:25.640625,-104.35
16:27:25.656250,-101.92
16:27:25.671875,-98.46
16:27:25.687500,-93.66
16:27:25.703125,-87.34
16:27:25.718750,-79.60
16:27:25.734375,-70.65
16:27:25.750000,-60.55
16:27:25.765625,-48.95
16:27:25.781250,-35.24
16:27:25.796875,-18.92
16:27:25.812500,-0.09
16:27:25.828125,20.34
16:27:25.843750,40.77
16:27:25.859375,59.42
16:27:25.875000,74.90
16:27:25.890625,86.40
16:27:25.906250,93.66
16:27:25.921875,96.69
16:27:25.937500,95.65
16:27:25.953125,91.03
16:27:25.968750,83.89
16:27:25.984375,75.91
16:27:26,69.04
16:27:26.015625,64.92
16:27:26.031250,64.28
16:27:26.046875,66.79
16:27:26.062500,71.39
16:27:26.078125,76.72
16:27:26.093750,81.70
16:27:26.109375,85.56
16:27:26.125000,87.82
16:27:26.140625,88.08
16:27:26.156250,86.18
16:27:26.171875,82.29
16:27:26.187500,77.02
16:27:26.203125,71.29
16:27:26.218750,65.90
16:27:26.234375,61.30
16:27:26.250000,57.48
16:27:26.265625,54.21
16:27:26.281250,51.29
16:27:26.296875,48.60
16:27:26.312500,46.08
16:27:26.328125,43.56
16:27:26.343750,40.79
16:27:26.359375,37.56
16:27:26.375000,33.92
16:27:26.390625,30.17
16:27:26.406250,26.68
16:27:26.421875,23.60
16:27:26.437500,20.62
16:27:26.453125,17.18
16:27:26.468750,12.74
16:27:26.484375,7.17
16:27:26.500000,0.80
16:27:26.515625,-5.75
16:27:26.531250,-11.91
16:27:26.546875,-17.36
16:27:26.562500,-22.04
16:27:26.578125,-26.03
16:27:26.593750,-29.31
16:27:26.609375,-31.73
16:27:26.625000,-32.95
16:27:26.640625,-32.59
16:27:26.656250,-30.28
16:27:26.671875,-25.74
16:27:26.687500,-18.92
16:27:26.703125,-10.11
16:27:26.718750,-0.12
16:27:26.734375,9.74
16:27:26.750000,17.91
16:27:26.765625,23.02
16:27:26.781250,24.35
16:27:26.796875,22.01
16:27:26.812500,16.86
16:27:26.828125,10.13
16:27:26.843750,2.95
16:27:26.859375,-3.89
16:27:26.875000,-9.91
16:27:26.890625,-14.79
16:27:26.906250,-18.26
16:27:26.921875,-20.05
16:27:26.937500,-20.14
16:27:26.953125,-18.79
16:27:26.968750,-16.54
16:27:26.984375,-14.11
16:27:27,-12.17
16:27:27.015625,-11.29
16:27:27.031250,-11.83
16:27:27.046875,-13.86
16:27:27.062500,-17.14
16:27:27.078125,-21.02
16:27:27.093750,-24.61
16:27:27.109375,-27.00
16:27:27.125000,-27.61
16:27:27.140625,-26.41
16:27:27.156250,-23.85
16:27:27.171875,-20.65
16:27:27.187500,-17.41
16:27:27.203125,-14.35
16:27:27.218750,-11.38
16:27:27.234375,-8.16
16:27:27.250000,-4.46
16:27:27.265625,-0.25
16:27:27.281250,4.23
16:27:27.296875,8.54
16:27:27.312500,12.16
16:27:27.328125,14.55
16:27:27.343750,15.31
16:27:27.359375,14.14
16:27:27.375000,10.95
16:27:27.390625,5.92
16:27:27.406250,-0.50
16:27:27.421875,-7.54
16:27:27.437500,-14.20
16:27:27.453125,-19.42
16:27:27.468750,-22.43
16:27:27.484375,-22.96
16:27:27.500000,-21.41
16:27:27.515625,-18.63
16:27:27.531250,-15.59
16:27:27.546875,-12.99
16:27:27.562500,-11.09
16:27:27.578125,-9.76
16:27:27.593750,-8.77
16:27:27.609375,-8.03
16:27:27.625000,-7.69
16:27:27.640625,-7.98
16:27:27.656250,-9.08
16:27:27.671875,-10.93
16:27:27.687500,-13.27
16:27:27.703125,-15.74
16:27:27.718750,-18.12
16:27:27.734375,-20.34
16:27:27.750000,-22.49
16:27:27.765625,-24.68
16:27:27.781250,-26.93
16:27:27.796875,-29.11
16:27:27.812500,-31.06
16:27:27.828125,-32.65
16:27:27.843750,-33.90
16:27:27.859375,-34.94
16:27:27.875000,-35.98
16:27:27.890625,-37.17
16:27:27.906250,-38.55
16:27:27.921875,-40.05
16:27:27.937500,-41.51
16:27:27.953125,-42.76
16:27:27.968750,-43.59
16:27:27.984375,-43.83
16:27:28,-43.45
16:27:28.015625,-42.57
16:27:28.031250,-41.50
16:27:28.046875,-40.54
16:27:28.062500,-39.89
16:27:28.078125,-39.40
16:27:28.093750,-38.66
16:27:28.109375,-37.14
16:27:28.125000,-34.48
16:27:28.140625,-30.69
16:27:28.156250,-26.18
16:27:28.171875,-21.53
16:27:28.187500,-17.13
16:27:28.203125,-12.99
16:27:28.218750,-8.75
16:27:28.234375,-3.96
16:27:28.250000,1.68
16:27:28.265625,8.07
16:27:28.281250,14.78
16:27:28.296875,21.28
16:27:28.312500,27.12
16:27:28.328125,32.12
16:27:28.343750,36.39
16:27:28.359375,40.24
16:27:28.375000,44.02
16:27:28.390625,47.99
16:27:28.406250,52.22
16:27:28.421875,56.61
16:27:28.437500,60.93
16:27:28.453125,64.88
16:27:28.468750,68.25
16:27:28.484375,70.94
16:27:28.500000,73.00
16:27:28.515625,74.44
16:27:28.531250,75.11
16:27:28.546875,74.55
16:27:28.562500,72.15
16:27:28.578125,67.34
16:27:28.593750,59.99
16:27:28.609375,50.52
16:27:28.625000,39.88
16:27:28.640625,29.29
16:27:28.656250,19.84
16:27:28.671875,12.22
16:27:28.687500,6.61
16:27:28.703125,2.66
16:27:28.718750,-0.39
16:27:28.734375,-3.53
16:27:28.750000,-7.73
16:27:28.765625,-13.63
16:27:28.781250,-21.16
16:27:28.796875,-29.47
16:27:28.812500,-37.04
16:27:28.828125,-42.18
16:27:28.843750,-43.63
16:27:28.859375,-41.08
16:27:28.875000,-35.09
16:27:28.890625,-26.93
16:27:28.906250,-18.00
16:27:28.921875,-9.58
16:27:28.937500,-2.61
16:27:28.953125,2.25
16:27:28.968750,4.69
16:27:28.984375,4.70
16:27:29,2.69
16:27:29.015625,-0.63
16:27:29.031250,-4.54
16:27:29.046875,-8.54
16:27:29.062500,-12.48
16:27:29.078125,-16.49
16:27:29.093750,-20.62
16:27:29.109375,-24.58
16:27:29.125000,-27.71
16:27:29.140625,-29.18
16:27:29.156250,-28.38
16:27:29.171875,-25.10
16:27:29.187500,-19.63
16:27:29.203125,-12.50
16:27:29.218750,-4.31
16:27:29.234375,4.47
16:27:29.250000,13.53
16:27:29.265625,22.70
16:27:29.281250,31.86
16:27:29.296875,40.91
16:27:29.312500,49.79
16:27:29.328125,58.49
16:27:29.343750,67.11
16:27:29.359375,75.89
16:27:29.375000,85.17
16:27:29.390625,95.25
16:27:29.406250,106.22
16:27:29.421875,117.74
16:27:29.437500,129.01
16:27:29.453125,139.04
16:27:29.468750,147.02
16:27:29.484375,152.63
16:27:29.500000,156.16
16:27:29.515625,158.23
16:27:29.531250,159.28
16:27:29.546875,159.05
16:27:29.562500,156.41
16:27:29.578125,149.70
16:27:29.593750,137.45
16:27:29.609375,119.08
16:27:29.625000,95.15
16:27:29.640625,66.99
16:27:29.656250,36.04
16:27:29.671875,3.48
16:27:29.687500,-29.55
16:27:29.703125,-61.30
16:27:29.718750,-89.00
16:27:29.734375,-109.32
16:27:29.750000,-119.68
16:27:29.765625,-119.91
16:27:29.781250,-112.96
16:27:29.796875,-104.22
16:27:29.812500,-99.31
16:27:29.828125,-101.71
16:27:29.843750,-111.33
16:27:29.859375,-124.89
16:27:29.875000,-137.76
16:27:29.890625,-146.24
16:27:29.906250,-148.82
16:27:29.921875,-146.24
16:27:29.937500,-140.42
16:27:29.953125,-133.14
16:27:29.968750,-125.40
16:27:29.984375,-117.43
16:27:30,-109.29
16:27:30.015625,-101.32
16:27:30.031250,-94.27
16:27:30.046875,-88.92
16:27:30.062500,-85.57
16:27:30.078125,-83.70
16:27:30.093750,-82.07
16:27:30.109375,-79.20
16:27:30.125000,-74.06
16:27:30.140625,-66.57
16:27:30.156250,-57.66
16:27:30.171875,-48.93
16:27:30.187500,-41.95
16:27:30.203125,-37.63
16:27:30.218750,-35.94
16:27:30.234375,-35.97
16:27:30.250000,-36.41
16:27:30.265625,-36.04
16:27:30.281250,-34.18
16:27:30.296875,-30.79
16:27:30.312500,-26.36
16:27:30.328125,-21.62
16:27:30.343750,-17.27
16:27:30.359375,-13.74
16:27:30.375000,-11.08
16:27:30.390625,-9.03
16:27:30.406250,-7.11
16:27:30.421875,-4.88
16:27:30.437500,-2.06
16:27:30.453125,1.37
16:27:30.468750,5.19
16:27:30.484375,9.08
16:27:30.500000,12.77
16:27:30.515625,16.14
16:27:30.531250,19.15
16:27:30.546875,21.82
16:27:30.562500,24.19
16:27:30.578125,26.28
16:27:30.593750,28.19
16:27:30.609375,30.02
16:27:30.625000,31.92
16:27:30.640625,34.00
16:27:30.656250,36.29
16:27:30.671875,38.70
16:27:30.687500,41.01
16:27:30.703125,42.90
16:27:30.718750,44.12
16:27:30.734375,44.45
16:27:30.750000,43.86
16:27:30.765625,42.51
16:27:30.781250,40.70
16:27:30.796875,38.76
16:27:30.812500,37.02
16:27:30.828125,35.70
16:27:30.843750,34.88
16:27:30.859375,34.53
16:27:30.875000,34.54
16:27:30.890625,34.83
16:27:30.906250,35.36
16:27:30.921875,36.14
16:27:30.937500,37.18
16:27:30.953125,38.42
16:27:30.968750,39.59
16:27:30.984375,40.18
16:27:31,39.56
16:27:31.015625,37.25
16:27:31.031250,33.20
16:27:31.046875,28.00
16:27:31.062500,22.74
16:27:31.078125,18.68
16:27:31.093750,16.76
16:27:31.109375,17.24
16:27:31.125000,19.55
16:27:31.140625,22.49
16:27:31.156250,24.67
16:27:31.171875,24.93
16:27:31.187500,22.72
16:27:31.203125,18.21
16:27:31.218750,12.05
16:27:31.234375,5.10
16:27:31.250000,-1.93
16:27:31.265625,-8.60
16:27:31.281250,-14.66
16:27:31.296875,-19.90
16:27:31.312500,-24.07
16:27:31.328125,-26.96
16:27:31.343750,-28.55
16:27:31.359375,-29.20
16:27:31.375000,-29.51
16:27:31.390625,-30.03
16:27:31.406250,-30.92
16:27:31.421875,-31.66
16:27:31.437500,-31.33
16:27:31.453125,-28.96
16:27:31.468750,-24.11
16:27:31.484375,-17.05
16:27:31.500000,-8.72
16:27:31.515625,-0.33
16:27:31.531250,7.00
16:27:31.546875,12.55
16:27:31.562500,15.96
16:27:31.578125,17.32
16:27:31.593750,16.97
16:27:31.609375,15.49
16:27:31.625000,13.55
16:27:31.640625,11.72
16:27:31.656250,10.23
16:27:31.671875,8.87
16:27:31.687500,7.13
16:27:31.703125,4.51
16:27:31.718750,0.87
16:27:31.734375,-3.51
16:27:31.750000,-8.08
16:27:31.765625,-12.42
16:27:31.781250,-16.53
16:27:31.796875,-20.80
16:27:31.812500,-25.63
16:27:31.828125,-31.11
16:27:31.843750,-36.79
16:27:31.859375,-41.90
16:27:31.875000,-45.62
16:27:31.890625,-47.47
16:27:31.906250,-47.45
16:27:31.921875,-45.86
16:27:31.937500,-43.10
16:27:31.953125,-39.41
16:27:31.968750,-34.96
16:27:31.984375,-29.85
16:27:32,-24.35
16:27:32.015625,-18.89
16:27:32.031250,-14.02
16:27:32.046875,-10.26
16:27:32.062500,-7.83
16:27:32.078125,-6.57
16:27:32.093750,-5.93
16:27:32.109375,-5.18
16:27:32.125000,-3.72
16:27:32.140625,-1.35
16:27:32.156250,1.56
16:27:32.171875,4.23
16:27:32.187500,5.78
16:27:32.203125,5.69
16:27:32.218750,4.04
16:27:32.234375,1.43
16:27:32.250000,-1.21
16:27:32.265625,-3.06
16:27:32.281250,-3.65
16:27:32.296875,-2.99
16:27:32.312500,-1.38
16:27:32.328125,0.74
16:27:32.343750,2.99
16:27:32.359375,5.12
16:27:32.375000,6.98
16:27:32.390625,8.44
16:27:32.406250,9.41
16:27:32.421875,9.80
16:27:32.437500,9.65
16:27:32.453125,9.16
16:27:32.468750,8.67
16:27:32.484375,8.52
16:27:32.500000,8.96
16:27:32.515625,9.95
16:27:32.531250,11.26
16:27:32.546875,12.45
16:27:32.562500,13.12
16:27:32.578125,13.01
16:27:32.593750,12.14
16:27:32.609375,10.71
16:27:32.625000,9.05
16:27:32.640625,7.41
16:27:32.656250,5.92
16:27:32.671875,4.56
16:27:32.687500,3.25
16:27:32.703125,1.93
16:27:32.718750,0.66
16:27:32.734375,-0.40
16:27:32.750000,-1.05
16:27:32.765625,-1.13
16:27:32.781250,-0.56
16:27:32.796875,0.56
16:27:32.812500,2.05
16:27:32.828125,3.67
16:27:32.843750,5.20
16:27:32.859375,6.57
16:27:32.875000,7.73
16:27:32.890625,8.74
16:27:32.906250,9.62
16:27:32.921875,10.33
16:27:32.937500,10.83
16:27:32.953125,11.06
16:27:32.968750,11.07
16:27:32.984375,10.95
16:27:33,10.79
16:27:33.015625,10.60
16:27:33.031250,10.33
16:27:33.046875,9.93
16:27:33.062500,9.36
16:27:33.078125,8.68
16:27:33.093750,8.00
16:27:33.109375,7.42
16:27:33.125000,6.96
16:27:33.140625,6.56
16:27:33.156250,6.11
16:27:33.171875,5.55
16:27:33.187500,4.92
16:27:33.203125,4.27
16:27:33.218750,3.65
16:27:33.234375,3.12
16:27:33.250000,2.66
16:27:33.265625,2.26
16:27:33.281250,1.91
16:27:33.296875,1.58
16:27:33.312500,1.24
16:27:33.328125,0.80
16:27:33.343750,0.22
16:27:33.359375,-0.50
16:27:33.375000,-1.24
16:27:33.390625,-1.84
16:27:33.406250,-2.19
16:27:33.421875,-2.28
16:27:33.437500,-2.27
16:27:33.453125,-2.40
16:27:33.468750,-2.88
16:27:33.484375,-3.78
16:27:33.500000,-5.01
16:27:33.515625,-6.28
16:27:33.531250,-7.31
16:27:33.546875,-7.82
16:27:33.562500,-7.66
16:27:33.578125,-6.81
16:27:33.593750,-5.37
16:27:33.609375,-3.49
16:27:33.625000,-1.32
16:27:33.640625,0.97
16:27:33.656250,3.24
16:27:33.671875,5.41
16:27:33.687500,7.48
16:27:33.703125,9.53
16:27:33.718750,11.66
16:27:33.734375,13.96
16:27:33.750000,16.35
16:27:33.765625,18.58
16:27:33.781250,20.19
16:27:33.796875,20.63
16:27:33.812500,19.54
16:27:33.828125,16.95
16:27:33.843750,13.43
16:27:33.859375,10.05
16:27:33.875000,8.00
16:27:33.890625,8.10
16:27:33.906250,10.43
16:27:33.921875,14.15
16:27:33.937500,17.82
16:27:33.953125,19.91
16:27:33.968750,19.44
16:27:33.984375,16.29
16:27:34,11.14
16:27:34.015625,5.09
16:27:34.031250,-0.79
16:27:34.046875,-5.76
16:27:34.062500,-9.53
16:27:34.078125,-12.13
16:27:34.093750,-13.81
16:27:34.109375,-15.01
16:27:34.125000,-16.20
16:27:34.140625,-17.80
16:27:34.156250,-19.99
16:27:34.171875,-22.62
16:27:34.187500,-25.21
16:27:34.203125,-27.28
16:27:34.218750,-28.51
16:27:34.234375,-29.07
16:27:34.250000,-29.49
16:27:34.265625,-30.38
16:27:34.281250,-32.09
16:27:34.296875,-34.47
16:27:34.312500,-36.91
16:27:34.328125,-38.64
16:27:34.343750,-39.07
16:27:34.359375,-38.09
16:27:34.375000,-36.05
16:27:34.390625,-33.49
16:27:34.406250,-30.91
16:27:34.421875,-28.50
16:27:34.437500,-26.07
16:27:34.453125,-23.24
16:27:34.468750,-19.62
16:27:34.484375,-15.00
16:27:34.500000,-9.40
16:27:34.515625,-3.07
16:27:34.531250,3.62
16:27:34.546875,10.25
16:27:34.562500,16.36
16:27:34.578125,21.57
16:27:34.593750,25.56
16:27:34.609375,28.16
16:27:34.625000,29.35
16:27:34.640625,29.18
16:27:34.656250,27.73
16:27:34.671875,25.11
16:27:34.687500,21.56
16:27:34.703125,17.53
16:27:34.718750,13.76
16:27:34.734375,11.21
16:27:34.750000,10.73
16:27:34.765625,12.77
16:27:34.781250,17.12
16:27:34.796875,23.02
16:27:34.812500,29.45
16:27:34.828125,35.57
16:27:34.843750,40.99
16:27:34.859375,45.69
16:27:34.875000,49.69
16:27:34.890625,52.72
16:27:34.906250,53.96
16:27:34.921875,52.41
16:27:34.937500,47.24
16:27:34.953125,38.38
16:27:34.968750,26.76
16:27:34.984375,14.09
16:27:35,2.32
16:27:35.015625,-6.96
16:27:35.031250,-12.98
16:27:35.046875,-15.95
16:27:35.062500,-16.75
16:27:35.078125,-16.49
16:27:35.093750,-16.09
16:27:35.109375,-15.95
16:27:35.125000,-15.99
16:27:35.140625,-15.84
16:27:35.156250,-15.09
16:27:35.171875,-13.61
16:27:35.187500,-11.47
16:27:35.203125,-8.93
16:27:35.218750,-6.24
16:27:35.234375,-3.55
16:27:35.250000,-0.88
16:27:35.265625,1.76
16:27:35.281250,4.24
16:27:35.296875,6.37
16:27:35.312500,7.93
16:27:35.328125,8.81
16:27:35.343750,9.12
16:27:35.359375,9.16
16:27:35.375000,9.27
16:27:35.390625,9.69
16:27:35.406250,10.49
16:27:35.421875,11.51
16:27:35.437500,12.48
16:27:35.453125,13.13
16:27:35.468750,13.27
16:27:35.484375,12.75
16:27:35.500000,11.56
16:27:35.515625,9.71
16:27:35.531250,7.34
16:27:35.546875,4.64
16:27:35.562500,1.96
16:27:35.578125,-0.37
16:27:35.593750,-2.01
16:27:35.609375,-2.86
16:27:35.625000,-3.03
16:27:35.640625,-2.92
16:27:35.656250,-3.05
16:27:35.671875,-3.88
16:27:35.687500,-5.70
16:27:35.703125,-8.55
16:27:35.718750,-12.32
16:27:35.734375,-16.82
16:27:35.750000,-21.85
16:27:35.765625,-27.13
16:27:35.781250,-32.35
16:27:35.796875,-37.14
16:27:35.812500,-41.23
16:27:35.828125,-44.60
16:27:35.843750,-47.35
16:27:35.859375,-49.59
16:27:35.875000,-51.22
16:27:35.890625,-51.96
16:27:35.906250,-51.73
16:27:35.921875,-50.97
16:27:35.937500,-50.69
16:27:35.953125,-52.17
16:27:35.968750,-56.29
16:27:35.984375,-62.98
16:27:36,-71.12
16:27:36.015625,-78.96
16:27:36.031250,-84.75
16:27:36.046875,-87.28
16:27:36.062500,-85.99
16:27:36.078125,-80.75
16:27:36.093750,-71.62
16:27:36.109375,-58.91
16:27:36.125000,-43.36
16:27:36.140625,-26.38
16:27:36.156250,-9.94
16:27:36.171875,3.95
16:27:36.187500,13.91
16:27:36.203125,19.67
16:27:36.218750,22.09
16:27:36.234375,22.75
16:27:36.250000,23.27
16:27:36.265625,24.72
16:27:36.281250,27.47
16:27:36.296875,31.26
16:27:36.312500,35.55
16:27:36.328125,39.90
16:27:36.343750,44.09
16:27:36.359375,48.04
16:27:36.375000,51.71
16:27:36.390625,54.90
16:27:36.406250,57.21
16:27:36.421875,58.24
16:27:36.437500,57.68
16:27:36.453125,55.54
16:27:36.468750,52.15
16:27:36.484375,48.10
16:27:36.500000,44.13
16:27:36.515625,40.90
16:27:36.531250,38.82
16:27:36.546875,37.91
16:27:36.562500,37.83
16:27:36.578125,37.97
16:27:36.593750,37.70
16:27:36.609375,36.57
16:27:36.625000,34.45
16:27:36.640625,31.59
16:27:36.656250,28.44
16:27:36.671875,25.58
16:27:36.687500,23.49
16:27:36.703125,22.53
16:27:36.718750,22.83
16:27:36.734375,24.28
16:27:36.750000,26.54
16:27:36.765625,29.04
16:27:36.781250,31.21
16:27:36.796875,32.61
16:27:36.812500,33.12
16:27:36.828125,33.07
16:27:36.843750,33.03
16:27:36.859375,33.64
16:27:36.875000,35.28
16:27:36.890625,38.01
16:27:36.906250,41.46
16:27:36.921875,44.99
16:27:36.937500,47.85
16:27:36.953125,49.26
16:27:36.968750,48.60
16:27:36.984375,45.47
16:27:37,39.91
16:27:37.015625,32.37
16:27:37.031250,23.69
16:27:37.046875,14.86
16:27:37.062500,6.73
16:27:37.078125,-0.25
16:27:37.093750,-6.11
16:27:37.109375,-11.15
16:27:37.125000,-15.66
16:27:37.140625,-19.68
16:27:37.156250,-22.96
16:27:37.171875,-25.13
16:27:37.187500,-25.95
16:27:37.203125,-25.55
16:27:37.218750,-24.37
16:27:37.234375,-23.06
16:27:37.250000,-22.06
16:27:37.265625,-21.55
16:27:37.281250,-21.33
16:27:37.296875,-21.02
16:27:37.312500,-20.33
16:27:37.328125,-19.28
16:27:37.343750,-18.22
16:27:37.359375,-17.66
16:27:37.375000,-18.07
16:27:37.390625,-19.63
16:27:37.406250,-22.10
16:27:37.421875,-24.91
16:27:37.437500,-27.37
16:27:37.453125,-29.00
16:27:37.468750,-29.69
16:27:37.484375,-29.73
16:27:37.500000,-29.66
16:27:37.515625,-29.99
16:27:37.531250,-30.97
16:27:37.546875,-32.47
16:27:37.562500,-34.17
16:27:37.578125,-35.66
16:27:37.593750,-36.79
16:27:37.609375,-37.65
16:27:37.625000,-38.55
16:27:37.640625,-39.74
16:27:37.656250,-41.26
16:27:37.671875,-42.85
16:27:37.687500,-44.05
16:27:37.703125,-44.46
16:27:37.718750,-43.86
16:27:37.734375,-42.41
16:27:37.750000,-40.42
16:27:37.765625,-38.21
16:27:37.781250,-35.92
16:27:37.796875,-33.41
16:27:37.812500,-30.45
16:27:37.828125,-26.87
16:27:37.843750,-22.68
16:27:37.859375,-18.15
16:27:37.875000,-13.63
16:27:37.890625,-9.47
16:27:37.906250,-5.83
16:27:37.921875,-2.65
16:27:37.937500,0.19
16:27:37.953125,2.87
16:27:37.968750,5.44
16:27:37.984375,7.88
16:27:38,10.09
16:27:38.015625,11.99
16:27:38.031250,13.54
16:27:38.046875,14.71
16:27:38.062500,15.50
16:27:38.078125,15.87
16:27:38.093750,15.85
16:27:38.109375,15.49
16:27:38.125000,14.96
16:27:38.140625,14.39
16:27:38.156250,13.87
16:27:38.171875,13.31
16:27:38.187500,12.49
16:27:38.203125,11.11
16:27:38.218750,9.00
16:27:38.234375,6.21
16:27:38.250000,2.98
16:27:38.265625,-0.25
16:27:38.281250,-3.08
16:27:38.296875,-5.25
16:27:38.312500,-6.63
16:27:38.328125,-7.22
16:27:38.343750,-7.08
16:27:38.359375,-6.30
16:27:38.375000,-4.98
16:27:38.390625,-3.32
16:27:38.406250,-1.54
16:27:38.421875,0.11
16:27:38.437500,1.44
16:27:38.453125,2.35
16:27:38.468750,2.89
16:27:38.484375,3.22
16:27:38.500000,3.48
16:27:38.515625,3.78
16:27:38.531250,4.14
16:27:38.546875,4.53
16:27:38.562500,4.91
16:27:38.578125,5.29
16:27:38.593750,5.74
16:27:38.609375,6.37
16:27:38.625000,7.22
16:27:38.640625,8.27
16:27:38.656250,9.43
16:27:38.671875,10.54
16:27:38.687500,11.43
16:27:38.703125,12.00
16:27:38.718750,12.17
16:27:38.734375,11.92
16:27:38.750000,11.26
16:27:38.765625,10.24
16:27:38.781250,8.98
16:27:38.796875,7.66
16:27:38.812500,6.39
16:27:38.828125,5.28
16:27:38.843750,4.30
16:27:38.859375,3.36
16:27:38.875000,2.38
16:27:38.890625,1.30
16:27:38.906250,0.12
16:27:38.921875,-1.14
16:27:38.937500,-2.47
16:27:38.953125,-3.90
16:27:38.968750,-5.44
16:27:38.984375,-7.08
16:27:39,-8.78
16:27:39.015625,-10.45
16:27:39.031250,-11.93
16:27:39.046875,-13.10
16:27:39.062500,-13.79
16:27:39.078125,-13.89
16:27:39.093750,-13.35
16:27:39.109375,-12.22
16:27:39.125000,-10.63
16:27:39.140625,-8.81
16:27:39.156250,-6.96
16:27:39.171875,-5.22
16:27:39.187500,-3.65
16:27:39.203125,-2.21
16:27:39.218750,-0.87
16:27:39.234375,0.40
16:27:39.250000,1.55
16:27:39.265625,2.53
16:27:39.281250,3.28
16:27:39.296875,3.79
16:27:39.312500,4.09
16:27:39.328125,4.23
16:27:39.343750,4.28
16:27:39.359375,4.26
16:27:39.375000,4.15
16:27:39.390625,3.95
16:27:39.406250,3.63
16:27:39.421875,3.20
16:27:39.437500,2.69
16:27:39.453125,2.16
16:27:39.468750,1.64
16:27:39.484375,1.21
16:27:39.500000,0.89
16:27:39.515625,0.67
16:27:39.531250,0.50
16:27:39.546875,0.30
16:27:39.562500,0.00
16:27:39.578125,-0.44
16:27:39.593750,-1.04
16:27:39.609375,-1.77
16:27:39.625000,-2.56
16:27:39.640625,-3.35
16:27:39.656250,-4.11
16:27:39.671875,-4.82
16:27:39.687500,-5.50
16:27:39.703125,-6.22
16:27:39.718750,-6.99
16:27:39.734375,-7.83
16:27:39.750000,-8.74
16:27:39.765625,-9.73
16:27:39.781250,-10.80
16:27:39.796875,-11.92
16:27:39.812500,-12.99
16:27:39.828125,-13.84
16:27:39.843750,-14.20
16:27:39.859375,-13.84
16:27:39.875000,-12.59
16:27:39.890625,-10.50
16:27:39.906250,-7.81
16:27:39.921875,-4.90
16:27:39.937500,-2.11
16:27:39.953125,0.29
16:27:39.968750,2.19
16:27:39.984375,3.65
16:27:40,4.81
16:27:40.015625,5.88
16:27:40.031250,7.02
16:27:40.046875,8.29
16:27:40.062500,9.65
16:27:40.078125,10.92
16:27:40.093750,11.87
16:27:40.109375,12.37
16:27:40.125000,12.46
16:27:40.140625,12.32
16:27:40.156250,12.21
16:27:40.171875,12.30
16:27:40.187500,12.60
16:27:40.203125,12.97
16:27:40.218750,13.23
16:27:40.234375,13.23
16:27:40.250000,12.97
16:27:40.265625,12.54
16:27:40.281250,12.07
16:27:40.296875,11.63
16:27:40.312500,11.19
16:27:40.328125,10.66
16:27:40.343750,9.93
16:27:40.359375,8.98
16:27:40.375000,7.84
16:27:40.390625,6.60
16:27:40.406250,5.35
16:27:40.421875,4.09
16:27:40.437500,2.79
16:27:40.453125,1.43
16:27:40.468750,0.01
16:27:40.484375,-1.39
16:27:40.500000,-2.66
16:27:40.515625,-3.79
16:27:40.531250,-4.84
16:27:40.546875,-6.02
16:27:40.562500,-7.55
16:27:40.578125,-9.47
16:27:40.593750,-11.61
16:27:40.609375,-13.62
16:27:40.625000,-15.08
16:27:40.640625,-15.67
16:27:40.656250,-15.28
16:27:40.671875,-14.00
16:27:40.687500,-12.05
16:27:40.703125,-9.69
16:27:40.718750,-7.17
16:27:40.734375,-4.64
16:27:40.750000,-2.18
16:27:40.765625,0.17
16:27:40.781250,2.41
16:27:40.796875,4.54
16:27:40.812500,6.51
16:27:40.828125,8.22
16:27:40.843750,9.55
16:27:40.859375,10.43
16:27:40.875000,10.87
16:27:40.890625,10.98
16:27:40.906250,10.92
16:27:40.921875,10.88
16:27:40.937500,10.97
16:27:40.953125,11.23
16:27:40.968750,11.68
16:27:40.984375,12.26
16:27:41,12.91
16:27:41.015625,13.49
16:27:41.031250,13.84
16:27:41.046875,13.78
16:27:41.062500,13.20
16:27:41.078125,12.14
16:27:41.093750,10.82
16:27:41.109375,9.51
16:27:41.125000,8.41
16:27:41.140625,7.60
16:27:41.156250,6.93
16:27:41.171875,6.15
16:27:41.187500,5.07
16:27:41.203125,3.63
16:27:41.218750,1.95
16:27:41.234375,0.28
16:27:41.250000,-1.18
16:27:41.265625,-2.34
16:27:41.281250,-3.33
16:27:41.296875,-4.33
16:27:41.312500,-5.55
16:27:41.328125,-7.12
16:27:41.343750,-9.03
16:27:41.359375,-11.16
16:27:41.375000,-13.29
16:27:41.390625,-15.15
16:27:41.406250,-16.47
16:27:41.421875,-17.03
16:27:41.437500,-16.72
16:27:41.453125,-15.59
16:27:41.468750,-13.83
16:27:41.484375,-11.69
16:27:41.500000,-9.34
16:27:41.515625,-6.91
16:27:41.531250,-4.39
16:27:41.546875,-1.81
16:27:41.562500,0.77
16:27:41.578125,3.23
16:27:41.593750,5.41
16:27:41.609375,7.24
16:27:41.625000,8.74
16:27:41.640625,9.99
16:27:41.656250,11.06
16:27:41.671875,11.96
16:27:41.687500,12.62
16:27:41.703125,12.97
16:27:41.718750,13.02
16:27:41.734375,12.88
16:27:41.750000,12.68
16:27:41.765625,12.54
16:27:41.781250,12.46
16:27:41.796875,12.39
16:27:41.812500,12.19
16:27:41.828125,11.76
16:27:41.843750,11.08
16:27:41.859375,10.19
16:27:41.875000,9.23
16:27:41.890625,8.37
16:27:41.906250,7.75
16:27:41.921875,7.39
16:27:41.937500,7.19
16:27:41.953125,6.88
16:27:41.968750,6.23
16:27:41.984375,5.07
16:27:42,3.44
16:27:42.015625,1.57
16:27:42.031250,-0.28
16:27:42.046875,-1.92
16:27:42.062500,-3.35
16:27:42.078125,-4.75
16:27:42.093750,-6.32
16:27:42.109375,-8.21
16:27:42.125000,-10.44
16:27:42.140625,-12.93
16:27:42.156250,-15.51
16:27:42.171875,-17.96
16:27:42.187500,-20.01
16:27:42.203125,-21.36
16:27:42.218750,-21.75
16:27:42.234375,-20.99
16:27:42.250000,-19.12
16:27:42.265625,-16.38
16:27:42.281250,-13.15
16:27:42.296875,-9.79
16:27:42.312500,-6.61
16:27:42.328125,-3.75
16:27:42.343750,-1.29
16:27:42.359375,0.77
16:27:42.375000,2.46
16:27:42.390625,3.89
16:27:42.406250,5.22
16:27:42.421875,6.58
16:27:42.437500,8.00
16:27:42.453125,9.32
16:27:42.468750,10.20
16:27:42.484375,10.33
16:27:42.500000,9.58
16:27:42.515625,8.13
16:27:42.531250,6.49
16:27:42.546875,5.31
16:27:42.562500,5.15
16:27:42.578125,6.28
16:27:42.593750,8.59
16:27:42.609375,11.61
16:27:42.625000,14.66
16:27:42.640625,17.05
16:27:42.656250,18.27
16:27:42.671875,18.16
16:27:42.687500,17.06
16:27:42.703125,15.70
16:27:42.718750,15.10
16:27:42.734375,16.26
16:27:42.750000,19.88
16:27:42.765625,26.07
16:27:42.781250,34.17
16:27:42.796875,42.84
16:27:42.812500,50.30
16:27:42.828125,54.83
16:27:42.843750,55.19
16:27:42.859375,50.89
16:27:42.875000,42.29
16:27:42.890625,30.37
16:27:42.906250,16.53
16:27:42.921875,2.30
16:27:42.937500,-10.76
16:27:42.953125,-21.32
16:27:42.968750,-28.39
16:27:42.984375,-31.63
16:27:43,-31.37
16:27:43.015625,-28.62
16:27:43.031250,-24.64
16:27:43.046875,-20.51
16:27:43.062500,-16.83
16:27:43.078125,-13.57
16:27:43.093750,-10.36
16:27:43.109375,-6.80
16:27:43.125000,-2.72
16:27:43.140625,1.74
16:27:43.156250,6.29
16:27:43.171875,10.60
16:27:43.187500,14.47
16:27:43.203125,17.82
16:27:43.218750,20.64
16:27:43.234375,22.89
16:27:43.250000,24.51
16:27:43.265625,25.48
16:27:43.281250,25.85
16:27:43.296875,25.77
16:27:43.312500,25.47
16:27:43.328125,25.18
16:27:43.343750,25.08
16:27:43.359375,25.22
16:27:43.375000,25.54
16:27:43.390625,25.83
16:27:43.406250,25.82
16:27:43.421875,25.24
16:27:43.437500,23.93
16:27:43.453125,21.96
16:27:43.468750,19.55
16:27:43.484375,17.05
16:27:43.500000,14.72
16:27:43.515625,12.67
16:27:43.531250,10.77
16:27:43.546875,8.78
16:27:43.562500,6.49
16:27:43.578125,3.85
16:27:43.593750,1.00
16:27:43.609375,-1.87
16:27:43.625000,-4.58
16:27:43.640625,-7.10
16:27:43.656250,-9.49
16:27:43.671875,-11.84
16:27:43.687500,-14.07
16:27:43.703125,-16.03
16:27:43.718750,-17.43
16:27:43.734375,-18.04
16:27:43.750000,-17.75
16:27:43.765625,-16.57
16:27:43.781250,-14.61
16:27:43.796875,-12.02
16:27:43.812500,-9.01
16:27:43.828125,-5.81
16:27:43.843750,-2.73
16:27:43.859375,-0.11
16:27:43.875000,1.81
16:27:43.890625,2.91
16:27:43.906250,3.28
16:27:43.921875,3.14
16:27:43.937500,2.73
16:27:43.953125,2.20
16:27:43.968750,1.64
16:27:43.984375,1.09
16:27:44,0.61
16:27:44.015625,0.28
16:27:44.031250,0.14
16:27:44.046875,0.19
16:27:44.062500,0.31
16:27:44.078125,0.38
16:27:44.093750,0.30
16:27:44.109375,0.06
16:27:44.125000,-0.30
16:27:44.140625,-0.75
16:27:44.156250,-1.29
16:27:44.171875,-2.00
16:27:44.187500,-2.98
16:27:44.203125,-4.19
16:27:44.218750,-5.53
16:27:44.234375,-6.78
16:27:44.250000,-7.71
16:27:44.265625,-8.26
16:27:44.281250,-8.51
16:27:44.296875,-8.71
16:27:44.312500,-9.15
16:27:44.328125,-10.06
16:27:44.343750,-11.45
16:27:44.359375,-13.19
16:27:44.375000,-15.01
16:27:44.390625,-16.57
16:27:44.406250,-17.62
16:27:44.421875,-17.97
16:27:44.437500,-17.59
16:27:44.453125,-16.53
16:27:44.468750,-14.99
16:27:44.484375,-13.15
16:27:44.500000,-11.24
16:27:44.515625,-9.38
16:27:44.531250,-7.62
16:27:44.546875,-5.93
16:27:44.562500,-4.31
16:27:44.578125,-2.76
16:27:44.593750,-1.35
16:27:44.609375,-0.18
16:27:44.625000,0.69
16:27:44.640625,1.24
16:27:44.656250,1.55
16:27:44.671875,1.69
16:27:44.687500,1.75
16:27:44.703125,1.78
16:27:44.718750,1.85
16:27:44.734375,2.01
16:27:44.750000,2.29
16:27:44.765625,2.64
16:27:44.781250,2.99
16:27:44.796875,3.21
16:27:44.812500,3.24
16:27:44.828125,3.03
16:27:44.843750,2.63
16:27:44.859375,2.12
16:27:44.875000,1.56
16:27:44.890625,0.98
16:27:44.906250,0.38
16:27:44.921875,-0.26
16:27:44.937500,-0.95
16:27:44.953125,-1.71
16:27:44.968750,-2.62
16:27:44.984375,-3.70
16:27:45,-5.02
16:27:45.015625,-6.51
16:27:45.031250,-8.07
16:27:45.046875,-9.58
16:27:45.062500,-10.94
16:27:45.078125,-12.11
16:27:45.093750,-13.08
16:27:45.109375,-13.82
16:27:45.125000,-14.21
16:27:45.140625,-14.12
16:27:45.156250,-13.39
16:27:45.171875,-12.00
16:27:45.187500,-10.03
16:27:45.203125,-7.66
16:27:45.218750,-5.08
16:27:45.234375,-2.44
16:27:45.250000,0.16
16:27:45.265625,2.64
16:27:45.281250,4.91
16:27:45.296875,6.88
16:27:45.312500,8.46
16:27:45.328125,9.61
16:27:45.343750,10.33
16:27:45.359375,10.68
16:27:45.375000,10.77
16:27:45.390625,10.70
16:27:45.406250,10.55
16:27:45.421875,10.39
16:27:45.437500,10.25
16:27:45.453125,10.10
16:27:45.468750,9.84
16:27:45.484375,9.30
16:27:45.500000,8.41
16:27:45.515625,7.15
16:27:45.531250,5.70
16:27:45.546875,4.27
16:27:45.562500,3.06
16:27:45.578125,2.17
16:27:45.593750,1.48
16:27:45.609375,0.76
16:27:45.625000,-0.21
16:27:45.640625,-1.58
16:27:45.656250,-3.32
16:27:45.671875,-5.28
16:27:45.687500,-7.20
16:27:45.703125,-8.87
16:27:45.718750,-10.16
16:27:45.734375,-11.10
16:27:45.750000,-11.80
16:27:45.765625,-12.39
16:27:45.781250,-13.00
16:27:45.796875,-13.71
16:27:45.812500,-14.58
16:27:45.828125,-15.61
16:27:45.843750,-16.75
16:27:45.859375,-17.85
16:27:45.875000,-18.66
16:27:45.890625,-18.87
16:27:45.906250,-18.23
16:27:45.921875,-16.67
16:27:45.937500,-14.36
16:27:45.953125,-11.63
16:27:45.968750,-8.86
16:27:45.984375,-6.32
16:27:46,-4.11
16:27:46.015625,-2.19
16:27:46.031250,-0.45
16:27:46.046875,1.16
16:27:46.062500,2.63
16:27:46.078125,3.90
16:27:46.093750,4.96
16:27:46.109375,5.79
16:27:46.125000,6.43
16:27:46.140625,6.90
16:27:46.156250,7.19
16:27:46.171875,7.34
16:27:46.187500,7.37
16:27:46.203125,7.37
16:27:46.218750,7.42
16:27:46.234375,7.50
16:27:46.250000,7.56
16:27:46.265625,7.48
16:27:46.281250,7.16
16:27:46.296875,6.55
16:27:46.312500,5.70
16:27:46.328125,4.72
16:27:46.343750,3.74
16:27:46.359375,2.84
16:27:46.375000,2.03
16:27:46.390625,1.29
16:27:46.406250,0.54
16:27:46.421875,-0.28
16:27:46.437500,-1.21
16:27:46.453125,-2.25
16:27:46.468750,-3.35
16:27:46.484375,-4.44
16:27:46.500000,-5.41
16:27:46.515625,-6.25
16:27:46.531250,-6.99
16:27:46.546875,-7.72
16:27:46.562500,-8.51
16:27:46.578125,-9.38
16:27:46.593750,-10.24
16:27:46.609375,-10.91
16:27:46.625000,-11.18
16:27:46.640625,-10.86
16:27:46.656250,-9.85
16:27:46.671875,-8.15
16:27:46.687500,-5.93
16:27:46.703125,-3.47
16:27:46.718750,-1.09
16:27:46.734375,0.93
16:27:46.750000,2.46
16:27:46.765625,3.49
16:27:46.781250,4.14
16:27:46.796875,4.52
16:27:46.812500,4.70
16:27:46.828125,4.67
16:27:46.843750,4.39
16:27:46.859375,3.92
16:27:46.875000,3.41
16:27:46.890625,3.10
16:27:46.906250,3.16
16:27:46.921875,3.60
16:27:46.937500,4.25
16:27:46.953125,4.89
16:27:46.968750,5.33
16:27:46.984375,5.55
16:27:47,5.64
16:27:47.015625,5.78
16:27:47.031250,6.05
16:27:47.046875,6.38
16:27:47.062500,6.59
16:27:47.078125,6.49
16:27:47.093750,5.99
16:27:47.109375,5.20
16:27:47.125000,4.41
16:27:47.140625,3.92
16:27:47.156250,3.98
16:27:47.171875,4.65
16:27:47.187500,5.81
16:27:47.203125,7.19
16:27:47.218750,8.48
16:27:47.234375,9.46
16:27:47.250000,9.99
16:27:47.265625,10.12
16:27:47.281250,9.97
16:27:47.296875,9.71
16:27:47.312500,9.50
16:27:47.328125,9.45
16:27:47.343750,9.64
16:27:47.359375,10.15
16:27:47.375000,11.00
16:27:47.390625,12.19
16:27:47.406250,13.56
16:27:47.421875,14.91
16:27:47.437500,15.97
16:27:47.453125,16.58
16:27:47.468750,16.74
16:27:47.484375,16.58
16:27:47.500000,16.38
16:27:47.515625,16.32
16:27:47.531250,16.53
16:27:47.546875,16.95
16:27:47.562500,17.49
16:27:47.578125,18.04
16:27:47.593750,18.49
16:27:47.609375,18.78
16:27:47.625000,18.83
16:27:47.640625,18.58
16:27:47.656250,18.03
16:27:47.671875,17.23
16:27:47.687500,16.35
16:27:47.703125,15.61
16:27:47.718750,15.21
16:27:47.734375,15.26
16:27:47.750000,15.72
16:27:47.765625,16.38
16:27:47.781250,16.94
16:27:47.796875,17.08
16:27:47.812500,16.56
16:27:47.828125,15.32
16:27:47.843750,13.48
16:27:47.859375,11.32
16:27:47.875000,9.12
16:27:47.890625,7.12
16:27:47.906250,5.43
16:27:47.921875,4.08
16:27:47.937500,3.09
16:27:47.953125,2.54
16:27:47.968750,2.59
16:27:47.984375,3.38
16:27:48,5.05
16:27:48.015625,7.57
16:27:48.031250,10.79
16:27:48.046875,14.42
16:27:48.062500,18.07
16:27:48.078125,21.29
16:27:48.093750,23.65
16:27:48.109375,24.88
16:27:48.125000,24.96
16:27:48.140625,24.17
16:27:48.156250,22.97
16:27:48.171875,21.82
16:27:48.187500,20.90
16:27:48.203125,19.96
16:27:48.218750,18.45
16:27:48.234375,15.64
16:27:48.250000,10.99
16:27:48.265625,4.36
16:27:48.281250,-3.84
16:27:48.296875,-12.77
16:27:48.312500,-21.41
16:27:48.328125,-28.76
16:27:48.343750,-34.12
16:27:48.359375,-37.09
16:27:48.375000,-37.63
16:27:48.390625,-35.93
16:27:48.406250,-32.31
16:27:48.421875,-27.23
16:27:48.437500,-21.23
16:27:48.453125,-14.96
16:27:48.468750,-9.14
16:27:48.484375,-4.44
16:27:48.500000,-1.25
16:27:48.515625,0.37
16:27:48.531250,0.74
16:27:48.546875,0.37
16:27:48.562500,-0.25
16:27:48.578125,-0.81
16:27:48.593750,-1.17
16:27:48.609375,-1.34
16:27:48.625000,-1.32
16:27:48.640625,-1.11
16:27:48.656250,-0.73
16:27:48.671875,-0.26
16:27:48.687500,0.08
16:27:48.703125,0.07
16:27:48.718750,-0.35
16:27:48.734375,-1.03
16:27:48.750000,-1.62
16:27:48.765625,-1.68
16:27:48.781250,-0.87
16:27:48.796875,0.85
16:27:48.812500,3.19
16:27:48.828125,5.59
16:27:48.843750,7.40
16:27:48.859375,8.05
16:27:48.875000,7.21
16:27:48.890625,4.78
16:27:48.906250,0.96
16:27:48.921875,-3.80
16:27:48.937500,-8.89
16:27:48.953125,-13.58
16:27:48.968750,-17.27
16:27:48.984375,-19.59
16:27:49,-20.49
16:27:49.015625,-20.23
16:27:49.031250,-19.26
16:27:49.046875,-17.98
16:27:49.062500,-16.65
16:27:49.078125,-15.30
16:27:49.093750,-13.75
16:27:49.109375,-11.82
16:27:49.125000,-9.45
16:27:49.140625,-6.80
16:27:49.156250,-4.23
16:27:49.171875,-2.25
16:27:49.187500,-1.24
16:27:49.203125,-1.34
16:27:49.218750,-2.32
16:27:49.234375,-3.70
16:27:49.250000,-5.00
16:27:49.265625,-5.97
16:27:49.281250,-6.71
16:27:49.296875,-7.59
16:27:49.312500,-9.02
16:27:49.328125,-11.10
16:27:49.343750,-13.58
16:27:49.359375,-15.91
16:27:49.375000,-17.49
16:27:49.390625,-18.04
16:27:49.406250,-17.65
16:27:49.421875,-16.75
16:27:49.437500,-15.90
16:27:49.453125,-15.58
16:27:49.468750,-16.03
16:27:49.484375,-17.33
16:27:49.500000,-19.35
16:27:49.515625,-21.82
16:27:49.531250,-24.31
16:27:49.546875,-26.28
16:27:49.562500,-27.27
16:27:49.578125,-26.99
16:27:49.593750,-25.53
16:27:49.609375,-23.31
16:27:49.625000,-20.91
16:27:49.640625,-18.81
16:27:49.656250,-17.17
16:27:49.671875,-15.86
16:27:49.687500,-14.68
16:27:49.703125,-13.51
16:27:49.718750,-12.49
16:27:49.734375,-11.93
16:27:49.750000,-12.18
16:27:49.765625,-13.37
16:27:49.781250,-15.37
16:27:49.796875,-17.80
16:27:49.812500,-20.17
16:27:49.828125,-22.00
16:27:49.843750,-23.09
16:27:49.859375,-23.49
16:27:49.875000,-23.47
16:27:49.890625,-23.43
16:27:49.906250,-23.63
16:27:49.921875,-24.14
16:27:49.937500,-24.82
16:27:49.953125,-25.41
16:27:49.968750,-25.69
16:27:49.984375,-25.60
16:27:50,-25.18
16:27:50.015625,-24.53
16:27:50.031250,-23.72
16:27:50.046875,-22.81
16:27:50.062500,-21.88
16:27:50.078125,-21.05
16:27:50.093750,-20.44
16:27:50.109375,-20.09
16:27:50.125000,-19.93
16:27:50.140625,-19.84
16:27:50.156250,-19.68
16:27:50.171875,-19.33
16:27:50.187500,-18.68
16:27:50.203125,-17.58
16:27:50.218750,-15.81
16:27:50.234375,-13.23
16:27:50.250000,-9.93
16:27:50.265625,-6.28
16:27:50.281250,-2.97
16:27:50.296875,-0.69
16:27:50.312500,0.16
16:27:50.328125,-0.32
16:27:50.343750,-1.52
16:27:50.359375,-2.58
16:27:50.375000,-2.78
16:27:50.390625,-1.81
16:27:50.406250,0.21
16:27:50.421875,2.86
16:27:50.437500,5.72
16:27:50.453125,8.49
16:27:50.468750,11.07
16:27:50.484375,13.39
16:27:50.500000,15.33
16:27:50.515625,16.67
16:27:50.531250,17.29
16:27:50.546875,17.27
16:27:50.562500,17.07
16:27:50.578125,17.38
16:27:50.593750,18.84
16:27:50.609375,21.74
16:27:50.625000,25.83
16:27:50.640625,30.30
16:27:50.656250,34.11
16:27:50.671875,36.36
16:27:50.687500,36.66
16:27:50.703125,35.22
16:27:50.718750,32.67
16:27:50.734375,29.71
16:27:50.750000,26.80
16:27:50.765625,24.09
16:27:50.781250,21.48
16:27:50.796875,18.84
16:27:50.812500,16.23
16:27:50.828125,13.88
16:27:50.843750,12.07
16:27:50.859375,10.97
16:27:50.875000,10.53
16:27:50.890625,10.53
16:27:50.906250,10.71
16:27:50.921875,10.89
16:27:50.937500,10.96
16:27:50.953125,10.95
16:27:50.968750,10.88
16:27:50.984375,10.75
16:27:51,10.52
16:27:51.015625,10.08
16:27:51.031250,9.30
16:27:51.046875,8.09
16:27:51.062500,6.48
16:27:51.078125,4.64
16:27:51.093750,2.88
16:27:51.109375,1.51
16:27:51.125000,0.72
16:27:51.140625,0.48
16:27:51.156250,0.53
16:27:51.171875,0.53
16:27:51.187500,0.18
16:27:51.203125,-0.60
16:27:51.218750,-1.71
16:27:51.234375,-2.91
16:27:51.250000,-4.01
16:27:51.265625,-4.90
16:27:51.281250,-5.61
16:27:51.296875,-6.22
16:27:51.312500,-6.80
16:27:51.328125,-7.30
16:27:51.343750,-7.61
16:27:51.359375,-7.63
16:27:51.375000,-7.29
16:27:51.390625,-6.69
16:27:51.406250,-6.00
16:27:51.421875,-5.44
16:27:51.437500,-5.11
16:27:51.453125,-5.02
16:27:51.468750,-5.10
16:27:51.484375,-5.36
16:27:51.500000,-5.87
16:27:51.515625,-6.81
16:27:51.531250,-8.28
16:27:51.546875,-10.23
16:27:51.562500,-12.33
16:27:51.578125,-14.04
16:27:51.593750,-14.78
16:27:51.609375,-14.17
16:27:51.625000,-12.16
16:27:51.640625,-9.10
16:27:51.656250,-5.53
16:27:51.671875,-2.00
16:27:51.687500,1.12
16:27:51.703125,3.72
16:27:51.718750,5.88
16:27:51.734375,7.75
16:27:51.750000,9.40
16:27:51.765625,10.75
16:27:51.781250,11.63
16:27:51.796875,11.80
16:27:51.812500,11.15
16:27:51.828125,9.72
16:27:51.843750,7.76
16:27:51.859375,5.62
16:27:51.875000,3.65
16:27:51.890625,2.14
16:27:51.906250,1.20
16:27:51.921875,0.85
16:27:51.937500,0.99
16:27:51.953125,1.49
16:27:51.968750,2.22
16:27:51.984375,3.05
16:27:52,3.88
16:27:52.015625,4.63
16:27:52.031250,5.23
16:27:52.046875,5.69
16:27:52.062500,6.01
16:27:52.078125,6.23
16:27:52.093750,6.31
16:27:52.109375,6.16
16:27:52.125000,5.66
16:27:52.140625,4.66
16:27:52.156250,3.07
16:27:52.171875,0.93
16:27:52.187500,-1.57
16:27:52.203125,-4.09
16:27:52.218750,-6.20
16:27:52.234375,-7.49
16:27:52.250000,-7.74
16:27:52.265625,-6.99
16:27:52.281250,-5.56
16:27:52.296875,-3.90
16:27:52.312500,-2.48
16:27:52.328125,-1.62
16:27:52.343750,-1.42
16:27:52.359375,-1.82
16:27:52.375000,-2.63
16:27:52.390625,-3.63
16:27:52.406250,-4.66
16:27:52.421875,-5.58
16:27:52.437500,-6.35
16:27:52.453125,-6.96
16:27:52.468750,-7.52
16:27:52.484375,-8.12
16:27:52.500000,-8.86
16:27:52.515625,-9.80
16:27:52.531250,-10.92
16:27:52.546875,-12.15
16:27:52.562500,-13.39
16:27:52.578125,-14.51
16:27:52.593750,-15.42
16:27:52.609375,-16.02
16:27:52.625000,-16.31
16:27:52.640625,-16.36
16:27:52.656250,-16.29
16:27:52.671875,-16.25
16:27:52.687500,-16.31
16:27:52.703125,-16.41
16:27:52.718750,-16.48
16:27:52.734375,-16.42
16:27:52.750000,-16.20
16:27:52.765625,-15.87
16:27:52.781250,-15.51
16:27:52.796875,-15.19
16:27:52.812500,-14.94
16:27:52.828125,-14.74
16:27:52.843750,-14.55
16:27:52.859375,-14.38
16:27:52.875000,-14.19
16:27:52.890625,-13.91
16:27:52.906250,-13.41
16:27:52.921875,-12.48
16:27:52.937500,-10.89
16:27:52.953125,-8.50
16:27:52.968750,-5.29
16:27:52.984375,-1.41
16:27:53,2.84
16:27:53.015625,7.10
16:27:53.031250,11.05
16:27:53.046875,14.46
16:27:53.062500,17.25
16:27:53.078125,19.44
16:27:53.093750,21.09
16:27:53.109375,22.26
16:27:53.125000,22.97
16:27:53.140625,23.23
16:27:53.156250,23.01
16:27:53.171875,22.34
16:27:53.187500,21.25
16:27:53.203125,19.86
16:27:53.218750,18.28
16:27:53.234375,16.67
16:27:53.250000,15.20
16:27:53.265625,13.99
16:27:53.281250,13.10
16:27:53.296875,12.51
16:27:53.312500,12.10
16:27:53.328125,11.70
16:27:53.343750,11.20
16:27:53.359375,10.52
16:27:53.375000,9.65
16:27:53.390625,8.64
16:27:53.406250,7.50
16:27:53.421875,6.23
16:27:53.437500,4.80
16:27:53.453125,3.22
16:27:53.468750,1.53
16:27:53.484375,-0.17
16:27:53.500000,-1.83
16:27:53.515625,-3.41
16:27:53.531250,-4.95
16:27:53.546875,-6.45
16:27:53.562500,-7.84
16:27:53.578125,-8.94
16:27:53.593750,-9.53
16:27:53.609375,-9.46
16:27:53.625000,-8.71
16:27:53.640625,-7.46
16:27:53.656250,-5.93
16:27:53.671875,-4.39
16:27:53.687500,-3.01
16:27:53.703125,-1.84
16:27:53.718750,-0.85
16:27:53.734375,0.05
16:27:53.750000,0.89
16:27:53.765625,1.66
16:27:53.781250,2.32
16:27:53.796875,2.81
16:27:53.812500,3.05
16:27:53.828125,3.05
16:27:53.843750,2.85
16:27:53.859375,2.56
16:27:53.875000,2.29
16:27:53.890625,2.08
16:27:53.906250,1.96
16:27:53.921875,1.87
16:27:53.937500,1.77
16:27:53.953125,1.67
16:27:53.968750,1.57
16:27:53.984375,1.50
16:27:54,1.44
16:27:54.015625,1.30
16:27:54.031250,0.99
16:27:54.046875,0.44
16:27:54.062500,-0.36
16:27:54.078125,-1.35
16:27:54.093750,-2.45
16:27:54.109375,-3.52
16:27:54.125000,-4.47
16:27:54.140625,-5.20
16:27:54.156250,-5.68
16:27:54.171875,-5.97
16:27:54.187500,-6.18
16:27:54.203125,-6.50
16:27:54.218750,-7.10
16:27:54.234375,-8.06
16:27:54.250000,-9.26
16:27:54.265625,-10.47
16:27:54.281250,-11.39
16:27:54.296875,-11.78
16:27:54.312500,-11.55
16:27:54.328125,-10.78
16:27:54.343750,-9.63
16:27:54.359375,-8.30
16:27:54.375000,-6.93
16:27:54.390625,-5.65
16:27:54.406250,-4.50
16:27:54.421875,-3.50
16:27:54.437500,-2.63
16:27:54.453125,-1.86
16:27:54.468750,-1.11
16:27:54.484375,-0.40
16:27:54.500000,0.22
16:27:54.515625,0.61
16:27:54.531250,0.65
16:27:54.546875,0.27
16:27:54.562500,-0.47
16:27:54.578125,-1.36
16:27:54.593750,-2.19
16:27:54.609375,-2.77
16:27:54.625000,-3.01
16:27:54.640625,-2.97
16:27:54.656250,-2.76
16:27:54.671875,-2.50
16:27:54.687500,-2.25
16:27:54.703125,-1.99
16:27:54.718750,-1.70
16:27:54.734375,-1.38
16:27:54.750000,-1.04
16:27:54.765625,-0.73
16:27:54.781250,-0.51
16:27:54.796875,-0.40
16:27:54.812500,-0.38
16:27:54.828125,-0.41
16:27:54.843750,-0.44
16:27:54.859375,-0.46
16:27:54.875000,-0.51
16:27:54.890625,-0.66
16:27:54.906250,-0.99
16:27:54.921875,-1.55
16:27:54.937500,-2.29
16:27:54.953125,-3.15
16:27:54.968750,-3.96
16:27:54.984375,-4.53
16:27:55,-4.75
16:27:55.015625,-4.55
16:27:55.031250,-3.96
16:27:55.046875,-3.04
16:27:55.062500,-1.86
16:27:55.078125,-0.45
16:27:55.093750,1.14
16:27:55.109375,2.86
16:27:55.125000,4.56
16:27:55.140625,6.05
16:27:55.156250,7.16
16:27:55.171875,7.84
16:27:55.187500,8.21
16:27:55.203125,8.58
16:27:55.218750,9.37
16:27:55.234375,10.88
16:27:55.250000,13.17
16:27:55.265625,15.95
16:27:55.281250,18.68
16:27:55.296875,20.79
16:27:55.312500,21.96
16:27:55.328125,22.29
16:27:55.343750,22.31
16:27:55.359375,22.72
16:27:55.375000,24.10
16:27:55.390625,26.66
16:27:55.406250,30.16
16:27:55.421875,34.07
16:27:55.437500,37.83
16:27:55.453125,41.06
16:27:55.468750,43.69
16:27:55.484375,45.86
16:27:55.500000,47.93
16:27:55.515625,50.38
16:27:55.531250,53.89
16:27:55.546875,59.23
16:27:55.562500,66.81
16:27:55.578125,76.23
16:27:55.593750,85.89
16:27:55.609375,93.14
16:27:55.625000,95.05
16:27:55.640625,89.59
16:27:55.656250,76.60
16:27:55.671875,58.03
16:27:55.687500,37.24
16:27:55.703125,17.64
16:27:55.718750,1.53
16:27:55.734375,-10.45
16:27:55.750000,-18.99
16:27:55.765625,-25.20
16:27:55.781250,-29.85
16:27:55.796875,-33.08
16:27:55.812500,-34.78
16:27:55.828125,-35.06
16:27:55.843750,-34.55
16:27:55.859375,-34.19
16:27:55.875000,-34.71
16:27:55.890625,-36.22
16:27:55.906250,-38.11
16:27:55.921875,-39.42
16:27:55.937500,-39.38
16:27:55.953125,-37.90
16:27:55.968750,-35.54
16:27:55.984375,-33.27
16:27:56,-31.90
16:27:56.015625,-31.82
16:27:56.031250,-32.81
16:27:56.046875,-34.29
16:27:56.062500,-35.65
16:27:56.078125,-36.44
16:27:56.093750,-36.56
16:27:56.109375,-36.12
16:27:56.125000,-35.35
16:27:56.140625,-34.44
16:27:56.156250,-33.51
16:27:56.171875,-32.56
16:27:56.187500,-31.56
16:27:56.203125,-30.47
16:27:56.218750,-29.26
16:27:56.234375,-27.98
16:27:56.250000,-26.74
16:27:56.265625,-25.66
16:27:56.281250,-24.88
16:27:56.296875,-24.48
16:27:56.312500,-24.56
16:27:56.328125,-25.11
16:27:56.343750,-26.13
16:27:56.359375,-27.50
16:27:56.375000,-29.06
16:27:56.390625,-30.63
16:27:56.406250,-32.01
16:27:56.421875,-33.07
16:27:56.437500,-33.67
16:27:56.453125,-33.72
16:27:56.468750,-33.09
16:27:56.484375,-31.67
16:27:56.500000,-29.43
16:27:56.515625,-26.50
16:27:56.531250,-23.19
16:27:56.546875,-19.89
16:27:56.562500,-17.04
16:27:56.578125,-14.87
16:27:56.593750,-13.41
16:27:56.609375,-12.43
16:27:56.625000,-11.57
16:27:56.640625,-10.43
16:27:56.656250,-8.68
16:27:56.671875,-6.15
16:27:56.687500,-2.86
16:27:56.703125,0.93
16:27:56.718750,4.81
16:27:56.734375,8.23
16:27:56.750000,10.64
16:27:56.765625,11.60
16:27:56.781250,10.91
16:27:56.796875,8.67
16:27:56.812500,5.30
16:27:56.828125,1.44
16:27:56.843750,-2.20
16:27:56.859375,-5.05
16:27:56.875000,-6.79
16:27:56.890625,-7.44
16:27:56.906250,-7.21
16:27:56.921875,-6.41
16:27:56.937500,-5.25
16:27:56.953125,-3.86
16:27:56.968750,-2.35
16:27:56.984375,-0.89
16:27:57,0.20
16:27:57.015625,0.56
16:27:57.031250,-0.04
16:27:57.046875,-1.53
16:27:57.062500,-3.48
16:27:57.078125,-5.22
16:27:57.093750,-6.09
16:27:57.109375,-5.64
16:27:57.125000,-3.80
16:27:57.140625,-0.88
16:27:57.156250,2.57
16:27:57.171875,6.01
16:27:57.187500,9.04
16:27:57.203125,11.49
16:27:57.218750,13.41
16:27:57.234375,14.93
16:27:57.250000,16.19
16:27:57.265625,17.22
16:27:57.281250,17.93
16:27:57.296875,18.19
16:27:57.312500,17.90
16:27:57.328125,17.13
16:27:57.343750,16.15
16:27:57.359375,15.36
16:27:57.375000,15.16
16:27:57.390625,15.76
16:27:57.406250,17.07
16:27:57.421875,18.64
16:27:57.437500,19.88
16:27:57.453125,20.20
16:27:57.468750,19.30
16:27:57.484375,17.19
16:27:57.500000,14.23
16:27:57.515625,10.91
16:27:57.531250,7.68
16:27:57.546875,4.79
16:27:57.562500,2.35
16:27:57.578125,0.33
16:27:57.593750,-1.34
16:27:57.609375,-2.62
16:27:57.625000,-3.52
16:27:57.640625,-4.08
16:27:57.656250,-4.44
16:27:57.671875,-4.84
16:27:57.687500,-5.56
16:27:57.703125,-6.78
16:27:57.718750,-8.51
16:27:57.734375,-10.60
16:27:57.750000,-12.78
16:27:57.765625,-14.72
16:27:57.781250,-16.08
16:27:57.796875,-16.63
16:27:57.812500,-16.21
16:27:57.828125,-14.83
16:27:57.843750,-12.64
16:27:57.859375,-9.89
16:27:57.875000,-6.89
16:27:57.890625,-3.86
16:27:57.906250,-0.92
16:27:57.921875,1.93
16:27:57.937500,4.76
16:27:57.953125,7.56
16:27:57.968750,10.26
16:27:57.984375,12.73
16:27:58,14.82
16:27:58.015625,16.45
16:27:58.031250,17.57
16:27:58.046875,18.27
16:27:58.062500,18.65
16:27:58.078125,18.89
16:27:58.093750,19.08
16:27:58.109375,19.23
16:27:58.125000,19.22
16:27:58.140625,18.86
16:27:58.156250,17.97
16:27:58.171875,16.57
16:27:58.187500,14.88
16:27:58.203125,13.32
16:27:58.218750,12.26
16:27:58.234375,11.84
16:27:58.250000,11.89
16:27:58.265625,12.02
16:27:58.281250,11.86
16:27:58.296875,11.25
16:27:58.312500,10.28
16:27:58.328125,9.19
16:27:58.343750,8.16
16:27:58.359375,7.20
16:27:58.375000,6.15
16:27:58.390625,4.86
16:27:58.406250,3.23
16:27:58.421875,1.31
16:27:58.437500,-0.77
16:27:58.453125,-2.89
16:27:58.468750,-4.98
16:27:58.484375,-6.95
16:27:58.500000,-8.67
16:27:58.515625,-9.93
16:27:58.531250,-10.46
16:27:58.546875,-10.08
16:27:58.562500,-8.83
16:27:58.578125,-6.86
16:27:58.593750,-4.47
16:27:58.609375,-1.92
16:27:58.625000,0.61
16:27:58.640625,3.03
16:27:58.656250,5.30
16:27:58.671875,7.38
16:27:58.687500,9.17
16:27:58.703125,10.62
16:27:58.718750,11.71
16:27:58.734375,12.55
16:27:58.750000,13.28
16:27:58.765625,14.03
16:27:58.781250,14.88
16:27:58.796875,15.77
16:27:58.812500,16.61
16:27:58.828125,17.29
16:27:58.843750,17.72
16:27:58.859375,17.88
16:27:58.875000,17.79
16:27:58.890625,17.44
16:27:58.906250,16.89
16:27:58.921875,16.19
16:27:58.937500,15.43
16:27:58.953125,14.72
16:27:58.968750,14.18
16:27:58.984375,13.86
16:27:59,13.74
16:27:59.015625,13.67
16:27:59.031250,13.49
16:27:59.046875,13.04
16:27:59.062500,12.24
16:27:59.078125,11.04
16:27:59.093750,9.44
16:27:59.109375,7.47
16:27:59.125000,5.17
16:27:59.140625,2.60
16:27:59.156250,-0.12
16:27:59.171875,-2.75
16:27:59.187500,-5.07
16:27:59.203125,-6.86
16:27:59.218750,-8.02
16:27:59.234375,-8.59
16:27:59.250000,-8.71
16:27:59.265625,-8.56
16:27:59.281250,-8.32
16:27:59.296875,-8.17
16:27:59.312500,-8.21
16:27:59.328125,-8.57
16:27:59.343750,-9.33
16:27:59.359375,-10.50
16:27:59.375000,-11.97
16:27:59.390625,-13.53
16:27:59.406250,-14.94
16:27:59.421875,-15.98
16:27:59.437500,-16.56
16:27:59.453125,-16.73
16:27:59.468750,-16.60
16:27:59.484375,-16.35
16:27:59.500000,-16.09
16:27:59.515625,-15.89
16:27:59.531250,-15.72
16:27:59.546875,-15.48
16:27:59.562500,-15.05
16:27:59.578125,-14.33
16:27:59.593750,-13.22
16:27:59.609375,-11.81
16:27:59.625000,-10.24
16:27:59.640625,-8.76
16:27:59.656250,-7.63
16:27:59.671875,-6.99
16:27:59.687500,-6.85
16:27:59.703125,-6.98
16:27:59.718750,-7.07
16:27:59.734375,-6.81
16:27:59.750000,-6.03
16:27:59.765625,-4.79
16:27:59.781250,-3.35
16:27:59.796875,-2.01
16:27:59.812500,-0.99
16:27:59.828125,-0.34
16:27:59.843750,0.11
16:27:59.859375,0.57
16:27:59.875000,1.24
16:27:59.890625,2.19
16:27:59.906250,3.41
16:27:59.921875,4.84
16:27:59.937500,6.39
16:27:59.953125,7.95
16:27:59.968750,9.38
16:27:59.984375,10.52
16:28:00,11.27
16:28:00.015625,11.58
16:28:00.031250,11.58
16:28:00.046875,11.41
16:28:00.062500,11.26
16:28:00.078125,11.21
16:28:00.093750,11.26
16:28:00.109375,11.31
16:28:00.125000,11.23
16:28:00.140625,10.90
16:28:00.156250,10.21
16:28:00.171875,9.13
16:28:00.187500,7.68
16:28:00.203125,5.95
16:28:00.218750,4.10
16:28:00.234375,2.30
16:28:00.250000,0.71
16:28:00.265625,-0.58
16:28:00.281250,-1.51
16:28:00.296875,-2.10
16:28:00.312500,-2.44
16:28:00.328125,-2.67
16:28:00.343750,-2.98
16:28:00.359375,-3.58
16:28:00.375000,-4.61
16:28:00.390625,-6.13
16:28:00.406250,-8.03
16:28:00.421875,-10.06
16:28:00.437500,-11.95
16:28:00.453125,-13.45
16:28:00.468750,-14.45
16:28:00.484375,-15.05
16:28:00.500000,-15.48
16:28:00.515625,-16.06
16:28:00.531250,-17.00
16:28:00.546875,-18.40
16:28:00.562500,-20.17
16:28:00.578125,-22.10
16:28:00.593750,-23.95
16:28:00.609375,-25.44
16:28:00.625000,-26.25
16:28:00.640625,-26.14
16:28:00.656250,-24.89
16:28:00.671875,-22.48
16:28:00.687500,-19.12
16:28:00.703125,-15.23
16:28:00.718750,-11.37
16:28:00.734375,-8.02
16:28:00.750000,-5.47
16:28:00.765625,-3.79
16:28:00.781250,-2.82
16:28:00.796875,-2.31
16:28:00.812500,-1.97
16:28:00.828125,-1.52
16:28:00.843750,-0.80
16:28:00.859375,0.27
16:28:00.875000,1.56
16:28:00.890625,2.78
16:28:00.906250,3.48
16:28:00.921875,3.19
16:28:00.937500,1.67
16:28:00.953125,-0.95
16:28:00.968750,-4.08
16:28:00.984375,-6.79
16:28:01,-8.11
16:28:01.015625,-7.41
16:28:01.031250,-4.65
16:28:01.046875,-0.45
16:28:01.062500,4.16
16:28:01.078125,8.12
16:28:01.093750,10.71
16:28:01.109375,11.77
16:28:01.125000,11.69
16:28:01.140625,11.16
16:28:01.156250,10.79
16:28:01.171875,10.88
16:28:01.187500,11.31
16:28:01.203125,11.67
16:28:01.218750,11.53
16:28:01.234375,10.63
16:28:01.250000,9.06
16:28:01.265625,7.17
16:28:01.281250,5.43
16:28:01.296875,4.18
16:28:01.312500,3.57
16:28:01.328125,3.49
16:28:01.343750,3.68
16:28:01.359375,3.84
16:28:01.375000,3.66
16:28:01.390625,3.00
16:28:01.406250,1.80
16:28:01.421875,0.14
16:28:01.437500,-1.83
16:28:01.453125,-4.01
16:28:01.468750,-6.33
16:28:01.484375,-8.80
16:28:01.500000,-11.37
16:28:01.515625,-13.91
16:28:01.531250,-16.11
16:28:01.546875,-17.65
16:28:01.562500,-18.29
16:28:01.578125,-18.03
16:28:01.593750,-17.14
16:28:01.609375,-16.03
16:28:01.625000,-15.11
16:28:01.640625,-14.64
16:28:01.656250,-14.73
16:28:01.671875,-15.35
16:28:01.687500,-16.43
16:28:01.703125,-17.93
16:28:01.718750,-19.78
16:28:01.734375,-21.96
16:28:01.750000,-24.45
16:28:01.765625,-27.20
16:28:01.781250,-30.17
16:28:01.796875,-33.33
16:28:01.812500,-36.63
16:28:01.828125,-40.09
16:28:01.843750,-43.78
16:28:01.859375,-47.79
16:28:01.875000,-52.18
16:28:01.890625,-56.85
16:28:01.906250,-61.48
16:28:01.921875,-65.55
16:28:01.937500,-68.59
16:28:01.953125,-70.40
16:28:01.968750,-71.19
16:28:01.984375,-71.49
16:28:02,-71.84
16:28:02.015625,-72.50
16:28:02.031250,-73.20
16:28:02.046875,-73.34
16:28:02.062500,-72.28
16:28:02.078125,-69.70
16:28:02.093750,-65.75
16:28:02.109375,-60.88
16:28:02.125000,-55.60
16:28:02.140625,-50.21
16:28:02.156250,-44.71
16:28:02.171875,-38.89
16:28:02.187500,-32.39
16:28:02.203125,-24.72
16:28:02.218750,-15.26
16:28:02.234375,-3.31
16:28:02.250000,11.57
16:28:02.265625,29.32
16:28:02.281250,49.04
16:28:02.296875,69.10
16:28:02.312500,87.53
16:28:02.328125,102.65
16:28:02.343750,113.58
16:28:02.359375,120.45
16:28:02.375000,124.11
16:28:02.390625,125.76
16:28:02.406250,126.41
16:28:02.421875,126.71
16:28:02.437500,126.84
16:28:02.453125,126.67
16:28:02.468750,125.93
16:28:02.484375,124.18
16:28:02.500000,120.87
16:28:02.515625,115.37
16:28:02.531250,107.10
16:28:02.546875,95.81
16:28:02.562500,81.88
16:28:02.578125,66.40
16:28:02.593750,51.06
16:28:02.609375,37.71
16:28:02.625000,27.83
16:28:02.640625,22.08
16:28:02.656250,20.11
16:28:02.671875,20.78
16:28:02.687500,22.60
16:28:02.703125,24.23
16:28:02.718750,24.81
16:28:02.734375,24.12
16:28:02.750000,22.49
16:28:02.765625,20.55
16:28:02.781250,19.03
16:28:02.796875,18.60
16:28:02.812500,19.64
16:28:02.828125,22.06
16:28:02.843750,25.22
16:28:02.859375,27.96
16:28:02.875000,28.92
16:28:02.890625,26.98
16:28:02.906250,21.73
16:28:02.921875,13.71
16:28:02.937500,4.24
16:28:02.953125,-5.04
16:28:02.968750,-12.78
16:28:02.984375,-18.27
16:28:03,-21.53
16:28:03.015625,-23.06
16:28:03.031250,-23.56
16:28:03.046875,-23.65
16:28:03.062500,-23.72
16:28:03.078125,-24.02
16:28:03.093750,-24.67
16:28:03.109375,-25.66
16:28:03.125000,-26.82
16:28:03.140625,-27.84
16:28:03.156250,-28.34
16:28:03.171875,-28.11
16:28:03.187500,-27.24
16:28:03.203125,-26.12
16:28:03.218750,-25.29
16:28:03.234375,-25.18
16:28:03.250000,-25.88
16:28:03.265625,-27.20
16:28:03.281250,-28.74
16:28:03.296875,-30.09
16:28:03.312500,-30.99
16:28:03.328125,-31.25
16:28:03.343750,-30.78
16:28:03.359375,-29.55
16:28:03.375000,-27.63
16:28:03.390625,-25.25
16:28:03.406250,-22.73
16:28:03.421875,-20.34
16:28:03.437500,-18.10
16:28:03.453125,-15.73
16:28:03.468750,-12.81
16:28:03.484375,-8.98
16:28:03.500000,-4.24
16:28:03.515625,1.02
16:28:03.531250,6.12
16:28:03.546875,10.40
16:28:03.562500,13.51
16:28:03.578125,15.52
16:28:03.593750,16.81
16:28:03.609375,17.86
16:28:03.625000,19.00
16:28:03.640625,20.32
16:28:03.656250,21.64
16:28:03.671875,22.70
16:28:03.687500,23.25
16:28:03.703125,23.17
16:28:03.718750,22.45
16:28:03.734375,21.19
16:28:03.750000,19.48
16:28:03.765625,17.50
16:28:03.781250,15.62
16:28:03.796875,14.46
16:28:03.812500,14.78
16:28:03.828125,17.23
16:28:03.843750,21.97
16:28:03.859375,28.50
16:28:03.875000,35.75
16:28:03.890625,42.46
16:28:03.906250,47.60
16:28:03.921875,50.61
16:28:03.937500,51.47
16:28:03.953125,50.53
16:28:03.968750,48.26
16:28:03.984375,45.26
16:28:04,42.15
16:28:04.015625,39.64
16:28:04.031250,38.30
16:28:04.046875,38.46
16:28:04.062500,39.92
16:28:04.078125,42.07
16:28:04.093750,44.12
16:28:04.109375,45.42
16:28:04.125000,45.70
16:28:04.140625,45.09
16:28:04.156250,43.85
16:28:04.171875,42.21
16:28:04.187500,40.20
16:28:04.203125,37.74
16:28:04.218750,34.69
16:28:04.234375,31.12
16:28:04.250000,27.16
16:28:04.265625,23.10
16:28:04.281250,19.22
16:28:04.296875,15.67
16:28:04.312500,12.53
16:28:04.328125,9.80
16:28:04.343750,7.44
16:28:04.359375,5.40
16:28:04.375000,3.60
16:28:04.390625,1.99
16:28:04.406250,0.43
16:28:04.421875,-1.21
16:28:04.437500,-3.12
16:28:04.453125,-5.49
16:28:04.468750,-8.48
16:28:04.484375,-12.13
16:28:04.500000,-16.36
16:28:04.515625,-20.97
16:28:04.531250,-25.69
16:28:04.546875,-30.28
16:28:04.562500,-34.56
16:28:04.578125,-38.40
16:28:04.593750,-41.72
16:28:04.609375,-44.37
16:28:04.625000,-46.21
16:28:04.640625,-47.06
16:28:04.656250,-46.83
16:28:04.671875,-45.54
16:28:04.687500,-43.40
16:28:04.703125,-40.70
16:28:04.718750,-37.72
16:28:04.734375,-34.72
16:28:04.750000,-31.78
16:28:04.765625,-28.92
16:28:04.781250,-26.11
16:28:04.796875,-23.34
16:28:04.812500,-20.64
16:28:04.828125,-18.02
16:28:04.843750,-15.51
16:28:04.859375,-13.13
16:28:04.875000,-10.92
16:28:04.890625,-8.95
16:28:04.906250,-7.36
16:28:04.921875,-6.30
16:28:04.937500,-5.82
16:28:04.953125,-5.83
16:28:04.968750,-6.16
16:28:04.984375,-6.61
16:28:05,-7.05
16:28:05.015625,-7.51
16:28:05.031250,-8.13
16:28:05.046875,-9.15
16:28:05.062500,-10.75
16:28:05.078125,-13.03
16:28:05.093750,-15.96
16:28:05.109375,-19.39
16:28:05.125000,-23.09
16:28:05.140625,-26.83
16:28:05.156250,-30.40
16:28:05.171875,-33.69
16:28:05.187500,-36.66
16:28:05.203125,-39.35
16:28:05.218750,-41.87
16:28:05.234375,-44.33
16:28:05.250000,-46.79
16:28:05.265625,-49.26
16:28:05.281250,-51.60
16:28:05.296875,-53.56
16:28:05.312500,-54.81
16:28:05.328125,-55.08
16:28:05.343750,-54.26
16:28:05.359375,-52.49
16:28:05.375000,-50.11
16:28:05.390625,-47.55
16:28:05.406250,-45.16
16:28:05.421875,-43.04
16:28:05.437500,-41.04
16:28:05.453125,-38.86
16:28:05.468750,-36.19
16:28:05.484375,-32.88
16:28:05.500000,-29.02
16:28:05.515625,-24.91
16:28:05.531250,-20.95
16:28:05.546875,-17.45
16:28:05.562500,-14.56
16:28:05.578125,-12.21
16:28:05.593750,-10.23
16:28:05.609375,-8.39
16:28:05.625000,-6.54
16:28:05.640625,-4.62
16:28:05.656250,-2.55
16:28:05.671875,-0.26
16:28:05.687500,2.33
16:28:05.703125,5.17
16:28:05.718750,7.98
16:28:05.734375,10.30
16:28:05.750000,11.66
16:28:05.765625,11.84
16:28:05.781250,11.07
16:28:05.796875,9.98
16:28:05.812500,9.34
16:28:05.828125,9.60
16:28:05.843750,10.71
16:28:05.859375,12.11
16:28:05.875000,13.10
16:28:05.890625,13.25
16:28:05.906250,12.71
16:28:05.921875,11.99
16:28:05.937500,11.67
16:28:05.953125,11.91
16:28:05.968750,12.35
16:28:05.984375,12.25
16:28:06,10.96
16:28:06.015625,8.32
16:28:06.031250,4.76
16:28:06.046875,1.18
16:28:06.062500,-1.55
16:28:06.078125,-2.92
16:28:06.093750,-2.99
16:28:06.109375,-2.27
16:28:06.125000,-1.39
16:28:06.140625,-0.87
16:28:06.156250,-0.86
16:28:06.171875,-1.19
16:28:06.187500,-1.45
16:28:06.203125,-1.23
16:28:06.218750,-0.18
16:28:06.234375,1.90
16:28:06.250000,5.17
16:28:06.265625,9.75
16:28:06.281250,15.80
16:28:06.296875,23.29
16:28:06.312500,31.88
16:28:06.328125,40.85
16:28:06.343750,49.16
16:28:06.359375,55.87
16:28:06.375000,60.53
16:28:06.390625,63.31
16:28:06.406250,64.94
16:28:06.421875,66.24
16:28:06.437500,67.58
16:28:06.453125,68.67
16:28:06.468750,68.73
16:28:06.484375,66.92
16:28:06.500000,62.84
16:28:06.515625,56.74
16:28:06.531250,49.36
16:28:06.546875,41.59
16:28:06.562500,34.14
16:28:06.578125,27.40
16:28:06.593750,21.48
16:28:06.609375,16.41
16:28:06.625000,12.20
16:28:06.640625,8.85
16:28:06.656250,6.29
16:28:06.671875,4.28
16:28:06.687500,2.56
16:28:06.703125,0.89
16:28:06.718750,-0.81
16:28:06.734375,-2.44
16:28:06.750000,-3.78
16:28:06.765625,-4.66
16:28:06.781250,-5.03
16:28:06.796875,-5.06
16:28:06.812500,-5.03
16:28:06.828125,-5.27
16:28:06.843750,-6.05
16:28:06.859375,-7.50
16:28:06.875000,-9.52
16:28:06.890625,-11.91
16:28:06.906250,-14.30
16:28:06.921875,-16.28
16:28:06.937500,-17.41
16:28:06.953125,-17.33
16:28:06.968750,-15.82
16:28:06.984375,-12.99
16:28:07,-9.23
16:28:07.015625,-5.25
16:28:07.031250,-1.82
16:28:07.046875,0.38
16:28:07.062500,1.04
16:28:07.078125,0.22
16:28:07.093750,-1.64
16:28:07.109375,-3.91
16:28:07.125000,-5.98
16:28:07.140625,-7.45
16:28:07.156250,-8.16
16:28:07.171875,-8.23
16:28:07.187500,-7.93
16:28:07.203125,-7.58
16:28:07.218750,-7.46
16:28:07.234375,-7.68
16:28:07.250000,-8.30
16:28:07.265625,-9.28
16:28:07.281250,-10.52
16:28:07.296875,-11.90
16:28:07.312500,-13.23
16:28:07.328125,-14.33
16:28:07.343750,-14.98
16:28:07.359375,-15.06
16:28:07.375000,-14.54
16:28:07.390625,-13.54
16:28:07.406250,-12.24
16:28:07.421875,-10.85
16:28:07.437500,-9.47
16:28:07.453125,-8.09
16:28:07.468750,-6.67
16:28:07.484375,-5.16
16:28:07.500000,-3.63
16:28:07.515625,-2.17
16:28:07.531250,-0.96
16:28:07.546875,-0.07
16:28:07.562500,0.46
16:28:07.578125,0.69
16:28:07.593750,0.70
16:28:07.609375,0.53
16:28:07.625000,0.19
16:28:07.640625,-0.31
16:28:07.656250,-0.91
16:28:07.671875,-1.51
16:28:07.687500,-1.97
16:28:07.703125,-2.17
16:28:07.718750,-2.09
16:28:07.734375,-1.80
16:28:07.750000,-1.46
16:28:07.765625,-1.23
16:28:07.781250,-1.23
16:28:07.796875,-1.52
16:28:07.812500,-2.09
16:28:07.828125,-2.87
16:28:07.843750,-3.75
16:28:07.859375,-4.67
16:28:07.875000,-5.51
16:28:07.890625,-6.27
16:28:07.906250,-6.93
16:28:07.921875,-7.51
16:28:07.937500,-8.07
16:28:07.953125,-8.63
16:28:07.968750,-9.18
16:28:07.984375,-9.65
16:28:08,-9.98
16:28:08.015625,-10.06
16:28:08.031250,-9.87
16:28:08.046875,-9.38
16:28:08.062500,-8.63
16:28:08.078125,-7.70
16:28:08.093750,-6.66
16:28:08.109375,-5.60
16:28:08.125000,-4.59
16:28:08.140625,-3.64
16:28:08.156250,-2.75
16:28:08.171875,-1.88
16:28:08.187500,-1.01
16:28:08.203125,-0.19
16:28:08.218750,0.49
16:28:08.234375,0.95
16:28:08.250000,1.15
16:28:08.265625,1.11
16:28:08.281250,0.89
16:28:08.296875,0.58
16:28:08.312500,0.19
16:28:08.328125,-0.26
16:28:08.343750,-0.79
16:28:08.359375,-1.35
16:28:08.375000,-1.86
16:28:08.390625,-2.26
16:28:08.406250,-2.52
16:28:08.421875,-2.71
16:28:08.437500,-2.95
16:28:08.453125,-3.33
16:28:08.468750,-3.89
16:28:08.484375,-4.57
16:28:08.500000,-5.25
16:28:08.515625,-5.83
16:28:08.531250,-6.26
16:28:08.546875,-6.59
16:28:08.562500,-6.88
16:28:08.578125,-7.28
16:28:08.593750,-7.83
16:28:08.609375,-8.54
16:28:08.625000,-9.25
16:28:08.640625,-9.74
16:28:08.656250,-9.76
16:28:08.671875,-9.12
16:28:08.687500,-7.84
16:28:08.703125,-6.12
16:28:08.718750,-4.32
16:28:08.734375,-2.77
16:28:08.750000,-1.63
16:28:08.765625,-0.88
16:28:08.781250,-0.33
16:28:08.796875,0.17
16:28:08.812500,0.72
16:28:08.828125,1.30
16:28:08.843750,1.80
16:28:08.859375,2.15
16:28:08.875000,2.29
16:28:08.890625,2.28
16:28:08.906250,2.17
16:28:08.921875,2.03
16:28:08.937500,1.93
16:28:08.953125,1.89
16:28:08.968750,1.95
16:28:08.984375,2.08
16:28:09,2.17
16:28:09.015625,2.14
16:28:09.031250,1.90
16:28:09.046875,1.48
16:28:09.062500,1.02
16:28:09.078125,0.68
16:28:09.093750,0.55
16:28:09.109375,0.60
16:28:09.125000,0.63
16:28:09.140625,0.42
16:28:09.156250,-0.20
16:28:09.171875,-1.26
16:28:09.187500,-2.59
16:28:09.203125,-3.96
16:28:09.218750,-5.09
16:28:09.234375,-5.83
16:28:09.250000,-6.11
16:28:09.265625,-5.97
16:28:09.281250,-5.48
16:28:09.296875,-4.69
16:28:09.312500,-3.70
16:28:09.328125,-2.56
16:28:09.343750,-1.39
16:28:09.359375,-0.30
16:28:09.375000,0.61
16:28:09.390625,1.29
16:28:09.406250,1.77
16:28:09.421875,2.16
16:28:09.437500,2.59
16:28:09.453125,3.12
16:28:09.468750,3.70
16:28:09.484375,4.16
16:28:09.500000,4.33
16:28:09.515625,4.11
16:28:09.531250,3.56
16:28:09.546875,2.90
16:28:09.562500,2.38
16:28:09.578125,2.15
16:28:09.593750,2.15
16:28:09.609375,2.20
16:28:09.625000,2.06
16:28:09.640625,1.62
16:28:09.656250,0.94
16:28:09.671875,0.18
16:28:09.687500,-0.47
16:28:09.703125,-0.93
16:28:09.718750,-1.21
16:28:09.734375,-1.43
16:28:09.750000,-1.68
16:28:09.765625,-2.06
16:28:09.781250,-2.63
16:28:09.796875,-3.38
16:28:09.812500,-4.27
16:28:09.828125,-5.13
16:28:09.843750,-5.79
16:28:09.859375,-6.04
16:28:09.875000,-5.80
16:28:09.890625,-5.09
16:28:09.906250,-4.02
16:28:09.921875,-2.77
16:28:09.937500,-1.49
16:28:09.953125,-0.22
16:28:09.968750,1.03
16:28:09.984375,2.30
16:28:10,3.58
16:28:10.015625,4.85
16:28:10.031250,6.01
16:28:10.046875,6.98
16:28:10.062500,7.63
16:28:10.078125,7.90
16:28:10.093750,7.76
16:28:10.109375,7.27
16:28:10.125000,6.54
16:28:10.140625,5.74
16:28:10.156250,5.05
16:28:10.171875,4.62
16:28:10.187500,4.52
16:28:10.203125,4.77
16:28:10.218750,5.30
16:28:10.234375,5.98
16:28:10.250000,6.65
16:28:10.265625,7.15
16:28:10.281250,7.38
16:28:10.296875,7.29
16:28:10.312500,6.89
16:28:10.328125,6.23
16:28:10.343750,5.43
16:28:10.359375,4.59
16:28:10.375000,3.84
16:28:10.390625,3.27
16:28:10.406250,2.92
16:28:10.421875,2.67
16:28:10.437500,2.39
16:28:10.453125,1.90
16:28:10.468750,1.18
16:28:10.484375,0.37
16:28:10.500000,-0.22
16:28:10.515625,-0.27
16:28:10.531250,0.39
16:28:10.546875,1.67
16:28:10.562500,3.25
16:28:10.578125,4.74
16:28:10.593750,5.85
16:28:10.609375,6.48
16:28:10.625000,6.75
16:28:10.640625,6.90
16:28:10.656250,7.10
16:28:10.671875,7.35
16:28:10.687500,7.52
16:28:10.703125,7.43
16:28:10.718750,6.99
16:28:10.734375,6.29
16:28:10.750000,5.51
16:28:10.765625,4.87
16:28:10.781250,4.52
16:28:10.796875,4.45
16:28:10.812500,4.55
16:28:10.828125,4.64
16:28:10.843750,4.59
16:28:10.859375,4.34
16:28:10.875000,3.89
16:28:10.890625,3.29
16:28:10.906250,2.61
16:28:10.921875,1.86
16:28:10.937500,1.10
16:28:10.953125,0.33
16:28:10.968750,-0.40
16:28:10.984375,-1.06
16:28:11,-1.65
16:28:11.015625,-2.22
16:28:11.031250,-2.87
16:28:11.046875,-3.66
16:28:11.062500,-4.59
16:28:11.078125,-5.53
16:28:11.093750,-6.28
16:28:11.109375,-6.64
16:28:11.125000,-6.47
16:28:11.140625,-5.78
16:28:11.156250,-4.67
16:28:11.171875,-3.31
16:28:11.187500,-1.87
16:28:11.203125,-0.51
16:28:11.218750,0.67
16:28:11.234375,1.59
16:28:11.250000,2.20
16:28:11.265625,2.54
16:28:11.281250,2.68
16:28:11.296875,2.69
16:28:11.312500,2.60
16:28:11.328125,2.41
16:28:11.343750,2.11
16:28:11.359375,1.70
16:28:11.375000,1.24
16:28:11.390625,0.83
16:28:11.406250,0.52
16:28:11.421875,0.34
16:28:11.437500,0.24
16:28:11.453125,0.16
16:28:11.468750,0.03
16:28:11.484375,-0.17
16:28:11.500000,-0.44
16:28:11.515625,-0.76
16:28:11.531250,-1.08
16:28:11.546875,-1.39
16:28:11.562500,-1.68
16:28:11.578125,-1.96
16:28:11.593750,-2.29
16:28:11.609375,-2.70
16:28:11.625000,-3.21
16:28:11.640625,-3.80
16:28:11.656250,-4.40
16:28:11.671875,-4.95
16:28:11.687500,-5.43
16:28:11.703125,-5.85
16:28:11.718750,-6.24
16:28:11.734375,-6.59
16:28:11.750000,-6.85
16:28:11.765625,-6.93
16:28:11.781250,-6.72
16:28:11.796875,-6.21
16:28:11.812500,-5.41
16:28:11.828125,-4.45
16:28:11.843750,-3.43
16:28:11.859375,-2.44
16:28:11.875000,-1.51
16:28:11.890625,-0.65
16:28:11.906250,0.13
16:28:11.921875,0.75
16:28:11.937500,1.12
16:28:11.953125,1.14
16:28:11.968750,0.75
16:28:11.984375,-0.01
16:28:12,-1.06
16:28:12.015625,-2.28
16:28:12.031250,-3.53
16:28:12.046875,-4.77
16:28:12.062500,-5.99
16:28:12.078125,-7.15
16:28:12.093750,-8.19
16:28:12.109375,-9.03
16:28:12.125000,-9.60
16:28:12.140625,-10.03
16:28:12.156250,-10.62
16:28:12.171875,-11.96
16:28:12.187500,-14.85
16:28:12.203125,-20.15
16:28:12.218750,-28.70
16:28:12.234375,-40.95
16:28:12.250000,-56.82
16:28:12.265625,-75.41
16:28:12.281250,-95.01
16:28:12.296875,-113.31
16:28:12.312500,-127.90
16:28:12.328125,-136.92
16:28:12.343750,-139.52
16:28:12.359375,-135.95
16:28:12.375000,-127.35
16:28:12.390625,-115.27
16:28:12.406250,-101.38
16:28:12.421875,-87.18
16:28:12.437500,-73.90
16:28:12.453125,-62.28
16:28:12.468750,-52.25
16:28:12.484375,-42.75
16:28:12.500000,-31.96
16:28:12.515625,-18.02
16:28:12.531250,0.14
16:28:12.546875,22.15
16:28:12.562500,46.18
16:28:12.578125,69.64
16:28:12.593750,90.10
16:28:12.609375,106.00
16:28:12.625000,116.92
16:28:12.640625,123.19
16:28:12.656250,125.52
16:28:12.671875,124.69
16:28:12.687500,121.42
16:28:12.703125,116.48
16:28:12.718750,110.68
16:28:12.734375,104.74
16:28:12.750000,99.11
16:28:12.765625,93.92
16:28:12.781250,88.95
16:28:12.796875,83.79
16:28:12.812500,77.99
16:28:12.828125,71.22
16:28:12.843750,63.39
16:28:12.859375,54.76
16:28:12.875000,45.86
16:28:12.890625,37.41
16:28:12.906250,30.06
16:28:12.921875,24.17
16:28:12.937500,19.68
16:28:12.953125,16.18
16:28:12.968750,13.10
16:28:12.984375,9.92
16:28:13,6.36
16:28:13.015625,2.35
16:28:13.031250,-2.08
16:28:13.046875,-6.96
16:28:13.062500,-12.36
16:28:13.078125,-18.43
16:28:13.093750,-25.15
16:28:13.109375,-32.29
16:28:13.125000,-39.32
16:28:13.140625,-45.56
16:28:13.156250,-50.34
16:28:13.171875,-53.25
16:28:13.187500,-54.23
16:28:13.203125,-53.54
16:28:13.218750,-51.68
16:28:13.234375,-49.17
16:28:13.250000,-46.44
16:28:13.265625,-43.77
16:28:13.281250,-41.23
16:28:13.296875,-38.80
16:28:13.312500,-36.38
16:28:13.328125,-33.85
16:28:13.343750,-31.16
16:28:13.359375,-28.26
16:28:13.375000,-25.17
16:28:13.390625,-21.86
16:28:13.406250,-18.29
16:28:13.421875,-14.39
16:28:13.437500,-10.16
16:28:13.453125,-5.61
16:28:13.468750,-0.78
16:28:13.484375,4.33
16:28:13.500000,9.79
16:28:13.515625,15.73
16:28:13.531250,22.23
16:28:13.546875,29.17
16:28:13.562500,36.19
16:28:13.578125,42.72
16:28:13.593750,48.17
16:28:13.609375,52.13
16:28:13.625000,54.49
16:28:13.640625,55.50
16:28:13.656250,55.56
16:28:13.671875,55.07
16:28:13.687500,54.23
16:28:13.703125,53.01
16:28:13.718750,51.20
16:28:13.734375,48.55
16:28:13.750000,44.95
16:28:13.765625,40.45
16:28:13.781250,35.32
16:28:13.796875,29.94
16:28:13.812500,24.71
16:28:13.828125,19.99
16:28:13.843750,16.09
16:28:13.859375,13.18
16:28:13.875000,11.35
16:28:13.890625,10.45
16:28:13.906250,10.15
16:28:13.921875,9.98
16:28:13.937500,9.50
16:28:13.953125,8.52
16:28:13.968750,7.14
16:28:13.984375,5.67
16:28:14,4.47
16:28:14.015625,3.66
16:28:14.031250,3.17
16:28:14.046875,2.73
16:28:14.062500,2.12
16:28:14.078125,1.28
16:28:14.093750,0.32
16:28:14.109375,-0.60
16:28:14.125000,-1.33
16:28:14.140625,-1.83
16:28:14.156250,-2.09
16:28:14.171875,-2.08
16:28:14.187500,-1.70
16:28:14.203125,-0.88
16:28:14.218750,0.36
16:28:14.234375,1.87
16:28:14.250000,3.45
16:28:14.265625,4.91
16:28:14.281250,6.17
16:28:14.296875,7.22
16:28:14.312500,8.09
16:28:14.328125,8.74
16:28:14.343750,9.10
16:28:14.359375,9.15
16:28:14.375000,8.91
16:28:14.390625,8.48
16:28:14.406250,7.95
16:28:14.421875,7.33
16:28:14.437500,6.52
16:28:14.453125,5.36
16:28:14.468750,3.76
16:28:14.484375,1.75
16:28:14.500000,-0.49
16:28:14.515625,-2.67
16:28:14.531250,-4.54
16:28:14.546875,-5.96
16:28:14.562500,-6.90
16:28:14.578125,-7.46
16:28:14.593750,-7.73
16:28:14.609375,-7.81
16:28:14.625000,-7.72
16:28:14.640625,-7.49
16:28:14.656250,-7.13
16:28:14.671875,-6.70
16:28:14.687500,-6.28
16:28:14.703125,-5.97
16:28:14.718750,-5.86
16:28:14.734375,-6.03
16:28:14.750000,-6.48
16:28:14.765625,-7.17
16:28:14.781250,-7.95
16:28:14.796875,-8.62
16:28:14.812500,-8.95
16:28:14.828125,-8.75
