12:02:05,-0.00
12:02:05.015625,-0.00
12:02:05.031250,-0.00
12:02:05.046875,-0.00
12:02:05.062500,-0.00
12:02:05.078125,-0.00
12:02:05.093750,-0.00
12:02:05.109375,-0.00
12:02:05.125000,-0.00
12:02:05.140625,-0.00
12:02:05.156250,0.00
12:02:05.171875,0.01
12:02:05.187500,0.01
12:02:05.203125,-0.00
12:02:05.218750,-0.03
12:02:05.234375,-0.05
12:02:05.250000,-0.05
12:02:05.265625,0.00
12:02:05.281250,0.13
12:02:05.296875,0.36
12:02:05.312500,0.66
12:02:05.328125,1.01
12:02:05.343750,1.37
12:02:05.359375,1.72
12:02:05.375000,2.06
12:02:05.390625,2.40
12:02:05.406250,2.79
12:02:05.421875,3.24
12:02:05.437500,3.80
12:02:05.453125,4.42
12:02:05.468750,5.06
12:02:05.484375,5.66
12:02:05.500000,6.20
12:02:05.515625,6.68
12:02:05.531250,7.15
12:02:05.546875,7.68
12:02:05.562500,8.31
12:02:05.578125,9.14
12:02:05.593750,10.09
12:02:05.609375,11.04
12:02:05.625000,11.88
12:02:05.640625,12.56
12:02:05.656250,13.14
12:02:05.671875,13.76
12:02:05.687500,14.65
12:02:05.703125,15.96
12:02:05.718750,17.91
12:02:05.734375,20.32
12:02:05.750000,22.90
12:02:05.765625,25.38
12:02:05.781250,27.58
12:02:05.796875,29.57
12:02:05.812500,31.68
12:02:05.828125,34.32
12:02:05.843750,37.81
12:02:05.859375,42.54
12:02:05.875000,48.15
12:02:05.890625,54.10
12:02:05.906250,59.83
12:02:05.921875,64.97
12:02:05.937500,69.58
12:02:05.953125,74.14
12:02:05.968750,79.34
12:02:05.984375,85.71
12:02:06,93.76
12:02:06.015625,103.00
12:02:06.031250,112.62
12:02:06.046875,121.73
12:02:06.062500,129.77
12:02:06.078125,136.75
12:02:06.093750,143.30
12:02:06.109375,150.75
12:02:06.125000,157.77
12:02:06.140625,166.64
12:02:06.156250,177.95
12:02:06.171875,191.79
12:02:06.187500,206.97
12:02:06.203125,220.57
12:02:06.218750,228.25
12:02:06.234375,225.36
12:02:06.250000,208.53
12:02:06.265625,176.87
12:02:06.281250,132.76
12:02:06.296875,80.05
12:02:06.312500,23.07
12:02:06.328125,-34.94
12:02:06.343750,-92.44
12:02:06.359375,-149.16
12:02:06.375000,-205.23
12:02:06.390625,-260.37
12:02:06.406250,-313.74
12:02:06.421875,-363.87
12:02:06.437500,-409.83
12:02:06.453125,-450.91
12:02:06.468750,-486.50
12:02:06.484375,-515.74
12:02:06.500000,-537.23
12:02:06.515625,-549.22
12:02:06.531250,-549.96
12:02:06.546875,-538.37
12:02:06.562500,-514.21
12:02:06.578125,-478.67
12:02:06.593750,-433.88
12:02:06.609375,-382.45
12:02:06.625000,-327.02
12:02:06.640625,-269.84
12:02:06.656250,-212.63
12:02:06.671875,-156.66
12:02:06.687500,-102.95
12:02:06.703125,-52.37
12:02:06.718750,-5.90
12:02:06.734375,35.58
12:02:06.750000,71.43
12:02:06.765625,101.35
12:02:06.781250,125.50
12:02:06.796875,144.38
12:02:06.812500,158.69
12:02:06.828125,169.15
12:02:06.843750,176.37
12:02:06.859375,180.75
12:02:06.875000,182.57
12:02:06.890625,182.07
12:02:06.906250,179.51
12:02:06.921875,175.23
12:02:06.937500,169.65
12:02:06.953125,163.18
12:02:06.968750,156.15
12:02:06.984375,148.81
12:02:07,141.30
12:02:07.015625,133.69
12:02:07.031250,126.02
12:02:07.046875,118.33
12:02:07.062500,110.69
12:02:07.078125,103.16
12:02:07.093750,95.80
12:02:07.109375,88.68
12:02:07.125000,81.83
12:02:07.140625,75.25
12:02:07.156250,68.95
12:02:07.171875,62.95
12:02:07.187500,57.25
12:02:07.203125,51.86
12:02:07.218750,46.78
12:02:07.234375,42.03
12:02:07.250000,37.59
12:02:07.265625,33.45
12:02:07.281250,29.61
12:02:07.296875,26.07
12:02:07.312500,22.81
12:02:07.328125,19.83
12:02:07.343750,17.11
12:02:07.359375,14.67
12:02:07.375000,12.48
12:02:07.390625,10.54
12:02:07.406250,8.83
12:02:07.421875,7.35
12:02:07.437500,6.07
12:02:07.453125,4.97
12:02:07.468750,4.05
12:02:07.484375,3.27
12:02:07.500000,2.62
12:02:07.515625,2.09
12:02:07.531250,1.65
12:02:07.546875,1.30
12:02:07.562500,1.01
12:02:07.578125,0.79
12:02:07.593750,0.61
12:02:07.609375,0.48
12:02:07.625000,0.37
12:02:07.640625,0.30
12:02:07.656250,0.24
12:02:07.671875,0.21
12:02:07.687500,0.19
12:02:07.703125,0.18
12:02:07.718750,0.19
12:02:07.734375,0.20
12:02:07.750000,0.23
12:02:07.765625,0.26
12:02:07.781250,0.29
12:02:07.796875,0.33
12:02:07.812500,0.37
12:02:07.828125,0.41
12:02:07.843750,0.46
12:02:07.859375,0.50
12:02:07.875000,0.55
12:02:07.890625,0.60
12:02:07.906250,0.66
12:02:07.921875,0.71
12:02:07.937500,0.77
12:02:07.953125,0.84
12:02:07.968750,0.91
12:02:07.984375,0.99
12:02:08,1.08
12:02:08.015625,1.17
12:02:08.031250,1.28
12:02:08.046875,1.40
12:02:08.062500,1.54
12:02:08.078125,1.69
12:02:08.093750,1.86
12:02:08.109375,2.05
12:02:08.125000,2.26
12:02:08.140625,2.50
12:02:08.156250,2.76
12:02:08.171875,3.04
12:02:08.187500,3.36
12:02:08.203125,3.70
12:02:08.218750,4.08
12:02:08.234375,4.49
12:02:08.250000,4.94
12:02:08.265625,5.42
12:02:08.281250,5.94
12:02:08.296875,6.50
12:02:08.312500,7.11
12:02:08.328125,7.75
12:02:08.343750,8.44
12:02:08.359375,9.17
12:02:08.375000,9.95
12:02:08.390625,10.78
12:02:08.406250,11.65
12:02:08.421875,12.57
12:02:08.437500,13.53
12:02:08.453125,14.55
12:02:08.468750,15.64
12:02:08.484375,16.79
12:02:08.500000,18.00
12:02:08.515625,19.27
12:02:08.531250,20.57
12:02:08.546875,21.85
12:02:08.562500,23.07
12:02:08.578125,24.12
12:02:08.593750,24.89
12:02:08.609375,25.27
12:02:08.625000,25.12
12:02:08.640625,24.35
12:02:08.656250,22.86
12:02:08.671875,20.63
12:02:08.687500,17.69
12:02:08.703125,14.12
12:02:08.718750,10.02
12:02:08.734375,5.58
12:02:08.750000,1.03
12:02:08.765625,-3.43
12:02:08.781250,-7.58
12:02:08.796875,-11.23
12:02:08.812500,-14.24
12:02:08.828125,-16.52
12:02:08.843750,-18.05
12:02:08.859375,-18.84
12:02:08.875000,-18.96
12:02:08.890625,-18.51
12:02:08.906250,-17.63
12:02:08.921875,-16.42
12:02:08.937500,-15.01
12:02:08.953125,-13.48
12:02:08.968750,-11.91
12:02:08.984375,-10.31
12:02:09,-8.71
12:02:09.015625,-7.08
12:02:09.031250,-5.44
12:02:09.046875,-3.77
12:02:09.062500,-2.08
12:02:09.078125,-0.35
12:02:09.093750,1.41
12:02:09.109375,3.20
12:02:09.125000,5.03
12:02:09.140625,6.94
12:02:09.156250,9.01
12:02:09.171875,11.19
12:02:09.187500,13.51
12:02:09.203125,15.96
12:02:09.218750,18.59
12:02:09.234375,21.37
12:02:09.250000,24.31
12:02:09.265625,27.40
12:02:09.281250,30.71
12:02:09.296875,34.35
12:02:09.312500,38.19
12:02:09.328125,42.18
12:02:09.343750,46.30
12:02:09.359375,50.57
12:02:09.375000,54.95
12:02:09.390625,59.41
12:02:09.406250,63.98
12:02:09.421875,68.74
12:02:09.437500,73.99
12:02:09.453125,79.50
12:02:09.468750,85.27
12:02:09.484375,91.29
12:02:09.500000,97.48
12:02:09.515625,103.68
12:02:09.531250,109.65
12:02:09.546875,115.22
12:02:09.562500,120.36
12:02:09.578125,125.30
12:02:09.593750,129.76
12:02:09.609375,133.71
12:02:09.625000,137.04
12:02:09.640625,139.43
12:02:09.656250,140.21
12:02:09.671875,138.37
12:02:09.687500,132.58
12:02:09.703125,121.04
12:02:09.718750,106.67
12:02:09.734375,90.61
12:02:09.750000,73.84
12:02:09.765625,57.06
12:02:09.781250,40.56
12:02:09.796875,24.17
12:02:09.812500,7.43
12:02:09.828125,-10.06
12:02:09.843750,-28.34
12:02:09.859375,-46.84
12:02:09.875000,-65.27
12:02:09.890625,-83.02
12:02:09.906250,-99.64
12:02:09.921875,-115.07
12:02:09.937500,-129.76
12:02:09.953125,-144.46
12:02:09.968750,-160.08
12:02:09.984375,-177.49
12:02:10,-197.30
12:02:10.015625,-220.15
12:02:10.031250,-245.44
12:02:10.046875,-271.11
12:02:10.062500,-293.75
12:02:10.078125,-309.41
12:02:10.093750,-314.93
12:02:10.109375,-309.14
12:02:10.125000,-293.38
12:02:10.140625,-270.88
12:02:10.156250,-245.80
12:02:10.171875,-221.33
12:02:10.187500,-198.95
12:02:10.203125,-178.53
12:02:10.218750,-159.22
12:02:10.234375,-140.28
12:02:10.250000,-121.60
12:02:10.265625,-103.51
12:02:10.281250,-86.35
12:02:10.296875,-70.19
12:02:10.312500,-54.69
12:02:10.328125,-39.39
12:02:10.343750,-24.17
12:02:10.359375,-9.44
12:02:10.375000,3.88
12:02:10.390625,14.79
12:02:10.406250,22.61
12:02:10.421875,27.34
12:02:10.437500,29.62
12:02:10.453125,30.50
12:02:10.468750,31.05
12:02:10.484375,31.87
12:02:10.500000,33.03
12:02:10.515625,34.10
12:02:10.531250,34.59
12:02:10.546875,34.21
12:02:10.562500,33.04
12:02:10.578125,31.49
12:02:10.593750,30.07
12:02:10.609375,29.13
12:02:10.625000,28.65
12:02:10.640625,28.28
12:02:10.656250,27.53
12:02:10.671875,25.96
12:02:10.687500,23.41
12:02:10.703125,19.97
12:02:10.718750,15.94
12:02:10.734375,11.57
12:02:10.750000,7.00
12:02:10.765625,2.12
12:02:10.781250,-3.21
12:02:10.796875,-8.95
12:02:10.812500,-14.69
12:02:10.828125,-19.66
12:02:10.843750,-22.97
12:02:10.859375,-23.99
12:02:10.875000,-22.56
12:02:10.890625,-19.06
12:02:10.906250,-14.19
12:02:10.921875,-8.56
12:02:10.937500,-2.54
12:02:10.953125,3.79
12:02:10.968750,10.48
12:02:10.984375,17.40
12:02:11,24.11
12:02:11.015625,29.93
12:02:11.031250,34.12
12:02:11.046875,36.25
12:02:11.062500,36.28
12:02:11.078125,34.59
12:02:11.093750,31.81
12:02:11.109375,28.59
12:02:11.125000,25.40
12:02:11.140625,22.47
12:02:11.156250,19.89
12:02:11.171875,17.67
12:02:11.187500,15.84
12:02:11.203125,14.44
12:02:11.218750,13.44
12:02:11.234375,12.63
12:02:11.250000,11.63
12:02:11.265625,10.03
12:02:11.281250,7.55
12:02:11.296875,4.30
12:02:11.312500,0.69
12:02:11.328125,-2.64
12:02:11.343750,-5.14
12:02:11.359375,-6.58
12:02:11.375000,-7.21
12:02:11.390625,-7.63
12:02:11.406250,-8.64
12:02:11.421875,-10.95
12:02:11.437500,-14.85
12:02:11.453125,-20.18
12:02:11.468750,-26.27
12:02:11.484375,-32.14
12:02:11.500000,-36.67
12:02:11.515625,-38.90
12:02:11.531250,-38.20
12:02:11.546875,-34.38
12:02:11.562500,-27.70
12:02:11.578125,-18.82
12:02:11.593750,-8.57
12:02:11.609375,2.13
12:02:11.625000,12.39
12:02:11.640625,21.49
12:02:11.656250,28.89
12:02:11.671875,34.32
12:02:11.687500,37.79
12:02:11.703125,39.51
12:02:11.718750,39.87
12:02:11.734375,39.31
12:02:11.750000,38.16
12:02:11.765625,36.66
12:02:11.781250,34.87
12:02:11.796875,32.83
12:02:11.812500,30.59
12:02:11.828125,28.25
12:02:11.843750,26.00
12:02:11.859375,23.98
12:02:11.875000,22.18
12:02:11.890625,20.46
12:02:11.906250,18.55
12:02:11.921875,16.20
12:02:11.937500,13.23
12:02:11.953125,9.65
12:02:11.968750,5.56
12:02:11.984375,1.12
12:02:12,-3.56
12:02:12.015625,-8.55
12:02:12.031250,-14.01
12:02:12.046875,-20.18
12:02:12.062500,-27.24
12:02:12.078125,-35.04
12:02:12.093750,-43.06
12:02:12.109375,-50.42
12:02:12.125000,-56.04
12:02:12.140625,-58.96
12:02:12.156250,-58.69
12:02:12.171875,-55.32
12:02:12.187500,-49.36
12:02:12.203125,-41.54
12:02:12.218750,-32.49
12:02:12.234375,-22.59
12:02:12.250000,-12.14
12:02:12.265625,-1.57
12:02:12.281250,8.31
12:02:12.296875,16.49
12:02:12.312500,21.97
12:02:12.328125,24.24
12:02:12.343750,23.56
12:02:12.359375,20.80
12:02:12.375000,17.14
12:02:12.390625,13.56
12:02:12.406250,10.48
12:02:12.421875,7.72
12:02:12.437500,4.68
12:02:12.453125,0.79
12:02:12.468750,-4.35
12:02:12.484375,-10.87
12:02:12.500000,-18.73
12:02:12.515625,-27.75
12:02:12.531250,-37.51
12:02:12.546875,-47.28
12:02:12.562500,-55.95
12:02:12.578125,-62.32
12:02:12.593750,-65.73
12:02:12.609375,-66.63
12:02:12.625000,-66.87
12:02:12.640625,-69.26
12:02:12.656250,-76.48
12:02:12.671875,-89.87
12:02:12.687500,-108.72
12:02:12.703125,-130.37
12:02:12.718750,-151.23
12:02:12.734375,-167.97
12:02:12.750000,-178.57
12:02:12.765625,-182.39
12:02:12.781250,-179.80
12:02:12.796875,-171.39
12:02:12.812500,-157.67
12:02:12.828125,-139.26
12:02:12.843750,-117.22
12:02:12.859375,-93.39
12:02:12.875000,-69.92
12:02:12.890625,-48.54
12:02:12.906250,-29.72
12:02:12.921875,-12.36
12:02:12.937500,5.66
12:02:12.953125,26.52
12:02:12.968750,51.29
12:02:12.984375,79.40
12:02:13,108.80
12:02:13.015625,136.62
12:02:13.031250,160.14
12:02:13.046875,177.50
12:02:13.062500,187.99
12:02:13.078125,191.85
12:02:13.093750,189.97
12:02:13.109375,183.50
12:02:13.125000,173.68
12:02:13.140625,161.64
12:02:13.156250,148.36
12:02:13.171875,134.60
12:02:13.187500,120.86
12:02:13.203125,107.32
12:02:13.218750,93.85
12:02:13.234375,80.08
12:02:13.250000,65.55
12:02:13.265625,49.89
12:02:13.281250,33.04
12:02:13.296875,15.47
12:02:13.312500,-1.81
12:02:13.328125,-17.23
12:02:13.343750,-28.94
12:02:13.359375,-35.18
12:02:13.375000,-34.74
12:02:13.390625,-27.32
12:02:13.406250,-13.79
12:02:13.421875,3.99
12:02:13.437500,23.60
12:02:13.453125,42.73
12:02:13.468750,59.71
12:02:13.484375,73.83
12:02:13.500000,85.31
12:02:13.515625,94.89
12:02:13.531250,103.39
12:02:13.546875,111.35
12:02:13.562500,118.92
12:02:13.578125,125.92
12:02:13.593750,132.01
12:02:13.609375,136.84
12:02:13.625000,139.93
12:02:13.640625,140.68
12:02:13.656250,138.45
12:02:13.671875,132.87
12:02:13.687500,124.31
12:02:13.703125,114.05
12:02:13.718750,103.99
12:02:13.734375,95.96
12:02:13.750000,90.93
12:02:13.765625,88.52
12:02:13.781250,87.23
12:02:13.796875,85.16
12:02:13.812500,81.05
12:02:13.828125,74.82
12:02:13.843750,67.52
12:02:13.859375,60.62
12:02:13.875000,55.16
12:02:13.890625,51.16
12:02:13.906250,47.77
12:02:13.921875,43.97
12:02:13.937500,39.12
12:02:13.953125,33.28
12:02:13.968750,26.97
12:02:13.984375,20.70
12:02:14,14.73
12:02:14.015625,9.17
12:02:14.031250,4.20
12:02:14.046875,0.40
12:02:14.062500,-1.49
12:02:14.078125,-0.95
12:02:14.093750,1.86
12:02:14.109375,5.94
12:02:14.125000,9.74
12:02:14.140625,11.81
12:02:14.156250,11.25
12:02:14.171875,7.98
12:02:14.187500,2.52
12:02:14.203125,-4.30
12:02:14.218750,-11.60
12:02:14.234375,-18.54
12:02:14.250000,-24.34
12:02:14.265625,-28.38
12:02:14.281250,-30.39
12:02:14.296875,-30.53
12:02:14.312500,-29.35
12:02:14.328125,-27.54
12:02:14.343750,-25.66
12:02:14.359375,-23.98
12:02:14.375000,-22.52
12:02:14.390625,-21.18
12:02:14.406250,-20.03
12:02:14.421875,-19.25
12:02:14.437500,-19.12
12:02:14.453125,-19.79
12:02:14.468750,-21.20
12:02:14.484375,-23.10
12:02:14.500000,-25.16
12:02:14.515625,-27.09
12:02:14.531250,-28.77
12:02:14.546875,-30.20
12:02:14.562500,-31.42
12:02:14.578125,-32.39
12:02:14.593750,-33.04
12:02:14.609375,-33.23
12:02:14.625000,-32.86
12:02:14.640625,-31.86
12:02:14.656250,-30.21
12:02:14.671875,-27.97
12:02:14.687500,-25.25
12:02:14.703125,-22.17
12:02:14.718750,-18.89
12:02:14.734375,-15.52
12:02:14.750000,-12.02
12:02:14.765625,-8.18
12:02:14.781250,-3.68
12:02:14.796875,1.83
12:02:14.812500,8.43
12:02:14.828125,15.90
12:02:14.843750,23.72
12:02:14.859375,31.25
12:02:14.875000,37.93
12:02:14.890625,43.49
12:02:14.906250,47.89
12:02:14.921875,51.19
12:02:14.937500,53.38
12:02:14.953125,54.24
12:02:14.968750,53.36
12:02:14.984375,50.32
12:02:15,44.85
12:02:15.015625,37.02
12:02:15.031250,27.34
12:02:15.046875,16.72
12:02:15.062500,6.32
12:02:15.078125,-2.78
12:02:15.093750,-9.83
12:02:15.109375,-14.60
12:02:15.125000,-17.34
12:02:15.140625,-18.64
12:02:15.156250,-19.12
12:02:15.171875,-19.17
12:02:15.187500,-18.93
12:02:15.203125,-18.34
12:02:15.218750,-17.39
12:02:15.234375,-16.16
12:02:15.250000,-14.93
12:02:15.265625,-14.04
12:02:15.281250,-13.83
12:02:15.296875,-14.48
12:02:15.312500,-16.07
12:02:15.328125,-18.55
12:02:15.343750,-21.86
12:02:15.359375,-25.97
12:02:15.375000,-30.90
12:02:15.390625,-36.78
12:02:15.406250,-43.59
12:02:15.421875,-50.97
12:02:15.437500,-58.09
12:02:15.453125,-63.72
12:02:15.468750,-66.60
12:02:15.484375,-65.85
12:02:15.500000,-61.38
12:02:15.515625,-53.93
12:02:15.531250,-44.76
12:02:15.546875,-35.19
12:02:15.562500,-26.13
12:02:15.578125,-17.94
12:02:15.593750,-10.52
12:02:15.609375,-3.66
12:02:15.625000,2.65
12:02:15.640625,8.09
12:02:15.656250,12.09
12:02:15.671875,14.13
12:02:15.687500,14.12
12:02:15.703125,12.48
12:02:15.718750,10.04
12:02:15.734375,7.73
12:02:15.750000,6.18
12:02:15.765625,5.54
12:02:15.781250,5.55
12:02:15.796875,5.79
12:02:15.812500,5.95
12:02:15.828125,6.05
12:02:15.843750,6.26
12:02:15.859375,6.75
12:02:15.875000,7.44
12:02:15.890625,8.06
12:02:15.906250,8.24
12:02:15.921875,7.70
12:02:15.937500,6.38
12:02:15.953125,4.46
12:02:15.968750,2.23
12:02:15.984375,-0.03
12:02:16,-2.12
12:02:16.015625,-4.03
12:02:16.031250,-5.89
12:02:16.046875,-7.97
12:02:16.062500,-10.53
12:02:16.078125,-13.76
12:02:16.093750,-17.65
12:02:16.109375,-22.05
12:02:16.125000,-26.68
12:02:16.140625,-31.19
12:02:16.156250,-35.21
12:02:16.171875,-38.30
12:02:16.187500,-39.95
12:02:16.203125,-39.62
12:02:16.218750,-36.92
12:02:16.234375,-31.75
12:02:16.250000,-24.37
12:02:16.265625,-15.35
12:02:16.281250,-5.41
12:02:16.296875,4.82
12:02:16.312500,14.90
12:02:16.328125,24.58
12:02:16.343750,33.66
12:02:16.359375,41.89
12:02:16.375000,48.91
12:02:16.390625,54.34
12:02:16.406250,57.87
12:02:16.421875,59.45
12:02:16.437500,59.29
12:02:16.453125,57.83
12:02:16.468750,55.62
12:02:16.484375,53.11
12:02:16.500000,50.66
12:02:16.515625,48.46
12:02:16.531250,46.60
12:02:16.546875,45.05
12:02:16.562500,43.79
12:02:16.578125,42.66
12:02:16.593750,41.46
12:02:16.609375,39.96
12:02:16.625000,37.96
12:02:16.640625,35.40
12:02:16.656250,32.34
12:02:16.671875,28.96
12:02:16.687500,25.49
12:02:16.703125,22.09
12:02:16.718750,18.89
12:02:16.734375,15.91
12:02:16.750000,13.11
12:02:16.765625,10.35
12:02:16.781250,7.40
12:02:16.796875,4.00
12:02:16.812500,-0.15
12:02:16.828125,-5.23
12:02:16.843750,-11.25
12:02:16.859375,-18.08
12:02:16.875000,-25.47
12:02:16.890625,-33.20
12:02:16.906250,-41.05
12:02:16.921875,-48.72
12:02:16.937500,-55.75
12:02:16.953125,-61.48
12:02:16.968750,-65.11
12:02:16.984375,-65.91
12:02:17,-63.52
12:02:17.015625,-58.08
12:02:17.031250,-50.25
12:02:17.046875,-41.05
12:02:17.062500,-31.49
12:02:17.078125,-22.36
12:02:17.093750,-14.05
12:02:17.109375,-6.67
12:02:17.125000,-0.16
12:02:17.140625,5.50
12:02:17.156250,10.26
12:02:17.171875,13.99
12:02:17.187500,16.61
12:02:17.203125,18.21
12:02:17.218750,19.06
12:02:17.234375,19.59
12:02:17.250000,20.24
12:02:17.265625,21.37
12:02:17.281250,23.07
12:02:17.296875,25.27
12:02:17.312500,27.67
12:02:17.328125,29.92
12:02:17.343750,31.72
12:02:17.359375,32.90
12:02:17.375000,33.42
12:02:17.390625,33.29
12:02:17.406250,32.49
12:02:17.421875,30.87
12:02:17.437500,28.26
12:02:17.453125,24.55
12:02:17.468750,19.81
12:02:17.484375,14.32
12:02:17.500000,8.46
12:02:17.515625,2.63
12:02:17.531250,-2.91
12:02:17.546875,-8.05
12:02:17.562500,-12.76
12:02:17.578125,-17.03
12:02:17.593750,-20.81
12:02:17.609375,-24.06
12:02:17.625000,-26.82
12:02:17.640625,-29.32
12:02:17.656250,-31.91
12:02:17.671875,-35.02
12:02:17.687500,-39.03
12:02:17.703125,-44.02
12:02:17.718750,-49.71
12:02:17.734375,-55.48
12:02:17.750000,-60.43
12:02:17.765625,-63.64
12:02:17.781250,-64.47
12:02:17.796875,-62.69
12:02:17.812500,-58.54
12:02:17.828125,-52.61
12:02:17.843750,-45.55
12:02:17.859375,-37.92
12:02:17.875000,-30.10
12:02:17.890625,-22.32
12:02:17.906250,-14.78
12:02:17.921875,-7.81
12:02:17.937500,-1.82
12:02:17.953125,2.76
12:02:17.968750,5.76
12:02:17.984375,7.30
12:02:18,7.76
12:02:18.015625,7.68
12:02:18.031250,7.52
12:02:18.046875,7.53
12:02:18.062500,7.68
12:02:18.078125,7.86
12:02:18.093750,7.94
12:02:18.109375,7.93
12:02:18.125000,8.00
12:02:18.140625,8.30
12:02:18.156250,8.86
12:02:18.171875,9.47
12:02:18.187500,9.81
12:02:18.203125,9.50
12:02:18.218750,8.36
12:02:18.234375,6.47
12:02:18.250000,4.08
12:02:18.265625,1.53
12:02:18.281250,-0.95
12:02:18.296875,-3.32
12:02:18.312500,-5.70
12:02:18.328125,-8.23
12:02:18.343750,-10.97
12:02:18.359375,-13.84
12:02:18.375000,-16.73
12:02:18.390625,-19.63
12:02:18.406250,-22.60
12:02:18.421875,-25.86
12:02:18.437500,-29.56
12:02:18.453125,-33.79
12:02:18.468750,-38.48
12:02:18.484375,-43.55
12:02:18.500000,-48.85
12:02:18.515625,-54.18
12:02:18.531250,-59.25
12:02:18.546875,-63.55
12:02:18.562500,-66.44
12:02:18.578125,-67.22
12:02:18.593750,-65.43
12:02:18.609375,-60.98
12:02:18.625000,-54.26
12:02:18.640625,-46.00
12:02:18.656250,-37.07
12:02:18.671875,-28.30
12:02:18.687500,-20.19
12:02:18.703125,-13.02
12:02:18.718750,-6.82
12:02:18.734375,-1.57
12:02:18.750000,2.70
12:02:18.765625,5.99
12:02:18.781250,8.32
12:02:18.796875,9.92
12:02:18.812500,11.25
12:02:18.828125,12.89
12:02:18.843750,15.30
12:02:18.859375,18.60
12:02:18.875000,22.47
12:02:18.890625,26.26
12:02:18.906250,29.25
12:02:18.921875,30.93
12:02:18.937500,31.19
12:02:18.953125,30.27
12:02:18.968750,28.62
12:02:18.984375,26.66
12:02:19,24.62
12:02:19.015625,22.65
12:02:19.031250,20.78
12:02:19.046875,19.10
12:02:19.062500,17.71
12:02:19.078125,16.63
12:02:19.093750,15.75
12:02:19.109375,14.76
12:02:19.125000,13.32
12:02:19.140625,11.17
12:02:19.156250,8.27
12:02:19.171875,4.82
12:02:19.187500,1.22
12:02:19.203125,-2.19
12:02:19.218750,-5.28
12:02:19.234375,-8.19
12:02:19.250000,-11.25
12:02:19.265625,-14.70
12:02:19.281250,-18.50
12:02:19.296875,-22.13
12:02:19.312500,-24.77
12:02:19.328125,-25.52
12:02:19.343750,-23.72
12:02:19.359375,-19.18
12:02:19.375000,-12.26
12:02:19.390625,-3.67
12:02:19.406250,5.65
12:02:19.421875,14.85
12:02:19.437500,23.32
12:02:19.453125,30.73
12:02:19.468750,37.09
12:02:19.484375,42.56
12:02:19.500000,47.25
12:02:19.515625,51.14
12:02:19.531250,53.93
12:02:19.546875,55.22
12:02:19.562500,54.69
12:02:19.578125,52.31
12:02:19.593750,48.36
12:02:19.609375,43.26
12:02:19.625000,37.48
12:02:19.640625,31.25
12:02:19.656250,24.67
12:02:19.671875,17.88
12:02:19.687500,11.17
12:02:19.703125,4.99
12:02:19.718750,-0.17
12:02:19.734375,-4.01
12:02:19.750000,-6.60
12:02:19.765625,-8.30
12:02:19.781250,-9.58
12:02:19.796875,-10.84
12:02:19.812500,-12.24
12:02:19.828125,-13.72
12:02:19.843750,-15.09
12:02:19.859375,-16.27
12:02:19.875000,-17.37
12:02:19.890625,-18.62
12:02:19.906250,-20.32
12:02:19.921875,-22.64
12:02:19.937500,-25.55
12:02:19.953125,-28.90
12:02:19.968750,-32.57
12:02:19.984375,-36.55
12:02:20,-40.93
12:02:20.015625,-45.79
12:02:20.031250,-50.91
12:02:20.046875,-55.71
12:02:20.062500,-59.33
12:02:20.078125,-60.88
12:02:20.093750,-59.79
12:02:20.109375,-56.00
12:02:20.125000,-49.97
12:02:20.140625,-42.41
12:02:20.156250,-34.10
12:02:20.171875,-25.63
12:02:20.187500,-17.34
12:02:20.203125,-9.43
12:02:20.218750,-2.07
12:02:20.234375,4.54
12:02:20.250000,10.15
12:02:20.265625,14.51
12:02:20.281250,17.50
12:02:20.296875,19.15
12:02:20.312500,19.79
12:02:20.328125,19.85
12:02:20.343750,19.82
12:02:20.359375,19.99
12:02:20.375000,20.41
12:02:20.390625,20.87
12:02:20.406250,21.05
12:02:20.421875,20.73
12:02:20.437500,19.81
12:02:20.453125,18.43
12:02:20.468750,16.81
12:02:20.484375,15.16
12:02:20.500000,13.59
12:02:20.515625,12.15
12:02:20.531250,10.73
12:02:20.546875,9.19
12:02:20.562500,7.36
12:02:20.578125,5.13
12:02:20.593750,2.45
12:02:20.609375,-0.64
12:02:20.625000,-3.99
12:02:20.640625,-7.40
12:02:20.656250,-10.72
12:02:20.671875,-13.89
12:02:20.687500,-17.01
12:02:20.703125,-20.22
12:02:20.718750,-23.74
12:02:20.734375,-27.70
12:02:20.750000,-32.20
12:02:20.765625,-37.16
12:02:20.781250,-42.33
12:02:20.796875,-47.26
12:02:20.812500,-51.31
12:02:20.828125,-53.67
12:02:20.843750,-53.58
12:02:20.859375,-50.60
12:02:20.875000,-44.77
12:02:20.890625,-36.59
12:02:20.906250,-26.99
12:02:20.921875,-16.91
12:02:20.937500,-7.04
12:02:20.953125,2.39
12:02:20.968750,11.56
12:02:20.984375,20.72
12:02:21,29.91
12:02:21.015625,38.75
12:02:21.031250,46.50
12:02:21.046875,52.37
12:02:21.062500,55.91
12:02:21.078125,57.25
12:02:21.093750,57.05
12:02:21.109375,56.23
12:02:21.125000,55.50
12:02:21.140625,55.18
12:02:21.156250,55.17
12:02:21.171875,55.18
12:02:21.187500,54.90
12:02:21.203125,54.19
12:02:21.218750,52.94
12:02:21.234375,50.97
12:02:21.250000,47.99
12:02:21.265625,43.72
12:02:21.281250,38.05
12:02:21.296875,31.17
12:02:21.312500,23.52
12:02:21.328125,15.63
12:02:21.343750,7.97
12:02:21.359375,0.77
12:02:21.375000,-5.82
12:02:21.390625,-11.66
12:02:21.406250,-16.51
12:02:21.421875,-20.09
12:02:21.437500,-22.28
12:02:21.453125,-23.32
12:02:21.468750,-23.86
12:02:21.484375,-24.83
12:02:21.500000,-27.14
12:02:21.515625,-31.34
12:02:21.531250,-37.39
12:02:21.546875,-44.58
12:02:21.562500,-51.77
12:02:21.578125,-57.60
12:02:21.593750,-60.96
12:02:21.609375,-61.17
12:02:21.625000,-58.13
12:02:21.640625,-52.29
12:02:21.656250,-44.41
12:02:21.671875,-35.39
12:02:21.687500,-26.03
12:02:21.703125,-17.00
12:02:21.718750,-8.76
12:02:21.734375,-1.64
12:02:21.750000,4.16
12:02:21.765625,8.57
12:02:21.781250,11.68
12:02:21.796875,13.67
12:02:21.812500,14.78
12:02:21.828125,15.24
12:02:21.843750,15.17
12:02:21.859375,14.64
12:02:21.875000,13.63
12:02:21.890625,12.18
12:02:21.906250,10.32
12:02:21.921875,8.17
12:02:21.937500,5.85
12:02:21.953125,3.54
12:02:21.968750,1.49
12:02:21.984375,-0.08
12:02:22,-1.05
12:02:22.015625,-1.46
12:02:22.031250,-1.57
12:02:22.046875,-1.79
12:02:22.062500,-2.55
12:02:22.078125,-4.12
12:02:22.093750,-6.57
12:02:22.109375,-9.73
12:02:22.125000,-13.41
12:02:22.140625,-17.41
12:02:22.156250,-21.60
12:02:22.171875,-25.90
12:02:22.187500,-30.15
12:02:22.203125,-34.10
12:02:22.218750,-37.41
12:02:22.234375,-39.76
12:02:22.250000,-41.01
12:02:22.265625,-41.18
12:02:22.281250,-40.46
12:02:22.296875,-39.02
12:02:22.312500,-36.83
12:02:22.328125,-33.60
12:02:22.343750,-28.88
12:02:22.359375,-22.26
12:02:22.375000,-13.71
12:02:22.390625,-3.67
12:02:22.406250,7.00
12:02:22.421875,17.30
12:02:22.437500,26.40
12:02:22.453125,33.79
12:02:22.468750,39.38
12:02:22.484375,43.36
12:02:22.500000,45.93
12:02:22.515625,47.25
12:02:22.531250,47.43
12:02:22.546875,46.51
12:02:22.562500,44.66
12:02:22.578125,42.21
12:02:22.593750,39.63
12:02:22.609375,37.38
12:02:22.625000,35.79
12:02:22.640625,34.91
12:02:22.656250,34.51
12:02:22.671875,34.14
12:02:22.687500,33.41
12:02:22.703125,32.11
12:02:22.718750,30.35
12:02:22.734375,28.45
12:02:22.750000,26.71
12:02:22.765625,25.30
12:02:22.781250,24.07
12:02:22.796875,22.70
12:02:22.812500,20.84
12:02:22.828125,18.23
12:02:22.843750,14.82
12:02:22.859375,10.71
12:02:22.875000,6.07
12:02:22.890625,1.10
12:02:22.906250,-3.99
12:02:22.921875,-9.06
12:02:22.937500,-13.98
12:02:22.953125,-18.68
12:02:22.968750,-23.17
12:02:22.984375,-27.49
12:02:23,-31.69
12:02:23.015625,-35.84
12:02:23.031250,-39.91
12:02:23.046875,-43.75
12:02:23.062500,-47.03
12:02:23.078125,-49.22
12:02:23.093750,-49.72
12:02:23.109375,-47.91
12:02:23.125000,-43.40
12:02:23.140625,-36.24
12:02:23.156250,-26.95
12:02:23.171875,-16.43
12:02:23.187500,-5.73
12:02:23.203125,4.28
12:02:23.218750,13.10
12:02:23.234375,20.63
12:02:23.250000,26.93
12:02:23.265625,31.94
12:02:23.281250,35.44
12:02:23.296875,37.02
12:02:23.312500,36.46
12:02:23.328125,33.89
12:02:23.343750,29.98
12:02:23.359375,25.77
12:02:23.375000,22.21
12:02:23.390625,19.92
12:02:23.406250,18.93
12:02:23.421875,18.85
12:02:23.437500,19.12
12:02:23.453125,19.36
12:02:23.468750,19.46
12:02:23.484375,19.46
12:02:23.500000,19.40
12:02:23.515625,19.13
12:02:23.531250,18.35
12:02:23.546875,16.79
12:02:23.562500,14.31
12:02:23.578125,11.15
12:02:23.593750,7.65
12:02:23.609375,4.14
12:02:23.625000,0.73
12:02:23.640625,-2.84
12:02:23.656250,-7.00
12:02:23.671875,-12.18
12:02:23.687500,-18.57
12:02:23.703125,-26.05
12:02:23.718750,-34.20
12:02:23.734375,-42.52
12:02:23.750000,-50.48
12:02:23.765625,-57.61
12:02:23.781250,-63.37
12:02:23.796875,-67.18
12:02:23.812500,-68.39
12:02:23.828125,-66.46
12:02:23.843750,-61.24
12:02:23.859375,-53.06
12:02:23.875000,-42.80
12:02:23.890625,-31.62
12:02:23.906250,-20.69
12:02:23.921875,-10.83
12:02:23.937500,-2.38
12:02:23.953125,4.71
12:02:23.968750,10.74
12:02:23.984375,15.95
12:02:24,20.41
12:02:24.015625,23.95
12:02:24.031250,26.41
12:02:24.046875,27.77
12:02:24.062500,28.23
12:02:24.078125,28.17
12:02:24.093750,27.96
12:02:24.109375,27.75
12:02:24.125000,27.45
12:02:24.140625,26.79
12:02:24.156250,25.66
12:02:24.171875,24.19
12:02:24.187500,22.77
12:02:24.203125,21.86
12:02:24.218750,21.69
12:02:24.234375,22.09
12:02:24.250000,22.60
12:02:24.265625,22.57
12:02:24.281250,21.55
12:02:24.296875,19.36
12:02:24.312500,16.21
12:02:24.328125,12.49
12:02:24.343750,8.66
12:02:24.359375,5.03
12:02:24.375000,1.74
12:02:24.390625,-1.29
12:02:24.406250,-4.29
12:02:24.421875,-7.54
12:02:24.437500,-11.30
12:02:24.453125,-15.69
12:02:24.468750,-20.63
12:02:24.484375,-25.84
12:02:24.500000,-30.87
12:02:24.515625,-35.14
12:02:24.531250,-38.12
12:02:24.546875,-39.36
12:02:24.562500,-38.61
12:02:24.578125,-35.83
12:02:24.593750,-31.21
12:02:24.609375,-25.12
12:02:24.625000,-18.01
12:02:24.640625,-10.30
12:02:24.656250,-2.31
12:02:24.671875,5.72
12:02:24.687500,13.55
12:02:24.703125,20.94
12:02:24.718750,27.52
12:02:24.734375,32.94
12:02:24.750000,36.90
12:02:24.765625,39.41
12:02:24.781250,40.68
12:02:24.796875,41.16
12:02:24.812500,41.27
12:02:24.828125,41.25
12:02:24.843750,41.12
12:02:24.859375,40.72
12:02:24.875000,39.93
12:02:24.890625,38.73
12:02:24.906250,37.27
12:02:24.921875,35.72
12:02:24.937500,34.25
12:02:24.953125,32.83
12:02:24.968750,31.32
12:02:24.984375,29.50
12:02:25,27.18
12:02:25.015625,24.31
12:02:25.031250,20.90
12:02:25.046875,17.04
12:02:25.062500,12.87
12:02:25.078125,8.54
12:02:25.093750,4.24
12:02:25.109375,0.09
12:02:25.125000,-3.83
12:02:25.140625,-7.55
12:02:25.156250,-11.23
12:02:25.171875,-15.08
12:02:25.187500,-19.36
12:02:25.203125,-24.24
12:02:25.218750,-29.72
12:02:25.234375,-35.52
12:02:25.250000,-41.22
12:02:25.265625,-46.16
12:02:25.281250,-49.70
12:02:25.296875,-51.37
12:02:25.312500,-50.92
12:02:25.328125,-48.49
12:02:25.343750,-44.55
12:02:25.359375,-39.75
12:02:25.375000,-34.72
12:02:25.390625,-29.94
12:02:25.406250,-25.62
12:02:25.421875,-21.76
12:02:25.437500,-18.33
12:02:25.453125,-15.32
12:02:25.468750,-12.79
12:02:25.484375,-10.83
12:02:25.500000,-9.46
12:02:25.515625,-8.54
12:02:25.531250,-7.74
12:02:25.546875,-6.72
12:02:25.562500,-5.17
12:02:25.578125,-3.00
12:02:25.593750,-0.36
12:02:25.609375,2.45
12:02:25.625000,5.06
12:02:25.640625,7.15
12:02:25.656250,8.56
12:02:25.671875,9.26
12:02:25.687500,9.32
12:02:25.703125,8.90
12:02:25.718750,8.17
12:02:25.734375,7.23
12:02:25.750000,6.14
12:02:25.765625,4.87
12:02:25.781250,3.36
12:02:25.796875,1.59
12:02:25.812500,-0.41
12:02:25.828125,-2.52
12:02:25.843750,-4.62
12:02:25.859375,-6.63
12:02:25.875000,-8.56
12:02:25.890625,-10.56
12:02:25.906250,-12.82
12:02:25.921875,-15.53
12:02:25.937500,-18.78
12:02:25.953125,-22.54
12:02:25.968750,-26.68
12:02:25.984375,-30.94
12:02:26,-34.95
12:02:26.015625,-38.25
12:02:26.031250,-40.35
12:02:26.046875,-40.77
12:02:26.062500,-39.18
12:02:26.078125,-35.51
12:02:26.093750,-29.93
12:02:26.109375,-22.87
12:02:26.125000,-14.92
12:02:26.140625,-6.64
12:02:26.156250,1.50
12:02:26.171875,9.13
12:02:26.187500,16.00
12:02:26.203125,21.92
12:02:26.218750,26.75
12:02:26.234375,30.36
12:02:26.250000,32.74
12:02:26.265625,34.02
12:02:26.281250,34.49
12:02:26.296875,34.51
12:02:26.312500,34.43
12:02:26.328125,34.49
12:02:26.343750,34.74
12:02:26.359375,35.05
12:02:26.375000,35.21
12:02:26.390625,35.05
12:02:26.406250,34.49
12:02:26.421875,33.53
12:02:26.437500,32.24
12:02:26.453125,30.72
12:02:26.468750,28.97
12:02:26.484375,26.89
12:02:26.500000,24.39
12:02:26.515625,21.34
12:02:26.531250,17.68
12:02:26.546875,13.50
12:02:26.562500,9.01
12:02:26.578125,4.44
12:02:26.593750,-0.12
12:02:26.609375,-4.69
12:02:26.625000,-9.52
12:02:26.640625,-14.82
12:02:26.656250,-20.75
12:02:26.671875,-27.25
12:02:26.687500,-34.14
12:02:26.703125,-41.16
12:02:26.718750,-48.04
12:02:26.734375,-54.46
12:02:26.750000,-59.95
12:02:26.765625,-63.93
12:02:26.781250,-65.83
12:02:26.796875,-65.24
12:02:26.812500,-62.14
12:02:26.828125,-56.96
12:02:26.843750,-50.40
12:02:26.859375,-43.16
12:02:26.875000,-35.75
12:02:26.890625,-28.38
12:02:26.906250,-21.10
12:02:26.921875,-13.96
12:02:26.937500,-7.18
12:02:26.953125,-1.07
12:02:26.968750,4.07
12:02:26.984375,8.15
12:02:27,11.33
12:02:27.015625,13.98
12:02:27.031250,16.50
12:02:27.046875,19.18
12:02:27.062500,22.06
12:02:27.078125,24.99
12:02:27.093750,27.71
12:02:27.109375,29.92
12:02:27.125000,31.41
12:02:27.140625,32.06
12:02:27.156250,31.91
12:02:27.171875,31.02
12:02:27.187500,29.52
12:02:27.203125,27.55
12:02:27.218750,25.22
12:02:27.234375,22.59
12:02:27.250000,19.64
12:02:27.265625,16.34
12:02:27.281250,12.65
12:02:27.296875,8.63
12:02:27.312500,4.38
12:02:27.328125,0.08
12:02:27.343750,-4.12
12:02:27.359375,-8.14
12:02:27.375000,-11.99
12:02:27.390625,-15.77
12:02:27.406250,-19.68
12:02:27.421875,-23.93
12:02:27.437500,-28.70
12:02:27.453125,-33.98
12:02:27.468750,-39.49
12:02:27.484375,-44.58
12:02:27.500000,-48.36
12:02:27.515625,-49.99
12:02:27.531250,-48.92
12:02:27.546875,-45.13
12:02:27.562500,-39.23
12:02:27.578125,-32.16
12:02:27.593750,-24.90
12:02:27.609375,-18.16
12:02:27.625000,-12.24
12:02:27.640625,-7.12
12:02:27.656250,-2.63
12:02:27.671875,1.38
12:02:27.687500,4.93
12:02:27.703125,8.04
12:02:27.718750,10.70
12:02:27.734375,12.95
12:02:27.750000,14.90
12:02:27.765625,16.62
12:02:27.781250,18.24
12:02:27.796875,19.77
12:02:27.812500,21.19
12:02:27.828125,22.40
12:02:27.843750,23.23
12:02:27.859375,23.55
12:02:27.875000,23.34
12:02:27.890625,22.76
12:02:27.906250,22.11
12:02:27.921875,21.72
12:02:27.937500,21.76
12:02:27.953125,22.17
12:02:27.968750,22.59
12:02:27.984375,22.56
12:02:28,21.76
12:02:28.015625,20.06
12:02:28.031250,17.67
12:02:28.046875,14.93
12:02:28.062500,12.17
12:02:28.078125,9.50
12:02:28.093750,6.81
12:02:28.109375,3.81
12:02:28.125000,0.23
12:02:28.140625,-4.12
12:02:28.156250,-9.20
12:02:28.171875,-14.79
12:02:28.187500,-20.64
12:02:28.203125,-26.37
12:02:28.218750,-31.55
12:02:28.234375,-35.70
12:02:28.250000,-38.28
12:02:28.265625,-38.81
12:02:28.281250,-37.04
12:02:28.296875,-33.09
12:02:28.312500,-27.36
12:02:28.328125,-20.47
12:02:28.343750,-13.03
12:02:28.359375,-5.46
12:02:28.375000,2.01
12:02:28.390625,9.33
12:02:28.406250,16.42
12:02:28.421875,23.05
12:02:28.437500,28.83
12:02:28.453125,33.31
12:02:28.468750,36.19
12:02:28.484375,37.41
12:02:28.500000,37.27
12:02:28.515625,36.27
12:02:28.531250,34.95
12:02:28.546875,33.77
12:02:28.562500,32.98
12:02:28.578125,32.62
12:02:28.593750,32.64
12:02:28.609375,32.94
12:02:28.625000,33.41
12:02:28.640625,33.96
12:02:28.656250,34.51
12:02:28.671875,35.07
12:02:28.687500,35.62
12:02:28.703125,36.14
12:02:28.718750,36.52
12:02:28.734375,36.53
12:02:28.750000,35.88
12:02:28.765625,34.33
12:02:28.781250,31.89
12:02:28.796875,28.74
12:02:28.812500,25.20
12:02:28.828125,21.53
12:02:28.843750,17.80
12:02:28.859375,13.90
12:02:28.875000,9.66
12:02:28.890625,4.99
12:02:28.906250,-0.03
12:02:28.921875,-5.23
12:02:28.937500,-10.48
12:02:28.953125,-15.69
12:02:28.968750,-20.80
12:02:28.984375,-25.59
12:02:29,-29.66
12:02:29.015625,-32.41
12:02:29.031250,-33.23
12:02:29.046875,-31.76
12:02:29.062500,-27.94
12:02:29.078125,-22.17
12:02:29.093750,-15.09
12:02:29.109375,-7.41
12:02:29.125000,0.27
12:02:29.140625,7.60
12:02:29.156250,14.41
12:02:29.171875,20.61
12:02:29.187500,26.06
12:02:29.203125,30.51
12:02:29.218750,33.72
12:02:29.234375,35.54
12:02:29.250000,36.11
12:02:29.265625,35.80
12:02:29.281250,35.15
12:02:29.296875,34.64
12:02:29.312500,34.48
12:02:29.328125,34.61
12:02:29.343750,34.71
12:02:29.359375,34.44
12:02:29.375000,33.59
12:02:29.390625,32.17
12:02:29.406250,30.37
12:02:29.421875,28.44
12:02:29.437500,26.55
12:02:29.453125,24.70
12:02:29.468750,22.74
12:02:29.484375,20.46
12:02:29.500000,17.67
12:02:29.515625,14.34
12:02:29.531250,10.60
12:02:29.546875,6.62
12:02:29.562500,2.58
12:02:29.578125,-1.41
12:02:29.593750,-5.32
12:02:29.609375,-9.14
12:02:29.625000,-12.95
12:02:29.640625,-16.82
12:02:29.656250,-20.88
12:02:29.671875,-25.28
12:02:29.687500,-29.96
12:02:29.703125,-34.62
12:02:29.718750,-38.63
12:02:29.734375,-41.18
12:02:29.750000,-41.54
12:02:29.765625,-39.31
12:02:29.781250,-34.60
12:02:29.796875,-27.88
12:02:29.812500,-19.90
12:02:29.828125,-11.35
12:02:29.843750,-2.81
12:02:29.859375,5.30
12:02:29.875000,12.61
12:02:29.890625,18.79
12:02:29.906250,23.65
12:02:29.921875,27.13
12:02:29.937500,29.40
12:02:29.953125,30.80
12:02:29.968750,31.75
12:02:29.984375,32.68
12:02:30,33.93
12:02:30.015625,35.64
12:02:30.031250,37.75
12:02:30.046875,40.06
12:02:30.062500,42.28
12:02:30.078125,44.28
12:02:30.093750,46.06
12:02:30.109375,47.72
12:02:30.125000,49.30
12:02:30.140625,50.54
12:02:30.156250,50.91
12:02:30.171875,49.79
12:02:30.187500,46.80
12:02:30.203125,42.01
12:02:30.218750,35.94
12:02:30.234375,29.29
12:02:30.250000,22.62
12:02:30.265625,16.23
12:02:30.281250,10.12
12:02:30.296875,4.19
12:02:30.312500,-1.61
12:02:30.328125,-7.29
12:02:30.343750,-12.93
12:02:30.359375,-18.78
12:02:30.375000,-25.17
12:02:30.390625,-32.30
12:02:30.406250,-39.97
12:02:30.421875,-47.51
12:02:30.437500,-53.85
12:02:30.453125,-57.93
12:02:30.468750,-59.06
12:02:30.484375,-57.17
12:02:30.500000,-52.80
12:02:30.515625,-46.82
12:02:30.531250,-40.16
12:02:30.546875,-33.51
12:02:30.562500,-27.26
12:02:30.578125,-21.55
12:02:30.593750,-16.41
12:02:30.609375,-11.85
12:02:30.625000,-7.94
12:02:30.640625,-4.74
12:02:30.656250,-2.30
12:02:30.671875,-0.56
12:02:30.687500,0.61
12:02:30.703125,1.41
12:02:30.718750,2.02
12:02:30.734375,2.60
12:02:30.750000,3.22
12:02:30.765625,3.86
12:02:30.781250,4.51
12:02:30.796875,5.12
12:02:30.812500,5.67
12:02:30.828125,6.19
12:02:30.843750,6.68
12:02:30.859375,7.11
12:02:30.875000,7.33
12:02:30.890625,7.13
12:02:30.906250,6.27
12:02:30.921875,4.59
12:02:30.937500,2.05
12:02:30.953125,-1.19
12:02:30.968750,-4.85
12:02:30.984375,-8.63
12:02:31,-12.30
12:02:31.015625,-15.80
12:02:31.031250,-19.22
12:02:31.046875,-22.80
12:02:31.062500,-26.71
12:02:31.078125,-31.16
12:02:31.093750,-36.17
12:02:31.109375,-41.60
12:02:31.125000,-47.16
12:02:31.140625,-52.27
12:02:31.156250,-56.24
12:02:31.171875,-58.32
12:02:31.187500,-57.93
12:02:31.203125,-54.81
12:02:31.218750,-49.19
12:02:31.234375,-41.64
12:02:31.250000,-32.96
12:02:31.265625,-23.96
12:02:31.281250,-15.29
12:02:31.296875,-7.37
12:02:31.312500,-0.49
12:02:31.328125,5.22
12:02:31.343750,9.69
12:02:31.359375,12.91
12:02:31.375000,14.95
12:02:31.390625,15.97
12:02:31.406250,16.25
12:02:31.421875,16.11
12:02:31.437500,15.88
12:02:31.453125,15.81
12:02:31.468750,16.07
12:02:31.484375,16.66
12:02:31.500000,17.44
12:02:31.515625,18.18
12:02:31.531250,18.73
12:02:31.546875,19.00
12:02:31.562500,19.10
12:02:31.578125,19.15
12:02:31.593750,19.26
12:02:31.609375,19.40
12:02:31.625000,19.39
12:02:31.640625,18.94
12:02:31.656250,17.82
12:02:31.671875,15.90
12:02:31.687500,13.30
12:02:31.703125,10.30
12:02:31.718750,7.25
12:02:31.734375,4.43
12:02:31.750000,1.87
12:02:31.765625,-0.64
12:02:31.781250,-3.50
12:02:31.796875,-7.17
12:02:31.812500,-11.89
12:02:31.828125,-17.66
12:02:31.843750,-24.17
12:02:31.859375,-30.88
12:02:31.875000,-37.13
12:02:31.890625,-42.26
12:02:31.906250,-45.66
12:02:31.921875,-46.90
12:02:31.937500,-45.78
12:02:31.953125,-42.42
12:02:31.968750,-37.29
12:02:31.984375,-31.04
12:02:32,-24.40
12:02:32.015625,-18.00
12:02:32.031250,-12.23
12:02:32.046875,-7.36
12:02:32.062500,-3.54
12:02:32.078125,-0.96
12:02:32.093750,0.26
12:02:32.109375,0.11
12:02:32.125000,-1.10
12:02:32.140625,-2.81
12:02:32.156250,-4.26
12:02:32.171875,-4.79
12:02:32.187500,-3.99
12:02:32.203125,-1.93
12:02:32.218750,1.05
12:02:32.234375,4.40
12:02:32.250000,7.63
12:02:32.265625,10.35
12:02:32.281250,12.35
12:02:32.296875,13.50
12:02:32.312500,13.75
12:02:32.328125,13.04
12:02:32.343750,11.41
12:02:32.359375,8.99
12:02:32.375000,6.07
12:02:32.390625,3.02
12:02:32.406250,0.25
12:02:32.421875,-1.95
12:02:32.437500,-3.56
12:02:32.453125,-4.75
12:02:32.468750,-5.94
12:02:32.484375,-7.55
12:02:32.500000,-9.92
12:02:32.515625,-13.17
12:02:32.531250,-17.29
12:02:32.546875,-22.21
12:02:32.562500,-27.79
12:02:32.578125,-33.75
12:02:32.593750,-39.60
12:02:32.609375,-44.59
12:02:32.625000,-47.80
12:02:32.640625,-48.50
12:02:32.656250,-46.39
12:02:32.671875,-41.75
12:02:32.687500,-35.28
12:02:32.703125,-27.87
12:02:32.718750,-20.15
12:02:32.734375,-12.43
12:02:32.750000,-4.81
12:02:32.765625,2.63
12:02:32.781250,9.58
12:02:32.796875,15.51
12:02:32.812500,19.95
12:02:32.828125,22.70
12:02:32.843750,24.04
12:02:32.859375,24.60
12:02:32.875000,25.13
12:02:32.890625,26.17
12:02:32.906250,27.83
12:02:32.921875,29.79
12:02:32.937500,31.46
12:02:32.953125,32.29
12:02:32.968750,31.98
12:02:32.984375,30.63
12:02:33,28.61
12:02:33.015625,26.40
12:02:33.031250,24.36
12:02:33.046875,22.61
12:02:33.062500,21.00
12:02:33.078125,19.24
12:02:33.093750,17.07
12:02:33.109375,14.30
12:02:33.125000,10.91
12:02:33.140625,6.94
12:02:33.156250,2.48
12:02:33.171875,-2.47
12:02:33.187500,-7.88
12:02:33.203125,-13.67
12:02:33.218750,-19.75
12:02:33.234375,-25.92
12:02:33.250000,-31.98
12:02:33.265625,-37.74
12:02:33.281250,-42.96
12:02:33.296875,-47.36
12:02:33.312500,-50.54
12:02:33.328125,-52.13
12:02:33.343750,-51.74
12:02:33.359375,-49.18
12:02:33.375000,-44.47
12:02:33.390625,-37.91
12:02:33.406250,-29.95
12:02:33.421875,-21.12
12:02:33.437500,-11.94
12:02:33.453125,-2.88
12:02:33.468750,5.58
12:02:33.484375,12.94
12:02:33.500000,18.75
12:02:33.515625,22.69
12:02:33.531250,24.70
12:02:33.546875,25.05
12:02:33.562500,24.31
12:02:33.578125,23.18
12:02:33.593750,22.25
12:02:33.609375,21.86
12:02:33.625000,21.94
12:02:33.640625,22.17
12:02:33.656250,22.11
12:02:33.671875,21.52
12:02:33.687500,20.34
12:02:33.703125,18.84
12:02:33.718750,17.34
12:02:33.734375,16.12
12:02:33.750000,15.17
12:02:33.765625,14.27
12:02:33.781250,13.08
12:02:33.796875,11.35
12:02:33.812500,9.11
12:02:33.828125,6.67
12:02:33.843750,4.45
12:02:33.859375,2.70
12:02:33.875000,1.32
12:02:33.890625,-0.08
12:02:33.906250,-2.05
12:02:33.921875,-4.98
12:02:33.937500,-8.95
12:02:33.953125,-13.73
12:02:33.968750,-18.89
12:02:33.984375,-23.95
12:02:34,-28.39
12:02:34.015625,-31.64
12:02:34.031250,-33.09
12:02:34.046875,-32.20
12:02:34.062500,-28.75
12:02:34.078125,-22.95
12:02:34.093750,-15.47
12:02:34.109375,-7.25
12:02:34.125000,0.90
12:02:34.140625,8.51
12:02:34.156250,15.44
12:02:34.171875,21.75
12:02:34.187500,27.36
12:02:34.203125,32.04
12:02:34.218750,35.37
12:02:34.234375,37.08
12:02:34.250000,37.26
12:02:34.265625,36.36
12:02:34.281250,35.07
12:02:34.296875,33.97
12:02:34.312500,33.30
12:02:34.328125,32.95
12:02:34.343750,32.57
12:02:34.359375,31.87
12:02:34.375000,30.76
12:02:34.390625,29.37
12:02:34.406250,27.92
12:02:34.421875,26.54
12:02:34.437500,25.16
12:02:34.453125,23.61
12:02:34.468750,21.74
12:02:34.484375,19.53
12:02:34.500000,17.13
12:02:34.515625,14.84
12:02:34.531250,12.94
12:02:34.546875,11.60
12:02:34.562500,10.76
12:02:34.578125,10.13
12:02:34.593750,9.27
12:02:34.609375,7.64
12:02:34.625000,4.85
12:02:34.640625,0.71
12:02:34.656250,-4.64
12:02:34.671875,-10.71
12:02:34.687500,-16.83
12:02:34.703125,-22.19
12:02:34.718750,-26.07
12:02:34.734375,-27.97
12:02:34.750000,-27.63
12:02:34.765625,-25.09
12:02:34.781250,-20.60
12:02:34.796875,-14.58
12:02:34.812500,-7.55
12:02:34.828125,0.04
12:02:34.843750,7.73
12:02:34.859375,15.16
12:02:34.875000,21.98
12:02:34.890625,27.79
12:02:34.906250,32.26
12:02:34.921875,35.17
12:02:34.937500,36.55
12:02:34.953125,36.75
12:02:34.968750,36.28
12:02:34.984375,35.64
12:02:35,35.14
12:02:35.015625,34.73
12:02:35.031250,34.16
12:02:35.046875,33.14
12:02:35.062500,31.58
12:02:35.078125,29.68
12:02:35.093750,27.85
12:02:35.109375,26.43
12:02:35.125000,25.52
12:02:35.140625,24.93
12:02:35.156250,24.27
12:02:35.171875,23.15
12:02:35.187500,21.35
12:02:35.203125,18.98
12:02:35.218750,16.34
12:02:35.234375,13.76
12:02:35.250000,11.47
12:02:35.265625,9.44
12:02:35.281250,7.39
12:02:35.296875,4.88
12:02:35.312500,1.42
12:02:35.328125,-3.27
12:02:35.343750,-9.29
12:02:35.359375,-16.42
12:02:35.375000,-24.16
12:02:35.390625,-31.74
12:02:35.406250,-38.27
12:02:35.421875,-42.93
12:02:35.437500,-45.12
12:02:35.453125,-44.65
12:02:35.468750,-41.78
12:02:35.484375,-37.08
12:02:35.500000,-31.30
12:02:35.515625,-25.14
12:02:35.531250,-19.16
12:02:35.546875,-13.74
12:02:35.562500,-9.07
12:02:35.578125,-5.33
12:02:35.593750,-2.60
12:02:35.609375,-0.91
12:02:35.625000,-0.17
12:02:35.640625,-0.19
12:02:35.656250,-0.69
12:02:35.671875,-1.30
12:02:35.687500,-1.69
12:02:35.703125,-1.65
12:02:35.718750,-1.14
12:02:35.734375,-0.32
12:02:35.750000,0.56
12:02:35.765625,1.26
12:02:35.781250,1.67
12:02:35.796875,1.80
12:02:35.812500,1.76
12:02:35.828125,1.64
12:02:35.843750,1.44
12:02:35.859375,1.16
12:02:35.875000,0.71
12:02:35.890625,0.12
12:02:35.906250,-0.55
12:02:35.921875,-1.25
12:02:35.937500,-1.94
12:02:35.953125,-2.73
12:02:35.968750,-3.84
12:02:35.984375,-5.56
12:02:36,-8.19
12:02:36.015625,-11.92
12:02:36.031250,-16.75
12:02:36.046875,-22.34
12:02:36.062500,-28.08
12:02:36.078125,-33.13
12:02:36.093750,-36.60
12:02:36.109375,-37.87
12:02:36.125000,-36.64
12:02:36.140625,-33.10
12:02:36.156250,-27.75
12:02:36.171875,-21.26
12:02:36.187500,-14.23
12:02:36.203125,-7.11
12:02:36.218750,-0.22
12:02:36.234375,6.21
12:02:36.250000,11.91
12:02:36.265625,16.60
12:02:36.281250,20.04
12:02:36.296875,22.15
12:02:36.312500,23.02
12:02:36.328125,22.92
12:02:36.343750,22.20
12:02:36.359375,21.23
12:02:36.375000,20.24
12:02:36.390625,19.35
12:02:36.406250,18.56
12:02:36.421875,17.85
12:02:36.437500,17.23
12:02:36.453125,16.73
12:02:36.468750,16.34
12:02:36.484375,16.02
12:02:36.500000,15.58
12:02:36.515625,14.76
12:02:36.531250,13.36
12:02:36.546875,11.30
12:02:36.562500,8.69
12:02:36.578125,5.78
12:02:36.593750,2.82
12:02:36.609375,-0.08
12:02:36.625000,-2.98
12:02:36.640625,-6.15
12:02:36.656250,-9.82
12:02:36.671875,-14.11
12:02:36.687500,-18.92
12:02:36.703125,-23.99
12:02:36.718750,-28.97
12:02:36.734375,-33.49
12:02:36.750000,-37.13
12:02:36.765625,-39.48
12:02:36.781250,-40.08
12:02:36.796875,-38.56
12:02:36.812500,-34.82
12:02:36.828125,-29.14
12:02:36.843750,-22.22
12:02:36.859375,-14.87
12:02:36.875000,-7.90
12:02:36.890625,-1.72
12:02:36.906250,3.58
12:02:36.921875,8.10
12:02:36.937500,11.98
12:02:36.953125,15.15
12:02:36.968750,17.46
12:02:36.984375,18.79
12:02:37,19.24
12:02:37.015625,19.05
12:02:37.031250,18.57
12:02:37.046875,18.04
12:02:37.062500,17.49
12:02:37.078125,16.77
12:02:37.093750,15.74
12:02:37.109375,14.43
12:02:37.125000,13.06
12:02:37.140625,11.90
12:02:37.156250,11.06
12:02:37.171875,10.32
12:02:37.187500,9.27
12:02:37.203125,7.41
12:02:37.218750,4.50
12:02:37.234375,0.64
12:02:37.250000,-3.76
12:02:37.265625,-8.18
12:02:37.281250,-12.17
12:02:37.296875,-15.54
12:02:37.312500,-18.36
12:02:37.328125,-20.89
12:02:37.343750,-23.52
12:02:37.359375,-26.53
12:02:37.375000,-30.16
12:02:37.390625,-34.54
12:02:37.406250,-39.59
12:02:37.421875,-45.08
12:02:37.437500,-50.50
12:02:37.453125,-55.16
12:02:37.468750,-58.30
12:02:37.484375,-59.34
12:02:37.500000,-58.03
12:02:37.515625,-54.57
12:02:37.531250,-49.54
12:02:37.546875,-43.63
12:02:37.562500,-37.47
12:02:37.578125,-31.39
12:02:37.593750,-25.48
12:02:37.609375,-19.66
12:02:37.625000,-13.93
12:02:37.640625,-8.44
12:02:37.656250,-3.42
12:02:37.671875,0.92
12:02:37.687500,4.55
12:02:37.703125,7.61
12:02:37.718750,10.34
12:02:37.734375,12.99
12:02:37.750000,15.66
12:02:37.765625,18.33
12:02:37.781250,20.80
12:02:37.796875,22.85
12:02:37.812500,24.30
12:02:37.828125,25.07
12:02:37.843750,25.24
12:02:37.859375,25.03
12:02:37.875000,24.63
12:02:37.890625,24.14
12:02:37.906250,23.53
12:02:37.921875,22.68
12:02:37.937500,21.46
12:02:37.953125,19.86
12:02:37.968750,18.05
12:02:37.984375,16.26
12:02:38,14.72
12:02:38.015625,13.49
12:02:38.031250,12.44
12:02:38.046875,11.37
12:02:38.062500,10.08
12:02:38.078125,8.43
12:02:38.093750,6.43
12:02:38.109375,4.04
12:02:38.125000,1.21
12:02:38.140625,-2.19
12:02:38.156250,-6.14
12:02:38.171875,-10.43
12:02:38.187500,-14.57
12:02:38.203125,-17.85
12:02:38.218750,-19.59
12:02:38.234375,-19.35
12:02:38.250000,-17.09
12:02:38.265625,-13.15
12:02:38.281250,-8.08
12:02:38.296875,-2.44
12:02:38.312500,3.40
12:02:38.328125,9.23
12:02:38.343750,14.91
12:02:38.359375,20.24
12:02:38.375000,24.95
12:02:38.390625,28.73
12:02:38.406250,31.40
12:02:38.421875,33.01
12:02:38.437500,33.82
12:02:38.453125,34.16
12:02:38.468750,34.31
12:02:38.484375,34.40
12:02:38.500000,34.43
12:02:38.515625,34.45
12:02:38.531250,34.54
12:02:38.546875,34.84
12:02:38.562500,35.52
12:02:38.578125,36.55
12:02:38.593750,37.72
12:02:38.609375,38.72
12:02:38.625000,39.24
12:02:38.640625,39.08
12:02:38.656250,38.16
12:02:38.671875,36.53
12:02:38.687500,34.23
12:02:38.703125,31.38
12:02:38.718750,28.14
12:02:38.734375,24.71
12:02:38.750000,21.36
12:02:38.765625,18.27
12:02:38.781250,15.48
12:02:38.796875,12.83
12:02:38.812500,10.03
12:02:38.828125,6.78
12:02:38.843750,2.89
12:02:38.859375,-1.64
12:02:38.875000,-6.67
12:02:38.890625,-11.99
12:02:38.906250,-17.45
12:02:38.921875,-22.89
12:02:38.937500,-28.09
12:02:38.953125,-32.66
12:02:38.968750,-35.99
12:02:38.984375,-37.48
12:02:39,-36.66
12:02:39.015625,-33.51
12:02:39.031250,-28.45
12:02:39.046875,-22.26
12:02:39.062500,-15.76
12:02:39.078125,-9.61
12:02:39.093750,-4.15
12:02:39.109375,0.49
12:02:39.125000,4.28
12:02:39.140625,7.17
12:02:39.156250,9.02
12:02:39.171875,9.77
12:02:39.187500,9.54
12:02:39.203125,8.66
12:02:39.218750,7.61
12:02:39.234375,6.79
12:02:39.250000,6.42
12:02:39.265625,6.43
12:02:39.281250,6.57
12:02:39.296875,6.50
12:02:39.312500,6.00
12:02:39.328125,4.96
12:02:39.343750,3.44
12:02:39.359375,1.54
12:02:39.375000,-0.62
12:02:39.390625,-2.98
12:02:39.406250,-5.49
12:02:39.421875,-8.14
12:02:39.437500,-10.90
12:02:39.453125,-13.74
12:02:39.468750,-16.62
12:02:39.484375,-19.49
12:02:39.500000,-22.25
12:02:39.515625,-24.83
12:02:39.531250,-27.16
12:02:39.546875,-29.25
12:02:39.562500,-31.15
12:02:39.578125,-32.94
12:02:39.593750,-34.71
12:02:39.609375,-36.47
12:02:39.625000,-38.26
12:02:39.640625,-40.16
12:02:39.656250,-42.30
12:02:39.671875,-44.82
12:02:39.687500,-47.70
12:02:39.703125,-50.70
12:02:39.718750,-53.31
12:02:39.734375,-54.91
12:02:39.750000,-54.83
12:02:39.765625,-52.69
12:02:39.781250,-48.47
12:02:39.796875,-42.49
12:02:39.812500,-35.33
12:02:39.828125,-27.52
12:02:39.843750,-19.52
12:02:39.859375,-11.60
12:02:39.875000,-3.94
12:02:39.890625,3.22
12:02:39.906250,9.62
12:02:39.921875,14.98
12:02:39.937500,19.15
12:02:39.953125,22.13
12:02:39.968750,24.17
12:02:39.984375,25.52
12:02:40,26.38
12:02:40.015625,26.85
12:02:40.031250,26.95
12:02:40.046875,26.73
12:02:40.062500,26.31
12:02:40.078125,25.92
12:02:40.093750,25.69
12:02:40.109375,25.61
12:02:40.125000,25.40
12:02:40.140625,24.69
12:02:40.156250,23.14
12:02:40.171875,20.61
12:02:40.187500,17.18
12:02:40.203125,13.11
12:02:40.218750,8.72
12:02:40.234375,4.29
12:02:40.250000,0.01
12:02:40.265625,-3.98
12:02:40.281250,-7.63
12:02:40.296875,-10.89
12:02:40.312500,-13.79
12:02:40.328125,-16.47
12:02:40.343750,-19.10
12:02:40.359375,-21.85
12:02:40.375000,-24.78
12:02:40.390625,-27.88
12:02:40.406250,-31.08
12:02:40.421875,-34.32
12:02:40.437500,-37.65
12:02:40.453125,-41.12
12:02:40.468750,-44.65
12:02:40.484375,-47.93
12:02:40.500000,-50.40
12:02:40.515625,-51.39
12:02:40.531250,-50.35
12:02:40.546875,-47.08
12:02:40.562500,-41.75
12:02:40.578125,-34.88
12:02:40.593750,-27.09
12:02:40.609375,-18.95
12:02:40.625000,-10.88
12:02:40.640625,-3.23
12:02:40.656250,3.66
12:02:40.671875,9.35
12:02:40.687500,13.37
12:02:40.703125,15.40
12:02:40.718750,15.35
12:02:40.734375,13.49
12:02:40.750000,10.38
12:02:40.765625,6.71
12:02:40.781250,3.11
12:02:40.796875,0.04
12:02:40.812500,-2.34
12:02:40.828125,-4.02
12:02:40.843750,-5.13
12:02:40.859375,-5.87
12:02:40.875000,-6.43
12:02:40.890625,-6.99
12:02:40.906250,-7.68
12:02:40.921875,-8.61
12:02:40.937500,-9.80
12:02:40.953125,-11.25
12:02:40.968750,-12.87
12:02:40.984375,-14.53
12:02:41,-16.10
12:02:41.015625,-17.45
12:02:41.031250,-18.47
12:02:41.046875,-19.10
12:02:41.062500,-19.31
12:02:41.078125,-19.11
12:02:41.093750,-18.49
12:02:41.109375,-17.50
12:02:41.125000,-16.24
12:02:41.140625,-14.86
12:02:41.156250,-13.64
12:02:41.171875,-12.87
12:02:41.187500,-12.91
12:02:41.203125,-14.00
12:02:41.218750,-16.19
12:02:41.234375,-19.23
12:02:41.250000,-22.54
12:02:41.265625,-25.30
12:02:41.281250,-26.68
12:02:41.296875,-26.13
12:02:41.312500,-23.52
12:02:41.328125,-19.13
12:02:41.343750,-13.54
12:02:41.359375,-7.35
12:02:41.375000,-1.02
12:02:41.390625,5.22
12:02:41.406250,11.25
12:02:41.421875,16.96
12:02:41.437500,22.19
12:02:41.453125,26.69
12:02:41.468750,30.22
12:02:41.484375,32.59
12:02:41.500000,33.76
12:02:41.515625,33.91
12:02:41.531250,33.33
12:02:41.546875,32.40
12:02:41.562500,31.51
12:02:41.578125,30.90
12:02:41.593750,30.64
12:02:41.609375,30.62
12:02:41.625000,30.63
12:02:41.640625,30.52
12:02:41.656250,30.22
12:02:41.671875,29.75
12:02:41.687500,29.15
12:02:41.703125,28.45
12:02:41.718750,27.61
12:02:41.734375,26.52
12:02:41.750000,25.11
12:02:41.765625,23.39
12:02:41.781250,21.42
12:02:41.796875,19.28
12:02:41.812500,17.01
12:02:41.828125,14.62
12:02:41.843750,12.12
12:02:41.859375,9.51
12:02:41.875000,6.77
12:02:41.890625,3.86
12:02:41.906250,0.67
12:02:41.921875,-3.01
12:02:41.937500,-7.36
12:02:41.953125,-12.42
12:02:41.968750,-18.08
12:02:41.984375,-23.87
12:02:42,-29.17
12:02:42.015625,-33.22
12:02:42.031250,-35.35
12:02:42.046875,-35.13
12:02:42.062500,-32.45
12:02:42.078125,-27.61
12:02:42.093750,-21.16
12:02:42.109375,-13.78
12:02:42.125000,-6.08
12:02:42.140625,1.55
12:02:42.156250,8.89
12:02:42.171875,15.81
12:02:42.187500,22.11
12:02:42.203125,27.49
12:02:42.218750,31.60
12:02:42.234375,34.25
12:02:42.250000,35.53
12:02:42.265625,35.84
12:02:42.281250,35.71
12:02:42.296875,35.63
12:02:42.312500,35.81
12:02:42.328125,36.18
12:02:42.343750,36.46
12:02:42.359375,36.37
12:02:42.375000,35.73
12:02:42.390625,34.57
12:02:42.406250,33.05
12:02:42.421875,31.37
12:02:42.437500,29.61
12:02:42.453125,27.78
12:02:42.468750,25.73
12:02:42.484375,23.31
12:02:42.500000,20.37
12:02:42.515625,16.86
12:02:42.531250,12.87
12:02:42.546875,8.59
12:02:42.562500,4.22
12:02:42.578125,-0.06
12:02:42.593750,-4.21
12:02:42.609375,-8.37
12:02:42.625000,-12.82
12:02:42.640625,-17.87
12:02:42.656250,-23.74
12:02:42.671875,-30.41
12:02:42.687500,-37.52
12:02:42.703125,-44.40
12:02:42.718750,-50.16
12:02:42.734375,-53.98
12:02:42.750000,-55.21
12:02:42.765625,-53.57
12:02:42.781250,-49.13
12:02:42.796875,-42.30
12:02:42.812500,-33.75
12:02:42.828125,-24.25
12:02:42.843750,-14.56
12:02:42.859375,-5.26
12:02:42.875000,3.26
12:02:42.890625,10.82
12:02:42.906250,17.34
12:02:42.921875,22.71
12:02:42.937500,26.75
12:02:42.953125,29.33
12:02:42.968750,30.48
12:02:42.984375,30.53
12:02:43,30.02
12:02:43.015625,29.54
12:02:43.031250,29.39
12:02:43.046875,29.49
12:02:43.062500,29.39
12:02:43.078125,28.58
12:02:43.093750,26.77
12:02:43.109375,24.00
12:02:43.125000,20.66
12:02:43.140625,17.22
12:02:43.156250,13.95
12:02:43.171875,10.87
12:02:43.187500,7.71
12:02:43.203125,4.16
12:02:43.218750,0.04
12:02:43.234375,-4.64
12:02:43.250000,-9.70
12:02:43.265625,-14.81
12:02:43.281250,-19.65
12:02:43.296875,-24.02
12:02:43.312500,-27.89
12:02:43.328125,-31.41
12:02:43.343750,-34.84
12:02:43.359375,-38.49
12:02:43.375000,-42.62
12:02:43.390625,-47.31
12:02:43.406250,-52.44
12:02:43.421875,-57.64
12:02:43.437500,-62.38
12:02:43.453125,-65.98
12:02:43.468750,-67.83
12:02:43.484375,-67.44
12:02:43.500000,-64.53
12:02:43.515625,-59.17
12:02:43.531250,-51.67
12:02:43.546875,-42.55
12:02:43.562500,-32.42
12:02:43.578125,-21.87
12:02:43.593750,-11.36
12:02:43.609375,-1.31
12:02:43.625000,7.91
12:02:43.640625,15.93
12:02:43.656250,22.42
12:02:43.671875,27.21
12:02:43.687500,30.30
12:02:43.703125,31.93
12:02:43.718750,32.53
12:02:43.734375,32.61
12:02:43.750000,32.50
12:02:43.765625,32.42
12:02:43.781250,32.34
12:02:43.796875,32.13
12:02:43.812500,31.70
12:02:43.828125,30.98
12:02:43.843750,30.02
12:02:43.859375,28.88
12:02:43.875000,27.55
12:02:43.890625,25.91
12:02:43.906250,23.80
12:02:43.921875,21.05
12:02:43.937500,17.65
12:02:43.953125,13.77
12:02:43.968750,9.69
12:02:43.984375,5.78
12:02:44,2.33
12:02:44.015625,-0.61
12:02:44.031250,-3.10
12:02:44.046875,-5.39
12:02:44.062500,-7.75
12:02:44.078125,-10.42
12:02:44.093750,-13.58
12:02:44.109375,-17.33
12:02:44.125000,-21.73
12:02:44.140625,-26.70
12:02:44.156250,-31.94
12:02:44.171875,-36.81
12:02:44.187500,-40.45
12:02:44.203125,-41.87
12:02:44.218750,-40.40
12:02:44.234375,-35.87
12:02:44.250000,-28.76
12:02:44.265625,-20.00
12:02:44.281250,-10.66
12:02:44.296875,-1.64
12:02:44.312500,6.59
12:02:44.328125,13.81
12:02:44.343750,19.98
12:02:44.359375,25.02
12:02:44.375000,28.77
12:02:44.390625,31.09
12:02:44.406250,31.97
12:02:44.421875,31.65
12:02:44.437500,30.54
12:02:44.453125,29.09
12:02:44.468750,27.67
12:02:44.484375,26.54
12:02:44.500000,25.86
12:02:44.515625,25.70
12:02:44.531250,26.07
12:02:44.546875,26.86
12:02:44.562500,27.86
12:02:44.578125,28.73
12:02:44.593750,29.12
12:02:44.609375,28.84
12:02:44.625000,27.84
12:02:44.640625,26.27
12:02:44.656250,24.30
12:02:44.671875,22.04
12:02:44.687500,19.53
12:02:44.703125,16.78
12:02:44.718750,13.84
12:02:44.734375,10.89
12:02:44.750000,8.11
12:02:44.765625,5.56
12:02:44.781250,3.11
12:02:44.796875,0.46
12:02:44.812500,-2.69
12:02:44.828125,-6.56
12:02:44.843750,-11.15
12:02:44.859375,-16.32
12:02:44.875000,-21.86
12:02:44.890625,-27.49
12:02:44.906250,-32.91
12:02:44.921875,-37.64
12:02:44.937500,-41.04
12:02:44.953125,-42.42
12:02:44.968750,-41.30
12:02:44.984375,-37.55
12:02:45,-31.51
12:02:45.015625,-23.85
12:02:45.031250,-15.35
12:02:45.046875,-6.69
12:02:45.062500,1.67
12:02:45.078125,9.40
12:02:45.093750,16.19
12:02:45.109375,21.72
12:02:45.125000,25.71
12:02:45.140625,28.00
12:02:45.156250,28.74
12:02:45.171875,28.41
12:02:45.187500,27.69
12:02:45.203125,27.21
12:02:45.218750,27.35
12:02:45.234375,28.14
12:02:45.250000,29.31
12:02:45.265625,30.48
12:02:45.281250,31.39
12:02:45.296875,31.94
12:02:45.312500,32.22
12:02:45.328125,32.31
12:02:45.343750,32.20
12:02:45.359375,31.69
12:02:45.375000,30.54
12:02:45.390625,28.55
12:02:45.406250,25.69
12:02:45.421875,22.17
12:02:45.437500,18.26
12:02:45.453125,14.32
12:02:45.468750,10.61
12:02:45.484375,7.26
12:02:45.500000,4.24
12:02:45.515625,1.44
12:02:45.531250,-1.35
12:02:45.546875,-4.39
12:02:45.562500,-7.85
12:02:45.578125,-11.84
12:02:45.593750,-16.31
12:02:45.609375,-21.15
12:02:45.625000,-26.12
12:02:45.640625,-30.88
12:02:45.656250,-34.95
12:02:45.671875,-37.72
12:02:45.687500,-38.56
12:02:45.703125,-36.97
12:02:45.718750,-32.82
12:02:45.734375,-26.40
12:02:45.750000,-18.34
12:02:45.765625,-9.42
12:02:45.781250,-0.30
12:02:45.796875,8.64
12:02:45.812500,17.22
12:02:45.828125,25.30
12:02:45.843750,32.59
12:02:45.859375,38.64
12:02:45.875000,43.00
12:02:45.890625,45.42
12:02:45.906250,46.06
12:02:45.921875,45.48
12:02:45.937500,44.45
12:02:45.953125,43.65
12:02:45.968750,43.46
12:02:45.984375,43.89
12:02:46,44.69
12:02:46.015625,45.48
12:02:46.031250,45.92
12:02:46.046875,45.70
12:02:46.062500,44.64
12:02:46.078125,42.60
12:02:46.093750,39.52
12:02:46.109375,35.39
12:02:46.125000,30.33
12:02:46.140625,24.50
12:02:46.156250,18.12
12:02:46.171875,11.45
12:02:46.187500,4.74
12:02:46.203125,-1.74
12:02:46.218750,-7.80
12:02:46.234375,-13.36
12:02:46.250000,-18.40
12:02:46.265625,-23.03
12:02:46.281250,-27.33
12:02:46.296875,-31.38
12:02:46.312500,-35.28
12:02:46.328125,-39.18
12:02:46.343750,-43.27
12:02:46.359375,-47.67
12:02:46.375000,-52.26
12:02:46.390625,-56.55
12:02:46.406250,-59.70
12:02:46.421875,-60.84
12:02:46.437500,-59.36
12:02:46.453125,-55.19
12:02:46.468750,-48.88
12:02:46.484375,-41.40
12:02:46.500000,-33.70
12:02:46.515625,-26.50
12:02:46.531250,-20.09
12:02:46.546875,-14.46
12:02:46.562500,-9.45
12:02:46.578125,-4.89
12:02:46.593750,-0.73
12:02:46.609375,3.01
12:02:46.625000,6.22
12:02:46.640625,8.76
12:02:46.656250,10.50
12:02:46.671875,11.42
12:02:46.687500,11.67
12:02:46.703125,11.55
12:02:46.718750,11.49
12:02:46.734375,11.80
12:02:46.750000,12.67
12:02:46.765625,14.11
12:02:46.781250,16.01
12:02:46.796875,18.32
12:02:46.812500,20.97
12:02:46.828125,23.87
12:02:46.843750,26.89
12:02:46.859375,29.96
12:02:46.875000,33.25
12:02:46.890625,37.40
12:02:46.906250,43.35
12:02:46.921875,51.95
12:02:46.937500,63.41
12:02:46.953125,76.84
12:02:46.968750,90.39
12:02:46.984375,101.70
12:02:47,108.83
12:02:47.015625,110.87
12:02:47.031250,108.02
12:02:47.046875,101.28
12:02:47.062500,91.68
12:02:47.078125,79.93
12:02:47.093750,66.29
12:02:47.109375,51.00
12:02:47.125000,34.70
12:02:47.140625,18.68
12:02:47.156250,4.64
12:02:47.171875,-5.89
12:02:47.187500,-12.14
12:02:47.203125,-14.44
12:02:47.218750,-14.00
12:02:47.234375,-12.39
12:02:47.250000,-10.84
12:02:47.265625,-9.75
12:02:47.281250,-8.80
12:02:47.296875,-7.35
12:02:47.312500,-4.99
12:02:47.328125,-2.01
12:02:47.343750,0.73
12:02:47.359375,2.21
12:02:47.375000,1.84
12:02:47.390625,-0.20
12:02:47.406250,-2.99
12:02:47.421875,-5.43
12:02:47.437500,-6.74
12:02:47.453125,-6.88
12:02:47.468750,-6.48
12:02:47.484375,-6.49
12:02:47.500000,-7.66
12:02:47.515625,-10.22
12:02:47.531250,-13.84
12:02:47.546875,-17.88
12:02:47.562500,-21.73
12:02:47.578125,-24.99
12:02:47.593750,-27.52
12:02:47.609375,-29.35
12:02:47.625000,-30.47
12:02:47.640625,-30.87
12:02:47.656250,-30.52
12:02:47.671875,-29.52
12:02:47.687500,-28.11
12:02:47.703125,-26.62
12:02:47.718750,-25.40
12:02:47.734375,-24.60
12:02:47.750000,-24.22
12:02:47.765625,-24.12
12:02:47.781250,-24.21
12:02:47.796875,-24.51
12:02:47.812500,-25.21
12:02:47.828125,-26.48
12:02:47.843750,-28.35
12:02:47.859375,-30.57
12:02:47.875000,-32.69
12:02:47.890625,-34.09
12:02:47.906250,-34.26
12:02:47.921875,-32.84
12:02:47.937500,-29.82
12:02:47.953125,-25.39
12:02:47.968750,-20.02
12:02:47.984375,-14.14
12:02:48,-8.20
12:02:48.015625,-2.44
12:02:48.031250,3.05
12:02:48.046875,8.24
12:02:48.062500,13.12
12:02:48.078125,17.63
12:02:48.093750,21.67
12:02:48.109375,25.17
12:02:48.125000,28.19
12:02:48.140625,30.82
12:02:48.156250,33.14
12:02:48.171875,35.09
12:02:48.187500,36.33
12:02:48.203125,36.45
12:02:48.218750,35.12
12:02:48.234375,32.36
12:02:48.250000,28.58
12:02:48.265625,24.49
12:02:48.281250,20.72
12:02:48.296875,17.61
12:02:48.312500,14.98
12:02:48.328125,12.30
12:02:48.343750,8.87
12:02:48.359375,4.22
12:02:48.375000,-1.75
12:02:48.390625,-8.71
12:02:48.406250,-16.09
12:02:48.421875,-23.31
12:02:48.437500,-29.96
12:02:48.453125,-35.80
12:02:48.468750,-40.73
12:02:48.484375,-44.70
12:02:48.500000,-47.70
12:02:48.515625,-49.77
12:02:48.531250,-51.09
12:02:48.546875,-51.95
12:02:48.562500,-52.58
12:02:48.578125,-53.09
12:02:48.593750,-53.32
12:02:48.609375,-52.94
12:02:48.625000,-51.62
12:02:48.640625,-49.11
12:02:48.656250,-45.40
12:02:48.671875,-40.61
12:02:48.687500,-34.92
12:02:48.703125,-28.58
12:02:48.718750,-21.86
12:02:48.734375,-15.13
12:02:48.750000,-8.97
12:02:48.765625,-4.06
12:02:48.781250,-1.01
12:02:48.796875,-0.13
12:02:48.812500,-1.31
12:02:48.828125,-3.94
12:02:48.843750,-7.12
12:02:48.859375,-9.92
12:02:48.875000,-11.69
12:02:48.890625,-12.25
12:02:48.906250,-11.86
12:02:48.921875,-11.03
12:02:48.937500,-10.23
12:02:48.953125,-9.71
12:02:48.968750,-9.44
12:02:48.984375,-9.18
12:02:49,-8.76
12:02:49.015625,-8.23
12:02:49.031250,-7.94
12:02:49.046875,-8.33
12:02:49.062500,-9.81
12:02:49.078125,-12.49
12:02:49.093750,-16.15
12:02:49.109375,-20.31
12:02:49.125000,-24.53
12:02:49.140625,-28.56
12:02:49.156250,-32.47
12:02:49.171875,-36.55
12:02:49.187500,-41.19
12:02:49.203125,-46.66
12:02:49.218750,-52.96
12:02:49.234375,-59.86
12:02:49.250000,-66.90
12:02:49.265625,-73.44
12:02:49.281250,-78.74
12:02:49.296875,-82.11
12:02:49.312500,-82.96
12:02:49.328125,-80.96
12:02:49.343750,-76.12
12:02:49.359375,-68.68
12:02:49.375000,-59.08
12:02:49.390625,-47.85
12:02:49.406250,-35.51
12:02:49.421875,-22.62
12:02:49.437500,-9.75
12:02:49.453125,2.46
12:02:49.468750,13.49
12:02:49.484375,22.94
12:02:49.500000,30.76
12:02:49.515625,37.14
12:02:49.531250,42.41
12:02:49.546875,46.85
12:02:49.562500,50.54
12:02:49.578125,53.31
12:02:49.593750,54.83
12:02:49.609375,54.80
12:02:49.625000,53.13
12:02:49.640625,49.96
12:02:49.656250,45.63
12:02:49.671875,40.55
12:02:49.687500,35.06
12:02:49.703125,29.37
12:02:49.718750,23.64
12:02:49.734375,18.09
12:02:49.750000,12.99
12:02:49.765625,8.64
12:02:49.781250,5.26
12:02:49.796875,2.81
12:02:49.812500,1.04
12:02:49.828125,-0.43
12:02:49.843750,-2.02
12:02:49.859375,-4.01
12:02:49.875000,-6.57
12:02:49.890625,-9.79
12:02:49.906250,-13.72
12:02:49.921875,-18.33
12:02:49.937500,-23.40
12:02:49.953125,-28.49
12:02:49.968750,-32.92
12:02:49.984375,-35.90
12:02:50,-36.82
12:02:50.015625,-35.45
12:02:50.031250,-31.98
12:02:50.046875,-26.94
12:02:50.062500,-21.00
12:02:50.078125,-14.64
12:02:50.093750,-8.13
12:02:50.109375,-1.52
12:02:50.125000,5.29
12:02:50.140625,12.28
12:02:50.156250,19.25
12:02:50.171875,25.83
12:02:50.187500,31.51
12:02:50.203125,35.90
12:02:50.218750,38.80
12:02:50.234375,40.39
12:02:50.250000,40.99
12:02:50.265625,41.05
12:02:50.281250,40.90
12:02:50.296875,40.65
12:02:50.312500,40.30
12:02:50.328125,39.70
12:02:50.343750,38.84
12:02:50.359375,37.73
12:02:50.375000,36.50
12:02:50.390625,35.28
12:02:50.406250,34.05
12:02:50.421875,32.69
12:02:50.437500,30.99
12:02:50.453125,28.80
12:02:50.468750,26.06
12:02:50.484375,22.90
12:02:50.500000,19.54
12:02:50.515625,16.17
12:02:50.531250,12.93
12:02:50.546875,9.79
12:02:50.562500,6.64
12:02:50.578125,3.35
12:02:50.593750,-0.18
12:02:50.609375,-4.01
12:02:50.625000,-8.18
12:02:50.640625,-12.70
12:02:50.656250,-17.52
12:02:50.671875,-22.40
12:02:50.687500,-26.90
12:02:50.703125,-30.35
12:02:50.718750,-32.14
12:02:50.734375,-31.85
12:02:50.750000,-29.46
12:02:50.765625,-25.30
12:02:50.781250,-19.95
12:02:50.796875,-13.99
12:02:50.812500,-7.88
12:02:50.828125,-1.86
12:02:50.843750,3.99
12:02:50.859375,9.58
12:02:50.875000,14.81
12:02:50.890625,19.51
12:02:50.906250,23.48
12:02:50.921875,26.54
12:02:50.937500,28.60
12:02:50.953125,29.70
12:02:50.968750,30.01
12:02:50.984375,29.82
12:02:51,29.53
12:02:51.015625,29.41
12:02:51.031250,29.58
12:02:51.046875,29.93
12:02:51.062500,30.19
12:02:51.078125,30.12
12:02:51.093750,29.65
12:02:51.109375,28.89
12:02:51.125000,28.07
12:02:51.140625,27.29
12:02:51.156250,26.44
12:02:51.171875,25.22
12:02:51.187500,23.28
12:02:51.203125,20.43
12:02:51.218750,16.81
12:02:51.234375,12.79
12:02:51.250000,8.86
12:02:51.265625,5.40
12:02:51.281250,2.53
12:02:51.296875,0.17
12:02:51.312500,-1.90
12:02:51.328125,-3.91
12:02:51.343750,-6.02
12:02:51.359375,-8.31
12:02:51.375000,-10.91
12:02:51.390625,-13.93
12:02:51.406250,-17.41
12:02:51.421875,-21.20
12:02:51.437500,-24.87
12:02:51.453125,-27.78
12:02:51.468750,-29.21
12:02:51.484375,-28.65
12:02:51.500000,-25.94
12:02:51.515625,-21.33
12:02:51.531250,-15.38
12:02:51.546875,-8.73
12:02:51.562500,-1.91
12:02:51.578125,4.73
12:02:51.593750,10.96
12:02:51.609375,16.56
12:02:51.625000,21.32
12:02:51.640625,25.00
12:02:51.656250,27.46
12:02:51.671875,28.76
12:02:51.687500,29.15
12:02:51.703125,29.03
12:02:51.718750,28.77
12:02:51.734375,28.63
12:02:51.750000,28.75
12:02:51.765625,29.15
12:02:51.781250,29.75
12:02:51.796875,30.50
12:02:51.812500,31.24
12:02:51.828125,31.87
12:02:51.843750,32.23
12:02:51.859375,32.11
12:02:51.875000,31.40
12:02:51.890625,30.04
12:02:51.906250,28.03
12:02:51.921875,25.48
12:02:51.937500,22.49
12:02:51.953125,19.14
12:02:51.968750,15.46
12:02:51.984375,11.47
12:02:52,7.19
12:02:52.015625,2.73
12:02:52.031250,-1.76
12:02:52.046875,-6.10
12:02:52.062500,-10.12
12:02:52.078125,-13.79
12:02:52.093750,-17.17
12:02:52.109375,-20.43
12:02:52.125000,-23.82
12:02:52.140625,-27.54
12:02:52.156250,-31.67
12:02:52.171875,-36.01
12:02:52.187500,-40.12
12:02:52.203125,-43.38
12:02:52.218750,-45.10
12:02:52.234375,-44.91
12:02:52.250000,-42.82
12:02:52.265625,-39.20
12:02:52.281250,-34.63
12:02:52.296875,-29.67
12:02:52.312500,-24.69
12:02:52.328125,-19.86
12:02:52.343750,-15.22
12:02:52.359375,-10.89
12:02:52.375000,-6.99
12:02:52.390625,-3.70
12:02:52.406250,-1.18
12:02:52.421875,0.54
12:02:52.437500,1.52
12:02:52.453125,1.88
12:02:52.468750,1.87
12:02:52.484375,1.75
12:02:52.500000,1.83
12:02:52.515625,2.39
12:02:52.531250,3.56
12:02:52.546875,5.32
12:02:52.562500,7.49
12:02:52.578125,9.78
12:02:52.593750,11.92
12:02:52.609375,13.76
12:02:52.625000,15.20
12:02:52.640625,16.19
12:02:52.656250,16.67
12:02:52.671875,16.57
12:02:52.687500,15.87
12:02:52.703125,14.61
12:02:52.718750,12.95
12:02:52.734375,11.15
12:02:52.750000,9.41
12:02:52.765625,7.87
12:02:52.781250,6.52
12:02:52.796875,5.23
12:02:52.812500,3.84
12:02:52.828125,2.22
12:02:52.843750,0.23
12:02:52.859375,-2.26
12:02:52.875000,-5.42
12:02:52.890625,-9.39
12:02:52.906250,-14.09
12:02:52.921875,-19.16
12:02:52.937500,-23.94
12:02:52.953125,-27.67
12:02:52.968750,-29.68
12:02:52.984375,-29.71
12:02:53,-27.86
12:02:53.015625,-24.54
12:02:53.031250,-20.23
12:02:53.046875,-15.33
12:02:53.062500,-10.07
12:02:53.078125,-4.61
12:02:53.093750,0.85
12:02:53.109375,5.99
12:02:53.125000,10.45
12:02:53.140625,13.87
12:02:53.156250,16.08
12:02:53.171875,17.14
12:02:53.187500,17.37
12:02:53.203125,17.19
12:02:53.218750,17.06
12:02:53.234375,17.27
12:02:53.250000,17.89
12:02:53.265625,18.76
12:02:53.281250,19.57
12:02:53.296875,20.06
12:02:53.312500,20.09
12:02:53.328125,19.66
12:02:53.343750,18.85
12:02:53.359375,17.81
12:02:53.375000,16.57
12:02:53.390625,15.17
12:02:53.406250,13.57
12:02:53.421875,11.75
12:02:53.437500,9.67
12:02:53.453125,7.28
12:02:53.468750,4.58
12:02:53.484375,1.61
12:02:53.500000,-1.52
12:02:53.515625,-4.66
12:02:53.531250,-7.70
12:02:53.546875,-10.62
12:02:53.562500,-13.54
12:02:53.578125,-16.70
12:02:53.593750,-20.27
12:02:53.609375,-24.32
12:02:53.625000,-28.74
12:02:53.640625,-33.22
12:02:53.656250,-37.30
12:02:53.671875,-40.45
12:02:53.687500,-42.18
12:02:53.703125,-42.17
12:02:53.718750,-40.37
12:02:53.734375,-37.07
12:02:53.750000,-32.75
12:02:53.765625,-27.92
12:02:53.781250,-23.02
12:02:53.796875,-18.26
12:02:53.812500,-13.69
12:02:53.828125,-9.30
12:02:53.843750,-5.19
12:02:53.859375,-1.51
12:02:53.875000,1.46
12:02:53.890625,3.56
12:02:53.906250,4.71
12:02:53.921875,5.04
12:02:53.937500,4.79
12:02:53.953125,4.32
12:02:53.968750,3.95
12:02:53.984375,3.92
12:02:54,4.25
12:02:54.015625,4.82
12:02:54.031250,5.37
12:02:54.046875,5.73
12:02:54.062500,5.82
12:02:54.078125,5.79
12:02:54.093750,5.84
12:02:54.109375,6.14
12:02:54.125000,6.66
12:02:54.140625,7.18
12:02:54.156250,7.44
12:02:54.171875,7.19
12:02:54.187500,6.39
12:02:54.203125,5.16
12:02:54.218750,3.73
12:02:54.234375,2.29
12:02:54.250000,0.88
12:02:54.265625,-0.57
12:02:54.281250,-2.28
12:02:54.296875,-4.48
12:02:54.312500,-7.42
12:02:54.328125,-11.24
12:02:54.343750,-15.94
12:02:54.359375,-21.42
12:02:54.375000,-27.38
12:02:54.390625,-33.42
12:02:54.406250,-38.98
12:02:54.421875,-43.42
12:02:54.437500,-46.12
12:02:54.453125,-46.62
12:02:54.468750,-44.79
12:02:54.484375,-40.97
12:02:54.500000,-35.85
12:02:54.515625,-30.23
12:02:54.531250,-24.67
12:02:54.546875,-19.24
12:02:54.562500,-13.58
12:02:54.578125,-7.12
12:02:54.593750,0.51
12:02:54.609375,9.24
12:02:54.625000,18.53
12:02:54.640625,27.56
12:02:54.656250,35.59
12:02:54.671875,42.06
12:02:54.687500,46.80
12:02:54.703125,49.84
12:02:54.718750,51.35
12:02:54.734375,51.61
12:02:54.750000,50.87
12:02:54.765625,49.44
12:02:54.781250,47.62
12:02:54.796875,45.67
12:02:54.812500,43.77
12:02:54.828125,41.98
12:02:54.843750,40.19
12:02:54.859375,38.19
12:02:54.875000,35.74
12:02:54.890625,32.64
12:02:54.906250,28.88
12:02:54.921875,24.60
12:02:54.937500,20.10
12:02:54.953125,15.70
12:02:54.968750,11.64
12:02:54.984375,7.90
12:02:55,4.29
12:02:55.015625,0.51
12:02:55.031250,-3.72
12:02:55.046875,-8.46
12:02:55.062500,-13.62
12:02:55.078125,-18.87
12:02:55.093750,-23.92
12:02:55.109375,-28.55
12:02:55.125000,-32.72
12:02:55.140625,-36.48
12:02:55.156250,-39.81
12:02:55.171875,-42.46
12:02:55.187500,-43.98
12:02:55.203125,-43.80
12:02:55.218750,-41.55
12:02:55.234375,-37.27
12:02:55.250000,-31.48
12:02:55.265625,-24.91
12:02:55.281250,-18.29
12:02:55.296875,-12.03
12:02:55.312500,-6.22
12:02:55.328125,-0.78
12:02:55.343750,4.33
12:02:55.359375,8.97
12:02:55.375000,12.90
12:02:55.390625,15.87
12:02:55.406250,17.80
12:02:55.421875,18.86
12:02:55.437500,19.35
12:02:55.453125,19.60
12:02:55.468750,19.82
12:02:55.484375,20.05
12:02:55.500000,20.19
12:02:55.515625,20.21
12:02:55.531250,20.17
12:02:55.546875,20.29
12:02:55.562500,20.89
12:02:55.578125,22.14
12:02:55.593750,23.93
12:02:55.609375,25.77
12:02:55.625000,26.93
12:02:55.640625,26.71
12:02:55.656250,24.66
12:02:55.671875,20.83
12:02:55.687500,15.64
12:02:55.703125,9.70
12:02:55.718750,3.59
12:02:55.734375,-2.30
12:02:55.750000,-7.80
12:02:55.765625,-12.84
12:02:55.781250,-17.36
12:02:55.796875,-21.34
12:02:55.812500,-24.78
12:02:55.828125,-27.84
12:02:55.843750,-30.81
12:02:55.859375,-34.03
12:02:55.875000,-37.66
12:02:55.890625,-41.56
12:02:55.906250,-45.20
12:02:55.921875,-47.77
12:02:55.937500,-48.50
12:02:55.953125,-46.90
12:02:55.968750,-42.97
12:02:55.984375,-37.15
12:02:56,-30.15
12:02:56.015625,-22.68
12:02:56.031250,-15.27
12:02:56.046875,-8.18
12:02:56.062500,-1.50
12:02:56.078125,4.65
12:02:56.093750,10.06
12:02:56.109375,14.48
12:02:56.125000,17.68
12:02:56.140625,19.71
12:02:56.156250,20.84
12:02:56.171875,21.51
12:02:56.187500,22.12
12:02:56.203125,22.86
12:02:56.218750,23.68
12:02:56.234375,24.35
12:02:56.250000,24.65
12:02:56.265625,24.46
12:02:56.281250,23.81
12:02:56.296875,22.80
12:02:56.312500,21.53
12:02:56.328125,20.05
12:02:56.343750,18.35
12:02:56.359375,16.43
12:02:56.375000,14.27
12:02:56.390625,11.92
12:02:56.406250,9.39
12:02:56.421875,6.80
12:02:56.437500,4.27
12:02:56.453125,1.95
12:02:56.468750,-0.09
12:02:56.484375,-1.94
12:02:56.500000,-3.80
12:02:56.515625,-5.96
12:02:56.531250,-8.68
12:02:56.546875,-12.04
12:02:56.562500,-16.00
12:02:56.578125,-20.40
12:02:56.593750,-25.05
12:02:56.609375,-29.64
12:02:56.625000,-33.81
12:02:56.640625,-37.07
12:02:56.656250,-38.90
12:02:56.671875,-38.84
12:02:56.687500,-36.73
12:02:56.703125,-32.71
12:02:56.718750,-27.26
12:02:56.734375,-20.95
12:02:56.750000,-14.41
12:02:56.765625,-8.06
12:02:56.781250,-2.16
12:02:56.796875,3.18
12:02:56.812500,7.87
12:02:56.828125,11.86
12:02:56.843750,15.04
12:02:56.859375,17.31
12:02:56.875000,18.72
12:02:56.890625,19.47
12:02:56.906250,19.85
12:02:56.921875,20.18
12:02:56.937500,20.56
12:02:56.953125,20.89
12:02:56.968750,20.93
12:02:56.984375,20.43
12:02:57,19.35
12:02:57.015625,17.90
12:02:57.031250,16.34
12:02:57.046875,14.89
12:02:57.062500,13.50
12:02:57.078125,11.95
12:02:57.093750,9.97
12:02:57.109375,7.42
12:02:57.125000,4.40
12:02:57.140625,1.15
12:02:57.156250,-2.06
12:02:57.171875,-5.11
12:02:57.187500,-7.99
12:02:57.203125,-10.76
12:02:57.218750,-13.53
12:02:57.234375,-16.40
12:02:57.250000,-19.57
12:02:57.265625,-23.20
12:02:57.281250,-27.46
12:02:57.296875,-32.33
12:02:57.312500,-37.46
12:02:57.328125,-42.18
12:02:57.343750,-45.64
12:02:57.359375,-47.06
12:02:57.375000,-45.99
12:02:57.390625,-42.48
12:02:57.406250,-36.99
12:02:57.421875,-30.22
12:02:57.437500,-22.85
12:02:57.453125,-15.38
12:02:57.468750,-8.09
12:02:57.484375,-1.09
12:02:57.500000,5.49
12:02:57.515625,11.53
12:02:57.531250,16.77
12:02:57.546875,21.04
12:02:57.562500,24.25
12:02:57.578125,26.52
12:02:57.593750,28.10
12:02:57.609375,29.30
12:02:57.625000,30.35
12:02:57.640625,31.29
12:02:57.656250,32.00
12:02:57.671875,32.27
12:02:57.687500,31.92
12:02:57.703125,30.90
12:02:57.718750,29.30
12:02:57.734375,27.35
12:02:57.750000,25.22
12:02:57.765625,23.00
12:02:57.781250,20.62
12:02:57.796875,17.95
12:02:57.812500,14.89
12:02:57.828125,11.47
12:02:57.843750,7.85
12:02:57.859375,4.26
12:02:57.875000,0.94
12:02:57.890625,-2.00
12:02:57.906250,-4.56
12:02:57.921875,-6.89
12:02:57.937500,-9.22
12:02:57.953125,-11.74
12:02:57.968750,-14.67
12:02:57.984375,-18.10
12:02:58,-22.07
12:02:58.015625,-26.46
12:02:58.031250,-30.99
12:02:58.046875,-35.16
12:02:58.062500,-38.36
12:02:58.078125,-40.00
12:02:58.093750,-39.71
12:02:58.109375,-37.46
12:02:58.125000,-33.52
12:02:58.140625,-28.35
12:02:58.156250,-22.42
12:02:58.171875,-16.05
12:02:58.187500,-9.41
12:02:58.203125,-2.64
12:02:58.218750,4.08
12:02:58.234375,10.40
12:02:58.250000,15.96
12:02:58.265625,20.52
12:02:58.281250,24.03
12:02:58.296875,26.60
12:02:58.312500,28.41
12:02:58.328125,29.64
12:02:58.343750,30.39
12:02:58.359375,30.75
12:02:58.375000,30.83
12:02:58.390625,30.69
12:02:58.406250,30.38
12:02:58.421875,29.86
12:02:58.437500,29.06
12:02:58.453125,27.99
12:02:58.468750,26.71
12:02:58.484375,25.34
12:02:58.500000,23.94
12:02:58.515625,22.43
12:02:58.531250,20.63
12:02:58.546875,18.35
12:02:58.562500,15.53
12:02:58.578125,12.23
12:02:58.593750,8.68
12:02:58.609375,5.14
12:02:58.625000,1.78
12:02:58.640625,-1.30
12:02:58.656250,-4.14
12:02:58.671875,-6.84
12:02:58.687500,-9.52
12:02:58.703125,-12.33
12:02:58.718750,-15.41
12:02:58.734375,-18.82
12:02:58.750000,-22.55
12:02:58.765625,-26.41
12:02:58.781250,-30.01
12:02:58.796875,-32.82
12:02:58.812500,-34.26
12:02:58.828125,-33.86
12:02:58.843750,-31.41
12:02:58.859375,-27.08
12:02:58.875000,-21.35
12:02:58.890625,-14.87
12:02:58.906250,-8.24
12:02:58.921875,-1.84
12:02:58.937500,4.20
12:02:58.953125,9.88
12:02:58.968750,15.17
12:02:58.984375,19.82
12:02:59,23.45
12:02:59.015625,25.74
12:02:59.031250,26.58
12:02:59.046875,26.25
12:02:59.062500,25.29
12:02:59.078125,24.36
12:02:59.093750,23.88
12:02:59.109375,23.91
12:02:59.125000,24.16
12:02:59.140625,24.18
12:02:59.156250,23.64
12:02:59.171875,22.48
12:02:59.187500,20.95
12:02:59.203125,19.40
12:02:59.218750,18.10
12:02:59.234375,17.09
12:02:59.250000,16.12
12:02:59.265625,14.85
12:02:59.281250,13.02
12:02:59.296875,10.55
12:02:59.312500,7.62
12:02:59.328125,4.58
12:02:59.343750,1.80
12:02:59.359375,-0.46
12:02:59.375000,-2.12
12:02:59.390625,-3.32
12:02:59.406250,-4.34
12:02:59.421875,-5.46
12:02:59.437500,-6.90
12:02:59.453125,-8.75
12:02:59.468750,-11.03
12:02:59.484375,-13.80
12:02:59.500000,-17.13
12:02:59.515625,-21.04
12:02:59.531250,-25.34
12:02:59.546875,-29.45
12:02:59.562500,-32.56
12:02:59.578125,-33.78
12:02:59.593750,-32.57
12:02:59.609375,-28.94
12:02:59.625000,-23.46
12:02:59.640625,-16.99
12:02:59.656250,-10.35
12:02:59.671875,-4.04
12:02:59.687500,1.81
12:02:59.703125,7.23
12:02:59.718750,12.22
12:02:59.734375,16.60
12:02:59.750000,20.05
12:02:59.765625,22.31
12:02:59.781250,23.28
12:02:59.796875,23.20
12:02:59.812500,22.49
12:02:59.828125,21.64
12:02:59.843750,21.00
12:02:59.859375,20.66
12:02:59.875000,20.47
12:02:59.890625,20.16
12:02:59.906250,19.51
12:02:59.921875,18.44
12:02:59.937500,17.07
12:02:59.953125,15.62
12:02:59.968750,14.30
12:02:59.984375,13.24
12:03:00,12.44
12:03:00.015625,11.77
12:03:00.031250,11.06
12:03:00.046875,10.15
12:03:00.062500,8.99
12:03:00.078125,7.60
12:03:00.093750,6.05
12:03:00.109375,4.47
12:03:00.125000,2.92
12:03:00.140625,1.41
12:03:00.156250,-0.14
12:03:00.171875,-1.81
12:03:00.187500,-3.73
12:03:00.203125,-6.01
12:03:00.218750,-8.72
12:03:00.234375,-11.89
12:03:00.250000,-15.50
12:03:00.265625,-19.42
12:03:00.281250,-23.39
12:03:00.296875,-26.97
12:03:00.312500,-29.66
12:03:00.328125,-30.93
12:03:00.343750,-30.51
12:03:00.359375,-28.33
12:03:00.375000,-24.67
12:03:00.390625,-19.98
12:03:00.406250,-14.75
12:03:00.421875,-9.37
12:03:00.437500,-4.05
12:03:00.453125,1.05
12:03:00.468750,5.75
12:03:00.484375,9.82
12:03:00.500000,12.97
12:03:00.515625,15.06
12:03:00.531250,16.16
12:03:00.546875,16.54
12:03:00.562500,16.58
12:03:00.578125,16.59
12:03:00.593750,16.72
12:03:00.609375,16.94
12:03:00.625000,17.15
12:03:00.640625,17.29
12:03:00.656250,17.30
12:03:00.671875,17.22
12:03:00.687500,17.01
12:03:00.703125,16.62
12:03:00.718750,15.93
12:03:00.734375,14.84
12:03:00.750000,13.35
12:03:00.765625,11.47
12:03:00.781250,9.30
12:03:00.796875,6.91
12:03:00.812500,4.38
12:03:00.828125,1.81
12:03:00.843750,-0.73
12:03:00.859375,-3.21
12:03:00.875000,-5.65
12:03:00.890625,-8.12
12:03:00.906250,-10.69
12:03:00.921875,-13.41
12:03:00.937500,-16.31
12:03:00.953125,-19.38
12:03:00.968750,-22.61
12:03:00.984375,-25.91
12:03:01,-29.12
12:03:01.015625,-31.92
12:03:01.031250,-33.90
12:03:01.046875,-34.64
12:03:01.062500,-33.90
12:03:01.078125,-31.66
12:03:01.093750,-28.15
12:03:01.109375,-23.73
12:03:01.125000,-18.80
12:03:01.140625,-13.70
12:03:01.156250,-8.70
12:03:01.171875,-4.02
12:03:01.187500,0.13
12:03:01.203125,3.64
12:03:01.218750,6.41
12:03:01.234375,8.50
12:03:01.250000,10.02
12:03:01.265625,11.10
12:03:01.281250,11.84
12:03:01.296875,12.33
12:03:01.312500,12.56
12:03:01.328125,12.56
12:03:01.343750,12.38
12:03:01.359375,12.04
12:03:01.375000,11.57
12:03:01.390625,11.00
12:03:01.406250,10.34
12:03:01.421875,9.61
12:03:01.437500,8.82
12:03:01.453125,8.01
12:03:01.468750,7.20
12:03:01.484375,6.38
12:03:01.500000,5.46
12:03:01.515625,4.39
12:03:01.531250,3.09
12:03:01.546875,1.53
12:03:01.562500,-0.26
12:03:01.578125,-2.17
12:03:01.593750,-4.11
12:03:01.609375,-5.96
12:03:01.625000,-7.65
12:03:01.640625,-9.16
12:03:01.656250,-10.54
12:03:01.671875,-11.89
12:03:01.687500,-13.38
12:03:01.703125,-15.22
12:03:01.718750,-17.56
12:03:01.734375,-20.48
12:03:01.750000,-23.83
12:03:01.765625,-27.21
12:03:01.781250,-30.05
12:03:01.796875,-31.77
12:03:01.812500,-31.99
12:03:01.828125,-30.64
12:03:01.843750,-27.91
12:03:01.859375,-24.18
12:03:01.875000,-19.81
12:03:01.890625,-15.10
12:03:01.906250,-10.24
12:03:01.921875,-5.42
12:03:01.937500,-0.88
12:03:01.953125,3.18
12:03:01.968750,6.53
12:03:01.984375,9.08
12:03:02,10.86
12:03:02.015625,11.95
12:03:02.031250,12.48
12:03:02.046875,12.54
12:03:02.062500,12.18
12:03:02.078125,11.50
12:03:02.093750,10.63
12:03:02.109375,9.78
12:03:02.125000,9.16
12:03:02.140625,8.88
12:03:02.156250,8.93
12:03:02.171875,9.17
12:03:02.187500,9.40
12:03:02.203125,9.47
12:03:02.218750,9.32
12:03:02.234375,8.99
12:03:02.250000,8.51
12:03:02.265625,7.91
12:03:02.281250,7.20
12:03:02.296875,6.39
12:03:02.312500,5.57
12:03:02.328125,4.83
12:03:02.343750,4.18
12:03:02.359375,3.48
12:03:02.375000,2.53
12:03:02.390625,1.07
12:03:02.406250,-0.97
12:03:02.421875,-3.55
12:03:02.437500,-6.50
12:03:02.453125,-9.70
12:03:02.468750,-13.07
12:03:02.484375,-16.66
12:03:02.500000,-20.44
12:03:02.515625,-24.26
12:03:02.531250,-27.74
12:03:02.546875,-30.41
12:03:02.562500,-31.86
12:03:02.578125,-31.89
12:03:02.593750,-30.52
12:03:02.609375,-28.02
12:03:02.625000,-24.67
12:03:02.640625,-20.73
12:03:02.656250,-16.38
12:03:02.671875,-11.77
12:03:02.687500,-7.05
12:03:02.703125,-2.44
12:03:02.718750,1.75
12:03:02.734375,5.26
12:03:02.750000,7.92
12:03:02.765625,9.67
12:03:02.781250,10.62
12:03:02.796875,10.99
12:03:02.812500,11.04
12:03:02.828125,11.00
12:03:02.843750,11.01
12:03:02.859375,11.13
12:03:02.875000,11.37
12:03:02.890625,11.69
12:03:02.906250,12.03
12:03:02.921875,12.30
12:03:02.937500,12.40
12:03:02.953125,12.27
12:03:02.968750,11.92
12:03:02.984375,11.39
12:03:03,10.75
12:03:03.015625,10.05
12:03:03.031250,9.28
12:03:03.046875,8.40
12:03:03.062500,7.34
12:03:03.078125,6.02
12:03:03.093750,4.37
12:03:03.109375,2.33
12:03:03.125000,-0.05
12:03:03.140625,-2.77
12:03:03.156250,-5.64
12:03:03.171875,-8.46
12:03:03.187500,-11.00
12:03:03.203125,-13.14
12:03:03.218750,-15.01
12:03:03.234375,-16.97
12:03:03.250000,-19.39
12:03:03.265625,-22.49
12:03:03.281250,-26.12
12:03:03.296875,-29.70
12:03:03.312500,-32.44
12:03:03.328125,-33.53
12:03:03.343750,-32.51
12:03:03.359375,-29.37
12:03:03.375000,-24.58
12:03:03.390625,-18.83
12:03:03.406250,-12.88
12:03:03.421875,-7.24
12:03:03.437500,-2.16
12:03:03.453125,2.34
12:03:03.468750,6.32
12:03:03.484375,9.78
12:03:03.500000,12.66
12:03:03.515625,14.84
12:03:03.531250,16.28
12:03:03.546875,17.00
12:03:03.562500,17.14
12:03:03.578125,16.84
12:03:03.593750,16.20
12:03:03.609375,15.24
12:03:03.625000,13.98
12:03:03.640625,12.55
12:03:03.656250,11.14
12:03:03.671875,9.98
12:03:03.687500,9.24
12:03:03.703125,8.89
12:03:03.718750,8.76
12:03:03.734375,8.63
12:03:03.750000,8.36
12:03:03.765625,7.93
12:03:03.781250,7.37
12:03:03.796875,6.67
12:03:03.812500,5.73
12:03:03.828125,4.38
12:03:03.843750,2.52
12:03:03.859375,0.20
12:03:03.875000,-2.31
12:03:03.890625,-4.63
12:03:03.906250,-6.39
12:03:03.921875,-7.48
12:03:03.937500,-8.03
12:03:03.953125,-8.44
12:03:03.968750,-9.19
12:03:03.984375,-10.77
12:03:04,-13.37
12:03:04.015625,-16.92
12:03:04.031250,-20.95
12:03:04.046875,-24.69
12:03:04.062500,-27.31
12:03:04.078125,-28.17
12:03:04.093750,-27.05
12:03:04.109375,-24.18
12:03:04.125000,-20.08
12:03:04.140625,-15.31
12:03:04.156250,-10.17
12:03:04.171875,-4.66
12:03:04.187500,1.53
12:03:04.203125,8.86
12:03:04.218750,17.77
12:03:04.234375,28.48
12:03:04.250000,40.79
12:03:04.265625,53.90
12:03:04.281250,66.37
12:03:04.296875,76.29
12:03:04.312500,82.01
12:03:04.328125,82.76
12:03:04.343750,79.21
12:03:04.359375,73.26
12:03:04.375000,67.16
12:03:04.390625,62.63
12:03:04.406250,60.19
12:03:04.421875,59.29
12:03:04.437500,59.07
12:03:04.453125,59.11
12:03:04.468750,59.77
12:03:04.484375,61.85
12:03:04.500000,65.93
12:03:04.515625,71.78
12:03:04.531250,78.19
12:03:04.546875,83.38
12:03:04.562500,85.69
12:03:04.578125,84.08
12:03:04.593750,78.22
12:03:04.609375,68.38
12:03:04.625000,55.17
12:03:04.640625,39.29
12:03:04.656250,21.61
12:03:04.671875,3.39
12:03:04.687500,-13.51
12:03:04.703125,-26.84
12:03:04.718750,-34.60
12:03:04.734375,-35.98
12:03:04.750000,-32.16
12:03:04.765625,-26.28
12:03:04.781250,-22.43
12:03:04.796875,-24.06
12:03:04.812500,-32.54
12:03:04.828125,-46.64
12:03:04.843750,-63.37
12:03:04.859375,-79.33
12:03:04.875000,-92.22
12:03:04.890625,-101.29
12:03:04.906250,-106.96
12:03:04.921875,-109.91
12:03:04.937500,-110.46
12:03:04.953125,-108.51
12:03:04.968750,-103.99
12:03:04.984375,-97.38
12:03:05,-89.85
12:03:05.015625,-82.85
12:03:05.031250,-77.49
12:03:05.046875,-74.15
12:03:05.062500,-72.33
12:03:05.078125,-71.00
12:03:05.093750,-69.04
12:03:05.109375,-65.75
12:03:05.125000,-61.00
12:03:05.140625,-55.30
12:03:05.156250,-49.53
12:03:05.171875,-44.60
12:03:05.187500,-41.07
12:03:05.203125,-38.97
12:03:05.218750,-37.81
12:03:05.234375,-36.84
12:03:05.250000,-35.41
12:03:05.265625,-33.26
12:03:05.281250,-30.57
12:03:05.296875,-27.81
12:03:05.312500,-25.44
12:03:05.328125,-23.67
12:03:05.343750,-22.39
12:03:05.359375,-21.34
12:03:05.375000,-20.25
12:03:05.390625,-19.09
12:03:05.406250,-18.05
12:03:05.421875,-17.42
12:03:05.437500,-17.40
12:03:05.453125,-18.04
12:03:05.468750,-19.24
12:03:05.484375,-20.89
12:03:05.500000,-22.95
12:03:05.515625,-25.39
12:03:05.531250,-28.17
12:03:05.546875,-31.01
12:03:05.562500,-33.45
12:03:05.578125,-34.84
12:03:05.593750,-34.61
12:03:05.609375,-32.45
12:03:05.625000,-28.40
12:03:05.640625,-22.88
12:03:05.656250,-16.47
12:03:05.671875,-9.76
12:03:05.687500,-3.15
12:03:05.703125,3.16
12:03:05.718750,9.10
12:03:05.734375,14.63
12:03:05.750000,19.63
12:03:05.765625,23.88
12:03:05.781250,27.16
12:03:05.796875,29.32
12:03:05.812500,30.45
12:03:05.828125,30.84
12:03:05.843750,30.90
12:03:05.859375,30.98
12:03:05.875000,31.20
12:03:05.890625,31.49
12:03:05.906250,31.64
12:03:05.921875,31.45
12:03:05.937500,30.87
12:03:05.953125,30.01
12:03:05.968750,29.03
12:03:05.984375,28.07
12:03:06,27.14
12:03:06.015625,26.14
12:03:06.031250,24.93
12:03:06.046875,23.37
12:03:06.062500,21.42
12:03:06.078125,19.10
12:03:06.093750,16.42
12:03:06.109375,13.45
12:03:06.125000,10.28
12:03:06.140625,6.98
12:03:06.156250,3.65
12:03:06.171875,0.30
12:03:06.187500,-3.10
12:03:06.203125,-6.67
12:03:06.218750,-10.59
12:03:06.234375,-14.98
12:03:06.250000,-19.91
12:03:06.265625,-25.23
12:03:06.281250,-30.53
12:03:06.296875,-35.16
12:03:06.312500,-38.38
12:03:06.328125,-39.54
12:03:06.343750,-38.30
12:03:06.359375,-34.79
12:03:06.375000,-29.53
12:03:06.390625,-23.24
12:03:06.406250,-16.60
12:03:06.421875,-10.04
12:03:06.437500,-3.76
12:03:06.453125,2.23
12:03:06.468750,7.90
12:03:06.484375,13.05
12:03:06.500000,17.40
12:03:06.515625,20.66
12:03:06.531250,22.71
12:03:06.546875,23.69
12:03:06.562500,23.94
12:03:06.578125,23.92
12:03:06.593750,24.03
12:03:06.609375,24.45
12:03:06.625000,25.16
12:03:06.640625,25.97
12:03:06.656250,26.71
12:03:06.671875,27.25
12:03:06.687500,27.62
12:03:06.703125,27.92
12:03:06.718750,28.21
12:03:06.734375,28.44
12:03:06.750000,28.36
12:03:06.765625,27.67
12:03:06.781250,26.10
12:03:06.796875,23.54
12:03:06.812500,20.11
12:03:06.828125,16.10
12:03:06.843750,11.91
12:03:06.859375,7.85
12:03:06.875000,4.06
12:03:06.890625,0.49
12:03:06.906250,-3.06
12:03:06.921875,-6.84
12:03:06.937500,-11.04
12:03:06.953125,-15.74
12:03:06.968750,-20.92
12:03:06.984375,-26.48
12:03:07,-32.17
12:03:07.015625,-37.63
12:03:07.031250,-42.28
12:03:07.046875,-45.47
12:03:07.062500,-46.56
12:03:07.078125,-45.13
12:03:07.093750,-41.18
12:03:07.109375,-35.09
12:03:07.125000,-27.53
12:03:07.140625,-19.21
12:03:07.156250,-10.67
12:03:07.171875,-2.27
12:03:07.187500,5.76
12:03:07.203125,13.23
12:03:07.218750,19.82
12:03:07.234375,25.16
12:03:07.250000,28.97
12:03:07.265625,31.20
12:03:07.281250,32.15
12:03:07.296875,32.32
12:03:07.312500,32.30
12:03:07.328125,32.44
12:03:07.343750,32.82
12:03:07.359375,33.23
12:03:07.375000,33.27
12:03:07.390625,32.70
12:03:07.406250,31.46
12:03:07.421875,29.80
12:03:07.437500,28.06
12:03:07.453125,26.50
12:03:07.468750,25.19
12:03:07.484375,23.91
12:03:07.500000,22.38
12:03:07.515625,20.34
12:03:07.531250,17.72
12:03:07.546875,14.66
12:03:07.562500,11.39
12:03:07.578125,8.18
12:03:07.593750,5.20
12:03:07.609375,2.47
12:03:07.625000,-0.10
12:03:07.640625,-2.71
12:03:07.656250,-5.60
12:03:07.671875,-9.09
12:03:07.687500,-13.48
12:03:07.703125,-18.87
12:03:07.718750,-25.09
12:03:07.734375,-31.56
12:03:07.750000,-37.37
12:03:07.765625,-41.57
12:03:07.781250,-43.40
12:03:07.796875,-42.64
12:03:07.812500,-39.54
12:03:07.828125,-34.69
12:03:07.843750,-28.74
12:03:07.859375,-22.14
12:03:07.875000,-15.10
12:03:07.890625,-7.66
12:03:07.906250,0.05
12:03:07.921875,7.75
12:03:07.937500,15.01
12:03:07.953125,21.36
12:03:07.968750,26.47
12:03:07.984375,30.25
12:03:08,32.82
12:03:08.015625,34.42
12:03:08.031250,35.33
12:03:08.046875,35.77
12:03:08.062500,35.92
12:03:08.078125,35.86
12:03:08.093750,35.65
12:03:08.109375,35.29
12:03:08.125000,34.77
12:03:08.140625,34.08
12:03:08.156250,33.27
12:03:08.171875,32.41
12:03:08.187500,31.55
12:03:08.203125,30.75
12:03:08.218750,29.91
12:03:08.234375,28.92
12:03:08.250000,27.57
12:03:08.265625,25.70
12:03:08.281250,23.26
12:03:08.296875,20.35
12:03:08.312500,17.13
12:03:08.328125,13.80
12:03:08.343750,10.42
12:03:08.359375,6.90
12:03:08.375000,3.02
12:03:08.390625,-1.43
12:03:08.406250,-6.66
12:03:08.421875,-12.67
12:03:08.437500,-19.33
12:03:08.453125,-26.32
12:03:08.468750,-33.16
12:03:08.484375,-39.27
12:03:08.500000,-43.99
12:03:08.515625,-46.72
12:03:08.531250,-47.03
12:03:08.546875,-44.81
12:03:08.562500,-40.25
12:03:08.578125,-33.83
12:03:08.593750,-26.15
12:03:08.609375,-17.79
12:03:08.625000,-9.26
12:03:08.640625,-0.87
12:03:08.656250,7.13
12:03:08.671875,14.50
12:03:08.687500,21.00
12:03:08.703125,26.37
12:03:08.718750,30.41
12:03:08.734375,33.10
12:03:08.750000,34.64
12:03:08.765625,35.39
12:03:08.781250,35.77
12:03:08.796875,36.14
12:03:08.812500,36.69
12:03:08.828125,37.39
12:03:08.843750,38.11
12:03:08.859375,38.69
12:03:08.875000,38.98
12:03:08.890625,38.92
12:03:08.906250,38.48
12:03:08.921875,37.63
12:03:08.937500,36.35
12:03:08.953125,34.67
12:03:08.968750,32.64
12:03:08.984375,30.36
12:03:09,27.92
12:03:09.015625,25.38
12:03:09.031250,22.77
12:03:09.046875,20.01
12:03:09.062500,16.99
12:03:09.078125,13.62
12:03:09.093750,9.86
12:03:09.109375,5.85
12:03:09.125000,1.76
12:03:09.140625,-2.18
12:03:09.156250,-5.86
12:03:09.171875,-9.39
12:03:09.187500,-13.05
12:03:09.203125,-17.22
12:03:09.218750,-22.24
12:03:09.234375,-28.27
12:03:09.250000,-35.11
12:03:09.265625,-42.19
12:03:09.281250,-48.67
12:03:09.296875,-53.57
12:03:09.312500,-56.05
12:03:09.328125,-55.64
12:03:09.343750,-52.31
12:03:09.359375,-46.53
12:03:09.375000,-39.01
12:03:09.390625,-30.53
12:03:09.406250,-21.68
12:03:09.421875,-12.83
12:03:09.437500,-4.10
12:03:09.453125,4.39
12:03:09.468750,12.46
12:03:09.484375,19.84
12:03:09.500000,26.14
12:03:09.515625,31.04
12:03:09.531250,34.41
12:03:09.546875,36.39
12:03:09.562500,37.32
12:03:09.578125,37.67
12:03:09.593750,37.83
12:03:09.609375,38.00
12:03:09.625000,38.15
12:03:09.640625,38.15
12:03:09.656250,37.87
12:03:09.671875,37.25
12:03:09.687500,36.37
12:03:09.703125,35.31
12:03:09.718750,34.11
12:03:09.734375,32.71
12:03:09.750000,31.02
12:03:09.765625,28.99
12:03:09.781250,26.68
12:03:09.796875,24.23
12:03:09.812500,21.80
12:03:09.828125,19.46
12:03:09.843750,17.16
12:03:09.859375,14.79
12:03:09.875000,12.24
12:03:09.890625,9.52
12:03:09.906250,6.73
12:03:09.921875,3.98
12:03:09.937500,1.34
12:03:09.953125,-1.27
12:03:09.968750,-4.05
12:03:09.984375,-7.24
12:03:10,-11.11
12:03:10.015625,-15.80
12:03:10.031250,-21.27
12:03:10.046875,-27.23
12:03:10.062500,-33.12
12:03:10.078125,-38.15
12:03:10.093750,-41.52
12:03:10.109375,-42.67
12:03:10.125000,-41.36
12:03:10.140625,-37.86
12:03:10.156250,-32.70
12:03:10.171875,-26.51
12:03:10.187500,-19.81
12:03:10.203125,-12.92
12:03:10.218750,-5.97
12:03:10.234375,0.87
12:03:10.250000,7.31
12:03:10.265625,13.01
12:03:10.281250,17.58
12:03:10.296875,20.82
12:03:10.312500,22.73
12:03:10.328125,23.59
12:03:10.343750,23.79
12:03:10.359375,23.74
12:03:10.375000,23.74
12:03:10.390625,23.88
12:03:10.406250,24.12
12:03:10.421875,24.27
12:03:10.437500,24.23
12:03:10.453125,23.99
12:03:10.468750,23.56
12:03:10.484375,23.00
12:03:10.500000,22.26
12:03:10.515625,21.22
12:03:10.531250,19.72
12:03:10.546875,17.72
12:03:10.562500,15.30
12:03:10.578125,12.66
12:03:10.593750,9.99
12:03:10.609375,7.40
12:03:10.625000,4.88
12:03:10.640625,2.35
12:03:10.656250,-0.19
12:03:10.671875,-2.63
12:03:10.687500,-4.81
12:03:10.703125,-6.59
12:03:10.718750,-7.99
12:03:10.734375,-9.19
12:03:10.750000,-10.51
12:03:10.765625,-12.22
12:03:10.781250,-14.54
12:03:10.796875,-17.54
12:03:10.812500,-21.14
12:03:10.828125,-25.08
12:03:10.843750,-28.99
12:03:10.859375,-32.33
12:03:10.875000,-34.56
12:03:10.890625,-35.18
12:03:10.906250,-33.90
12:03:10.921875,-30.76
12:03:10.937500,-26.08
12:03:10.953125,-20.42
12:03:10.968750,-14.36
12:03:10.984375,-8.40
12:03:11,-2.80
12:03:11.015625,2.32
12:03:11.031250,6.85
12:03:11.046875,10.59
12:03:11.062500,13.28
12:03:11.078125,14.66
12:03:11.093750,14.70
12:03:11.109375,13.69
12:03:11.125000,12.17
12:03:11.140625,10.79
12:03:11.156250,10.00
12:03:11.171875,9.96
12:03:11.187500,10.48
12:03:11.203125,11.14
12:03:11.218750,11.58
12:03:11.234375,11.60
12:03:11.250000,11.27
12:03:11.265625,10.79
12:03:11.281250,10.41
12:03:11.296875,10.31
12:03:11.312500,10.48
12:03:11.328125,10.83
12:03:11.343750,11.12
12:03:11.359375,11.13
12:03:11.375000,10.72
12:03:11.390625,9.83
12:03:11.406250,8.55
12:03:11.421875,7.02
12:03:11.437500,5.39
12:03:11.453125,3.69
12:03:11.468750,1.90
12:03:11.484375,-0.09
12:03:11.500000,-2.41
12:03:11.515625,-5.17
12:03:11.531250,-8.48
12:03:11.546875,-12.43
12:03:11.562500,-17.01
12:03:11.578125,-22.04
12:03:11.593750,-27.07
12:03:11.609375,-31.44
12:03:11.625000,-34.39
12:03:11.640625,-35.36
12:03:11.656250,-34.17
12:03:11.671875,-31.07
12:03:11.687500,-26.63
12:03:11.703125,-21.50
12:03:11.718750,-16.17
12:03:11.734375,-10.87
12:03:11.750000,-5.67
12:03:11.765625,-0.64
12:03:11.781250,4.08
12:03:11.796875,8.19
12:03:11.812500,11.43
12:03:11.828125,13.67
12:03:11.843750,15.00
12:03:11.859375,15.68
12:03:11.875000,16.02
12:03:11.890625,16.25
12:03:11.906250,16.48
12:03:11.921875,16.67
12:03:11.937500,16.73
12:03:11.953125,16.63
12:03:11.968750,16.39
12:03:11.984375,16.04
12:03:12,15.63
12:03:12.015625,15.17
12:03:12.031250,14.62
12:03:12.046875,13.91
12:03:12.062500,12.95
12:03:12.078125,11.70
12:03:12.093750,10.09
12:03:12.109375,8.14
12:03:12.125000,5.87
12:03:12.140625,3.40
12:03:12.156250,0.88
12:03:12.171875,-1.56
12:03:12.187500,-3.78
12:03:12.203125,-5.81
12:03:12.218750,-7.72
12:03:12.234375,-9.61
12:03:12.250000,-11.55
12:03:12.265625,-13.59
12:03:12.281250,-15.76
12:03:12.296875,-18.19
12:03:12.312500,-21.04
12:03:12.328125,-24.48
12:03:12.343750,-28.56
12:03:12.359375,-32.99
12:03:12.375000,-37.14
12:03:12.390625,-40.18
12:03:12.406250,-41.38
12:03:12.421875,-40.40
12:03:12.437500,-37.38
12:03:12.453125,-32.97
12:03:12.468750,-27.92
12:03:12.484375,-22.87
12:03:12.500000,-18.09
12:03:12.515625,-13.48
12:03:12.531250,-8.82
12:03:12.546875,-4.03
12:03:12.562500,0.73
12:03:12.578125,5.05
12:03:12.593750,8.49
12:03:12.609375,10.81
12:03:12.625000,12.07
12:03:12.640625,12.52
12:03:12.656250,12.57
12:03:12.671875,12.55
12:03:12.687500,12.61
12:03:12.703125,12.71
12:03:12.718750,12.65
12:03:12.734375,12.21
12:03:12.750000,11.25
12:03:12.765625,9.79
12:03:12.781250,7.99
12:03:12.796875,6.07
12:03:12.812500,4.22
12:03:12.828125,2.50
12:03:12.843750,0.82
12:03:12.859375,-1.03
12:03:12.875000,-3.23
12:03:12.890625,-5.88
12:03:12.906250,-8.92
12:03:12.921875,-12.22
12:03:12.937500,-15.59
12:03:12.953125,-18.84
12:03:12.968750,-21.82
12:03:12.984375,-24.43
12:03:13,-26.60
12:03:13.015625,-28.36
12:03:13.031250,-29.95
12:03:13.046875,-31.79
12:03:13.062500,-34.47
12:03:13.078125,-38.47
12:03:13.093750,-43.90
12:03:13.109375,-50.23
12:03:13.125000,-56.23
12:03:13.140625,-60.28
12:03:13.156250,-60.90
12:03:13.171875,-57.41
12:03:13.187500,-50.24
12:03:13.203125,-40.79
12:03:13.218750,-30.90
12:03:13.234375,-22.01
12:03:13.250000,-14.75
12:03:13.265625,-8.81
12:03:13.281250,-3.40
12:03:13.296875,2.14
12:03:13.312500,7.93
12:03:13.328125,13.53
12:03:13.343750,18.27
12:03:13.359375,21.77
12:03:13.375000,24.14
12:03:13.390625,26.04
12:03:13.406250,28.27
12:03:13.421875,31.36
12:03:13.437500,35.26
12:03:13.453125,39.38
12:03:13.468750,42.90
12:03:13.484375,45.23
12:03:13.500000,46.33
12:03:13.515625,46.70
12:03:13.531250,46.98
12:03:13.546875,47.43
12:03:13.562500,47.79
12:03:13.578125,47.57
12:03:13.593750,46.50
12:03:13.609375,44.95
12:03:13.625000,43.66
12:03:13.640625,43.26
12:03:13.656250,43.68
12:03:13.671875,44.13
12:03:13.687500,43.65
12:03:13.703125,41.85
12:03:13.718750,39.23
12:03:13.734375,36.80
12:03:13.750000,35.21
12:03:13.765625,33.99
12:03:13.781250,31.47
12:03:13.796875,25.52
12:03:13.812500,14.86
12:03:13.828125,-0.18
12:03:13.843750,-17.61
12:03:13.859375,-34.57
12:03:13.875000,-48.63
12:03:13.890625,-58.65
12:03:13.906250,-64.95
12:03:13.921875,-68.88
12:03:13.937500,-72.04
12:03:13.953125,-75.42
12:03:13.968750,-79.13
12:03:13.984375,-82.44
12:03:14,-84.35
12:03:14.015625,-84.06
12:03:14.031250,-81.21
12:03:14.046875,-75.97
12:03:14.062500,-68.89
12:03:14.078125,-60.79
12:03:14.093750,-52.72
12:03:14.109375,-45.83
12:03:14.125000,-41.12
12:03:14.140625,-38.96
12:03:14.156250,-38.72
12:03:14.171875,-38.84
12:03:14.187500,-37.39
12:03:14.203125,-32.81
12:03:14.218750,-24.52
12:03:14.234375,-13.17
12:03:14.250000,-0.18
12:03:14.265625,12.88
12:03:14.281250,24.59
12:03:14.296875,33.70
12:03:14.312500,39.39
12:03:14.328125,41.87
12:03:14.343750,43.02
12:03:14.359375,46.36
12:03:14.375000,55.65
12:03:14.390625,72.65
12:03:14.406250,95.28
12:03:14.421875,117.58
12:03:14.437500,132.15
12:03:14.453125,133.78
12:03:14.468750,122.19
12:03:14.484375,102.19
12:03:14.500000,80.86
12:03:14.515625,63.74
12:03:14.531250,52.32
12:03:14.546875,44.28
12:03:14.562500,36.11
12:03:14.578125,26.22
12:03:14.593750,16.23
12:03:14.609375,9.74
12:03:14.625000,9.66
12:03:14.640625,15.92
12:03:14.656250,25.27
12:03:14.671875,33.13
12:03:14.687500,35.94
12:03:14.703125,33.01
12:03:14.718750,26.56
12:03:14.734375,19.84
12:03:14.750000,15.06
12:03:14.765625,11.92
12:03:14.781250,7.88
12:03:14.796875,-0.16
12:03:14.812500,-13.57
12:03:14.828125,-30.48
12:03:14.843750,-45.99
12:03:14.859375,-54.08
12:03:14.875000,-50.38
12:03:14.890625,-34.34
12:03:14.906250,-9.66
12:03:14.921875,17.22
12:03:14.937500,39.95
12:03:14.953125,54.92
12:03:14.968750,62.51
12:03:14.984375,66.32
12:03:15,71.09
12:03:15.015625,80.12
12:03:15.031250,94.02
12:03:15.046875,110.82
12:03:15.062500,127.39
12:03:15.078125,141.36
12:03:15.093750,152.19
12:03:15.109375,161.21
12:03:15.125000,170.75
12:03:15.140625,182.70
12:03:15.156250,197.60
12:03:15.171875,214.48
12:03:15.187500,231.44
12:03:15.203125,246.40
12:03:15.218750,257.70
12:03:15.234375,264.25
12:03:15.250000,265.56
12:03:15.265625,261.88
12:03:15.281250,254.35
12:03:15.296875,245.20
12:03:15.312500,237.33
12:03:15.328125,233.47
12:03:15.343750,234.82
12:03:15.359375,240.20
12:03:15.375000,246.07
12:03:15.390625,247.76
12:03:15.406250,241.29
12:03:15.421875,224.82
12:03:15.437500,199.16
12:03:15.453125,167.09
12:03:15.468750,131.89
12:03:15.484375,96.11
12:03:15.500000,61.07
12:03:15.515625,27.08
12:03:15.531250,-5.88
12:03:15.546875,-37.73
12:03:15.562500,-68.32
12:03:15.578125,-97.85
12:03:15.593750,-127.32
12:03:15.609375,-158.09
12:03:15.625000,-191.09
12:03:15.640625,-225.61
12:03:15.656250,-258.91
12:03:15.671875,-286.79
12:03:15.687500,-304.94
12:03:15.703125,-310.75
12:03:15.718750,-304.33
12:03:15.734375,-288.42
12:03:15.750000,-267.28
12:03:15.765625,-245.11
12:03:15.781250,-225.07
12:03:15.796875,-208.99
12:03:15.812500,-197.95
12:03:15.828125,-192.91
12:03:15.843750,-194.92
12:03:15.859375,-204.75
12:03:15.875000,-222.14
12:03:15.890625,-245.35
12:03:15.906250,-271.32
12:03:15.921875,-296.43
12:03:15.937500,-317.57
12:03:15.953125,-332.84
12:03:15.968750,-341.55
12:03:15.984375,-343.93
12:03:16,-340.34
12:03:16.015625,-330.96
12:03:16.031250,-315.91
12:03:16.046875,-295.84
12:03:16.062500,-272.50
12:03:16.078125,-248.96
12:03:16.093750,-229.18
12:03:16.109375,-216.94
12:03:16.125000,-214.49
12:03:16.140625,-221.55
12:03:16.156250,-234.95
12:03:16.171875,-249.43
12:03:16.187500,-259.15
12:03:16.203125,-259.38
12:03:16.218750,-247.69
12:03:16.234375,-224.27
12:03:16.250000,-191.37
12:03:16.265625,-152.31
12:03:16.281250,-110.58
12:03:16.296875,-69.32
12:03:16.312500,-31.20
12:03:16.328125,1.68
12:03:16.343750,28.07
12:03:16.359375,47.72
12:03:16.375000,61.49
12:03:16.390625,70.96
12:03:16.406250,77.61
12:03:16.421875,82.26
12:03:16.437500,84.85
12:03:16.453125,84.85
12:03:16.468750,81.96
12:03:16.484375,76.53
12:03:16.500000,69.56
12:03:16.515625,62.24
12:03:16.531250,55.42
12:03:16.546875,49.35
12:03:16.562500,43.83
12:03:16.578125,38.60
12:03:16.593750,33.67
12:03:16.609375,29.37
12:03:16.625000,26.11
12:03:16.640625,23.98
12:03:16.656250,22.69
12:03:16.671875,21.62
12:03:16.687500,20.09
12:03:16.703125,17.83
12:03:16.718750,14.98
12:03:16.734375,12.10
12:03:16.750000,9.81
12:03:16.765625,8.46
12:03:16.781250,7.96
12:03:16.796875,7.87
12:03:16.812500,7.71
12:03:16.828125,7.24
12:03:16.843750,6.77
12:03:16.859375,7.05
12:03:16.875000,8.96
12:03:16.890625,12.98
12:03:16.906250,18.83
12:03:16.921875,25.40
12:03:16.937500,31.29
12:03:16.953125,35.35
12:03:16.968750,37.28
12:03:16.984375,37.55
12:03:17,37.08
12:03:17.015625,36.62
12:03:17.031250,36.34
12:03:17.046875,35.93
12:03:17.062500,34.88
12:03:17.078125,32.85
12:03:17.093750,29.84
12:03:17.109375,26.14
12:03:17.125000,22.14
12:03:17.140625,18.32
12:03:17.156250,15.15
12:03:17.171875,13.16
12:03:17.187500,12.69
12:03:17.203125,13.67
12:03:17.218750,15.44
12:03:17.234375,16.93
12:03:17.250000,17.18
12:03:17.265625,15.88
12:03:17.281250,13.71
12:03:17.296875,12.01
12:03:17.312500,12.14
12:03:17.328125,14.76
12:03:17.343750,19.35
12:03:17.359375,24.46
12:03:17.375000,28.33
12:03:17.390625,29.76
12:03:17.406250,28.71
12:03:17.421875,26.29
12:03:17.437500,24.25
12:03:17.453125,24.14
12:03:17.468750,26.68
12:03:17.484375,31.60
12:03:17.500000,38.04
12:03:17.515625,45.16
12:03:17.531250,52.56
12:03:17.546875,60.45
12:03:17.562500,69.13
12:03:17.578125,78.68
12:03:17.593750,88.66
12:03:17.609375,98.28
12:03:17.625000,106.79
12:03:17.640625,113.72
12:03:17.656250,118.88
12:03:17.671875,122.17
12:03:17.687500,123.41
12:03:17.703125,122.38
12:03:17.718750,119.08
12:03:17.734375,114.17
12:03:17.750000,108.92
12:03:17.765625,104.84
12:03:17.781250,103.04
12:03:17.796875,103.52
12:03:17.812500,105.02
12:03:17.828125,105.48
12:03:17.843750,102.85
12:03:17.859375,95.92
12:03:17.875000,84.74
12:03:17.890625,70.44
12:03:17.906250,54.77
12:03:17.921875,39.52
12:03:17.937500,25.87
12:03:17.953125,13.97
12:03:17.968750,2.55
12:03:17.984375,-10.78
12:03:18,-28.83
12:03:18.015625,-53.28
12:03:18.031250,-83.24
12:03:18.046875,-114.39
12:03:18.062500,-139.56
12:03:18.078125,-150.88
12:03:18.093750,-142.63
12:03:18.109375,-113.59
12:03:18.125000,-67.63
12:03:18.140625,-12.41
12:03:18.156250,43.25
12:03:18.171875,91.88
12:03:18.187500,128.54
12:03:18.203125,150.71
12:03:18.218750,157.51
12:03:18.234375,149.09
12:03:18.250000,126.74
12:03:18.265625,93.53
12:03:18.281250,54.48
12:03:18.296875,15.94
12:03:18.312500,-15.91
12:03:18.328125,-36.93
12:03:18.343750,-46.04
12:03:18.359375,-45.20
12:03:18.375000,-38.26
12:03:18.390625,-29.33
12:03:18.406250,-21.59
12:03:18.421875,-16.62
12:03:18.437500,-14.59
12:03:18.453125,-14.78
12:03:18.468750,-16.16
12:03:18.484375,-17.80
12:03:18.500000,-19.08
12:03:18.515625,-19.68
12:03:18.531250,-19.53
12:03:18.546875,-18.61
12:03:18.562500,-16.89
12:03:18.578125,-14.28
12:03:18.593750,-10.77
12:03:18.609375,-6.41
12:03:18.625000,-1.38
12:03:18.640625,4.17
12:03:18.656250,10.09
12:03:18.671875,16.23
12:03:18.687500,22.33
12:03:18.703125,27.97
12:03:18.718750,32.62
12:03:18.734375,35.84
12:03:18.750000,37.40
12:03:18.765625,37.41
12:03:18.781250,36.24
12:03:18.796875,34.32
12:03:18.812500,32.04
12:03:18.828125,29.61
12:03:18.843750,27.07
12:03:18.859375,24.39
12:03:18.875000,21.49
12:03:18.890625,18.36
12:03:18.906250,15.01
12:03:18.921875,11.53
12:03:18.937500,8.01
12:03:18.953125,4.64
12:03:18.968750,1.57
12:03:18.984375,-1.05
12:03:19,-3.10
12:03:19.015625,-4.51
12:03:19.031250,-5.33
12:03:19.046875,-5.70
12:03:19.062500,-5.80
12:03:19.078125,-5.84
12:03:19.093750,-5.87
12:03:19.109375,-5.78
12:03:19.125000,-5.41
12:03:19.140625,-4.64
12:03:19.156250,-3.56
12:03:19.171875,-2.41
12:03:19.187500,-1.46
12:03:19.203125,-0.83
12:03:19.218750,-0.38
12:03:19.234375,0.15
12:03:19.250000,0.94
12:03:19.265625,2.01
12:03:19.281250,3.20
12:03:19.296875,4.24
12:03:19.312500,4.99
12:03:19.328125,5.52
12:03:19.343750,6.03
12:03:19.359375,6.79
12:03:19.375000,7.93
12:03:19.390625,9.41
12:03:19.406250,10.96
12:03:19.421875,12.20
12:03:19.437500,12.73
12:03:19.453125,12.28
12:03:19.468750,10.85
12:03:19.484375,8.78
12:03:19.500000,6.71
12:03:19.515625,5.25
12:03:19.531250,4.69
12:03:19.546875,4.82
12:03:19.562500,4.99
12:03:19.578125,4.42
12:03:19.593750,2.74
12:03:19.609375,0.33
12:03:19.625000,-1.85
12:03:19.640625,-2.69
12:03:19.656250,-1.56
12:03:19.671875,1.22
12:03:19.687500,4.51
12:03:19.703125,6.74
12:03:19.718750,6.79
12:03:19.734375,4.38
12:03:19.750000,0.27
12:03:19.765625,-4.12
12:03:19.781250,-7.25
12:03:19.796875,-7.94
12:03:19.812500,-5.67
12:03:19.828125,-0.80
12:03:19.843750,5.23
12:03:19.859375,9.64
12:03:19.875000,8.66
12:03:19.890625,-1.46
12:03:19.906250,-22.72
12:03:19.921875,-53.91
12:03:19.937500,-89.97
12:03:19.953125,-123.12
12:03:19.968750,-145.29
12:03:19.984375,-150.80
12:03:20,-138.15
12:03:20.015625,-110.07
12:03:20.031250,-72.08
12:03:20.046875,-30.41
12:03:20.062500,9.56
12:03:20.078125,43.91
12:03:20.093750,69.92
12:03:20.109375,85.60
12:03:20.125000,89.50
12:03:20.140625,80.97
12:03:20.156250,60.75
12:03:20.171875,31.39
12:03:20.187500,-2.82
12:03:20.203125,-36.38
12:03:20.218750,-63.79
12:03:20.234375,-80.87
12:03:20.250000,-85.93
12:03:20.265625,-80.02
12:03:20.281250,-66.32
12:03:20.296875,-48.73
12:03:20.312500,-30.50
12:03:20.328125,-13.50
12:03:20.343750,1.41
12:03:20.359375,13.21
12:03:20.375000,19.72
12:03:20.390625,17.41
12:03:20.406250,2.55
12:03:20.421875,-27.07
12:03:20.437500,-70.46
12:03:20.453125,-123.21
12:03:20.468750,-178.45
12:03:20.484375,-228.91
12:03:20.500000,-268.95
12:03:20.515625,-295.76
12:03:20.531250,-309.56
12:03:20.546875,-312.80
12:03:20.562500,-309.22
12:03:20.578125,-303.09
12:03:20.593750,-298.54
12:03:20.609375,-299.24
12:03:20.625000,-307.70
12:03:20.640625,-324.70
12:03:20.656250,-348.82
12:03:20.671875,-376.43
12:03:20.687500,-402.52
12:03:20.703125,-421.93
12:03:20.718750,-430.61
12:03:20.734375,-426.54
12:03:20.750000,-409.87
12:03:20.765625,-382.52
12:03:20.781250,-347.32
12:03:20.796875,-307.25
12:03:20.812500,-264.92
12:03:20.828125,-222.38
12:03:20.843750,-181.14
12:03:20.859375,-142.22
12:03:20.875000,-106.04
12:03:20.890625,-72.36
12:03:20.906250,-40.22
12:03:20.921875,-8.20
12:03:20.937500,24.97
12:03:20.953125,59.87
12:03:20.968750,96.02
12:03:20.984375,132.05
12:03:21,166.29
12:03:21.015625,197.54
12:03:21.031250,225.73
12:03:21.046875,251.89
12:03:21.062500,278.00
12:03:21.078125,306.37
12:03:21.093750,339.14
12:03:21.109375,377.63
12:03:21.125000,421.65
12:03:21.140625,468.76
12:03:21.156250,514.16
12:03:21.171875,551.42
12:03:21.187500,574.29
12:03:21.203125,578.92
12:03:21.218750,565.61
12:03:21.234375,539.09
12:03:21.250000,507.01
12:03:21.265625,477.22
12:03:21.281250,455.07
12:03:21.296875,442.05
12:03:21.312500,436.00
12:03:21.328125,432.82
12:03:21.343750,428.35
12:03:21.359375,419.65
12:03:21.375000,405.21
12:03:21.390625,384.43
12:03:21.406250,356.91
12:03:21.421875,322.48
12:03:21.437500,281.70
12:03:21.453125,236.59
12:03:21.468750,190.68
12:03:21.484375,148.44
12:03:21.500000,113.90
12:03:21.515625,89.33
12:03:21.531250,74.76
12:03:21.546875,68.17
12:03:21.562500,66.59
12:03:21.578125,67.06
12:03:21.593750,67.37
12:03:21.609375,66.30
12:03:21.625000,63.50
12:03:21.640625,59.22
12:03:21.656250,53.88
12:03:21.671875,47.65
12:03:21.687500,40.12
12:03:21.703125,30.33
12:03:21.718750,17.25
12:03:21.734375,0.52
12:03:21.750000,-18.87
12:03:21.765625,-38.64
12:03:21.781250,-55.95
12:03:21.796875,-68.65
12:03:21.812500,-76.23
12:03:21.828125,-79.98
12:03:21.843750,-82.18
12:03:21.859375,-85.04
12:03:21.875000,-89.82
12:03:21.890625,-96.62
12:03:21.906250,-104.89
12:03:21.921875,-113.99
12:03:21.937500,-123.54
12:03:21.953125,-133.25
12:03:21.968750,-142.56
12:03:21.984375,-150.48
12:03:22,-155.93
12:03:22.015625,-158.29
12:03:22.031250,-158.01
12:03:22.046875,-156.42
12:03:22.062500,-155.09
12:03:22.078125,-154.58
12:03:22.093750,-153.90
12:03:22.109375,-150.79
12:03:22.125000,-142.88
12:03:22.140625,-129.14
12:03:22.156250,-110.53
12:03:22.171875,-89.75
12:03:22.187500,-69.87
12:03:22.203125,-53.19
12:03:22.218750,-40.48
12:03:22.234375,-31.36
12:03:22.250000,-25.08
12:03:22.265625,-21.27
12:03:22.281250,-19.99
12:03:22.296875,-21.32
12:03:22.312500,-24.78
12:03:22.328125,-29.19
12:03:22.343750,-32.96
12:03:22.359375,-34.78
12:03:22.375000,-34.10
12:03:22.390625,-31.35
12:03:22.406250,-27.57
12:03:22.421875,-24.09
12:03:22.437500,-21.91
12:03:22.453125,-21.52
12:03:22.468750,-22.78
12:03:22.484375,-25.01
12:03:22.500000,-27.34
12:03:22.515625,-28.97
12:03:22.531250,-29.50
12:03:22.546875,-28.99
12:03:22.562500,-27.87
12:03:22.578125,-26.62
12:03:22.593750,-25.59
12:03:22.609375,-24.85
12:03:22.625000,-24.34
12:03:22.640625,-24.14
12:03:22.656250,-24.53
12:03:22.671875,-25.98
12:03:22.687500,-28.80
12:03:22.703125,-32.89
12:03:22.718750,-37.73
12:03:22.734375,-42.43
12:03:22.750000,-45.98
12:03:22.765625,-47.64
12:03:22.781250,-47.04
12:03:22.796875,-44.21
12:03:22.812500,-39.49
12:03:22.828125,-33.41
12:03:22.843750,-26.60
12:03:22.859375,-19.68
12:03:22.875000,-13.23
12:03:22.890625,-7.75
12:03:22.906250,-3.46
12:03:22.921875,-0.39
12:03:22.937500,1.69
12:03:22.953125,3.12
12:03:22.968750,4.22
12:03:22.984375,5.22
12:03:23,6.15
12:03:23.015625,6.90
12:03:23.031250,7.25
12:03:23.046875,7.00
12:03:23.062500,5.97
12:03:23.078125,4.13
12:03:23.093750,1.64
12:03:23.109375,-1.26
12:03:23.125000,-4.19
12:03:23.140625,-6.85
12:03:23.156250,-9.06
12:03:23.171875,-11.00
12:03:23.187500,-13.11
12:03:23.203125,-15.91
12:03:23.218750,-19.71
12:03:23.234375,-24.44
12:03:23.250000,-29.52
12:03:23.265625,-34.16
12:03:23.281250,-37.64
12:03:23.296875,-39.67
12:03:23.312500,-40.52
12:03:23.328125,-40.81
12:03:23.343750,-41.28
12:03:23.359375,-42.41
12:03:23.375000,-44.31
12:03:23.390625,-46.67
12:03:23.406250,-48.93
12:03:23.421875,-50.50
12:03:23.437500,-50.89
12:03:23.453125,-49.75
12:03:23.468750,-46.89
12:03:23.484375,-42.28
12:03:23.500000,-36.05
12:03:23.515625,-28.50
12:03:23.531250,-20.08
12:03:23.546875,-11.41
12:03:23.562500,-3.16
12:03:23.578125,4.02
12:03:23.593750,9.65
12:03:23.609375,13.47
12:03:23.625000,15.56
12:03:23.640625,16.29
12:03:23.656250,16.18
12:03:23.671875,15.79
12:03:23.687500,15.58
12:03:23.703125,15.78
12:03:23.718750,16.34
12:03:23.734375,17.07
12:03:23.750000,17.69
12:03:23.765625,17.98
12:03:23.781250,17.85
12:03:23.796875,17.36
12:03:23.812500,16.60
12:03:23.828125,15.61
12:03:23.843750,14.35
12:03:23.859375,12.63
12:03:23.875000,10.26
12:03:23.890625,7.14
12:03:23.906250,3.33
12:03:23.921875,-0.88
12:03:23.937500,-5.11
12:03:23.953125,-8.98
12:03:23.968750,-12.30
12:03:23.984375,-15.11
12:03:24,-17.70
12:03:24.015625,-20.55
12:03:24.031250,-24.09
12:03:24.046875,-28.65
12:03:24.062500,-34.26
12:03:24.078125,-40.70
12:03:24.093750,-47.44
12:03:24.109375,-53.75
12:03:24.125000,-58.82
12:03:24.140625,-62.00
12:03:24.156250,-62.86
12:03:24.171875,-61.30
12:03:24.187500,-57.57
12:03:24.203125,-52.09
12:03:24.218750,-45.34
12:03:24.234375,-37.77
12:03:24.250000,-29.71
12:03:24.265625,-21.41
12:03:24.281250,-13.12
12:03:24.296875,-5.15
12:03:24.312500,2.15
12:03:24.328125,8.44
12:03:24.343750,13.49
12:03:24.359375,17.25
12:03:24.375000,19.86
12:03:24.390625,21.63
12:03:24.406250,22.95
12:03:24.421875,24.14
12:03:24.437500,25.36
12:03:24.453125,26.61
12:03:24.468750,27.76
12:03:24.484375,28.64
12:03:24.500000,29.18
12:03:24.515625,29.38
12:03:24.531250,29.29
12:03:24.546875,28.92
12:03:24.562500,28.18
12:03:24.578125,26.90
12:03:24.593750,24.91
12:03:24.609375,22.15
12:03:24.625000,18.70
12:03:24.640625,14.76
12:03:24.656250,10.53
12:03:24.671875,6.24
12:03:24.687500,2.05
12:03:24.703125,-2.02
12:03:24.718750,-5.99
12:03:24.734375,-10.00
12:03:24.750000,-14.27
12:03:24.765625,-19.02
12:03:24.781250,-24.40
12:03:24.796875,-30.43
12:03:24.812500,-36.93
12:03:24.828125,-43.45
12:03:24.843750,-49.36
12:03:24.859375,-53.88
12:03:24.875000,-56.28
12:03:24.890625,-56.04
12:03:24.906250,-52.95
12:03:24.921875,-47.26
12:03:24.937500,-39.47
12:03:24.953125,-30.20
12:03:24.968750,-19.99
12:03:24.984375,-9.27
12:03:25,1.58
12:03:25.015625,12.13
12:03:25.031250,21.82
12:03:25.046875,30.07
12:03:25.062500,36.38
12:03:25.078125,40.65
12:03:25.093750,43.09
12:03:25.109375,44.24
12:03:25.125000,44.67
12:03:25.140625,44.82
12:03:25.156250,44.93
12:03:25.171875,44.97
12:03:25.187500,44.88
12:03:25.203125,44.59
12:03:25.218750,44.06
12:03:25.234375,43.30
12:03:25.250000,42.31
12:03:25.265625,41.05
12:03:25.281250,39.49
12:03:25.296875,37.56
12:03:25.312500,35.18
12:03:25.328125,32.29
12:03:25.343750,28.80
12:03:25.359375,24.69
12:03:25.375000,20.03
12:03:25.390625,15.04
12:03:25.406250,10.05
12:03:25.421875,5.30
12:03:25.437500,0.89
12:03:25.453125,-3.29
12:03:25.468750,-7.53
12:03:25.484375,-12.14
12:03:25.500000,-17.40
12:03:25.515625,-23.44
12:03:25.531250,-30.20
12:03:25.546875,-37.44
12:03:25.562500,-44.65
12:03:25.578125,-51.09
12:03:25.593750,-55.87
12:03:25.609375,-58.10
12:03:25.625000,-57.20
12:03:25.640625,-53.00
12:03:25.656250,-45.88
12:03:25.671875,-36.52
12:03:25.687500,-25.74
12:03:25.703125,-14.27
12:03:25.718750,-2.65
12:03:25.734375,8.65
12:03:25.750000,19.19
12:03:25.765625,28.44
12:03:25.781250,35.79
12:03:25.796875,40.83
12:03:25.812500,43.46
12:03:25.828125,44.05
12:03:25.843750,43.35
12:03:25.859375,42.27
12:03:25.875000,41.55
12:03:25.890625,41.50
12:03:25.906250,42.01
12:03:25.921875,42.60
12:03:25.937500,42.75
12:03:25.953125,42.17
12:03:25.968750,40.85
12:03:25.984375,39.04
12:03:26,36.99
12:03:26.015625,34.86
12:03:26.031250,32.58
12:03:26.046875,29.94
12:03:26.062500,26.68
12:03:26.078125,22.59
12:03:26.093750,17.48
12:03:26.109375,11.27
12:03:26.125000,3.92
12:03:26.140625,-4.46
12:03:26.156250,-13.68
12:03:26.171875,-23.35
12:03:26.187500,-33.03
12:03:26.203125,-42.26
12:03:26.218750,-50.69
12:03:26.234375,-58.15
12:03:26.250000,-64.57
12:03:26.265625,-69.91
12:03:26.281250,-73.94
12:03:26.296875,-76.22
12:03:26.312500,-76.13
12:03:26.328125,-73.10
12:03:26.343750,-66.79
12:03:26.359375,-57.37
12:03:26.375000,-45.51
12:03:26.390625,-32.17
12:03:26.406250,-18.34
12:03:26.421875,-4.69
12:03:26.437500,8.46
12:03:26.453125,21.04
12:03:26.468750,32.99
12:03:26.484375,43.98
12:03:26.500000,53.46
12:03:26.515625,60.87
12:03:26.531250,65.94
12:03:26.546875,68.87
12:03:26.562500,70.35
12:03:26.578125,71.22
12:03:26.593750,72.11
12:03:26.609375,73.17
12:03:26.625000,74.06
12:03:26.640625,74.26
12:03:26.656250,73.29
12:03:26.671875,71.11
12:03:26.687500,68.02
12:03:26.703125,64.53
12:03:26.718750,61.13
12:03:26.734375,58.01
12:03:26.750000,55.11
12:03:26.765625,52.14
12:03:26.781250,48.77
12:03:26.796875,44.76
12:03:26.812500,40.03
12:03:26.828125,34.71
12:03:26.843750,28.98
12:03:26.859375,23.12
12:03:26.875000,17.31
12:03:26.890625,11.65
12:03:26.906250,6.04
12:03:26.921875,0.25
12:03:26.937500,-6.01
12:03:26.953125,-12.93
12:03:26.968750,-20.56
12:03:26.984375,-28.72
12:03:27,-37.04
12:03:27.015625,-44.94
12:03:27.031250,-51.75
12:03:27.046875,-56.70
12:03:27.062500,-59.11
12:03:27.078125,-58.45
12:03:27.093750,-54.56
12:03:27.109375,-47.64
12:03:27.125000,-38.26
12:03:27.140625,-27.26
12:03:27.156250,-15.47
12:03:27.171875,-3.60
12:03:27.187500,7.87
12:03:27.203125,18.63
12:03:27.218750,28.47
12:03:27.234375,37.08
12:03:27.250000,44.11
12:03:27.265625,49.24
12:03:27.281250,52.32
12:03:27.296875,53.54
12:03:27.312500,53.36
12:03:27.328125,52.46
12:03:27.343750,51.51
12:03:27.359375,50.94
12:03:27.375000,50.84
12:03:27.390625,50.96
12:03:27.406250,51.00
12:03:27.421875,50.62
12:03:27.437500,49.71
12:03:27.453125,48.30
12:03:27.468750,46.55
12:03:27.484375,44.52
12:03:27.500000,42.22
12:03:27.515625,39.54
12:03:27.531250,36.37
12:03:27.546875,32.62
12:03:27.562500,28.30
12:03:27.578125,23.53
12:03:27.593750,18.47
12:03:27.609375,13.28
12:03:27.625000,8.15
12:03:27.640625,3.19
12:03:27.656250,-1.46
12:03:27.671875,-5.79
12:03:27.687500,-9.83
12:03:27.703125,-13.77
12:03:27.718750,-17.88
12:03:27.734375,-22.43
12:03:27.750000,-27.53
12:03:27.765625,-33.12
12:03:27.781250,-38.81
12:03:27.796875,-44.00
12:03:27.812500,-47.98
12:03:27.828125,-50.13
12:03:27.843750,-50.04
12:03:27.859375,-47.57
12:03:27.875000,-42.89
12:03:27.890625,-36.37
12:03:27.906250,-28.46
12:03:27.921875,-19.68
12:03:27.937500,-10.50
12:03:27.953125,-1.42
12:03:27.968750,7.12
12:03:27.984375,14.72
12:03:28,21.08
12:03:28.015625,26.05
12:03:28.031250,29.61
12:03:28.046875,31.91
12:03:28.062500,33.17
12:03:28.078125,33.63
12:03:28.093750,33.54
12:03:28.109375,33.09
12:03:28.125000,32.46
12:03:28.140625,31.69
12:03:28.156250,30.86
12:03:28.171875,29.97
12:03:28.187500,28.99
12:03:28.203125,27.94
12:03:28.218750,26.81
12:03:28.234375,25.59
12:03:28.250000,24.28
12:03:28.265625,22.80
12:03:28.281250,21.11
12:03:28.296875,19.16
12:03:28.312500,16.95
12:03:28.328125,14.51
12:03:28.343750,11.87
12:03:28.359375,9.00
12:03:28.375000,5.92
12:03:28.390625,2.57
12:03:28.406250,-0.99
12:03:28.421875,-4.66
12:03:28.437500,-8.25
12:03:28.453125,-11.62
12:03:28.468750,-14.71
12:03:28.484375,-17.63
12:03:28.500000,-20.63
12:03:28.515625,-24.03
12:03:28.531250,-28.05
12:03:28.546875,-32.65
12:03:28.562500,-37.45
12:03:28.578125,-41.83
12:03:28.593750,-45.03
12:03:28.609375,-46.38
12:03:28.625000,-45.51
12:03:28.640625,-42.45
12:03:28.656250,-37.49
12:03:28.671875,-31.14
12:03:28.687500,-23.93
12:03:28.703125,-16.32
12:03:28.718750,-8.70
12:03:28.734375,-1.43
12:03:28.750000,5.13
12:03:28.765625,10.65
12:03:28.781250,14.87
12:03:28.796875,17.70
12:03:28.812500,19.24
12:03:28.828125,19.77
12:03:28.843750,19.62
12:03:28.859375,19.08
12:03:28.875000,18.35
12:03:28.890625,17.54
12:03:28.906250,16.66
12:03:28.921875,15.72
12:03:28.937500,14.79
12:03:28.953125,13.95
12:03:28.968750,13.29
12:03:28.984375,12.81
12:03:29,12.45
12:03:29.015625,12.00
12:03:29.031250,11.24
12:03:29.046875,10.00
12:03:29.062500,8.24
12:03:29.078125,6.07
12:03:29.093750,3.65
12:03:29.109375,1.22
12:03:29.125000,-1.09
12:03:29.140625,-3.23
12:03:29.156250,-5.21
12:03:29.171875,-7.05
12:03:29.187500,-8.77
12:03:29.203125,-10.36
12:03:29.218750,-11.80
12:03:29.234375,-13.11
12:03:29.250000,-14.39
12:03:29.265625,-15.81
12:03:29.281250,-17.55
12:03:29.296875,-19.78
12:03:29.312500,-22.56
12:03:29.328125,-25.77
12:03:29.343750,-29.10
12:03:29.359375,-32.03
12:03:29.375000,-34.00
12:03:29.390625,-34.59
12:03:29.406250,-33.61
12:03:29.421875,-31.18
12:03:29.437500,-27.64
12:03:29.453125,-23.39
12:03:29.468750,-18.74
12:03:29.484375,-13.88
12:03:29.500000,-8.93
12:03:29.515625,-4.09
12:03:29.531250,0.32
12:03:29.546875,3.86
12:03:29.562500,6.16
