17:37:56,-0.00
17:37:56.015625,-0.00
17:37:56.031250,-0.00
17:37:56.046875,-0.00
17:37:56.062500,-0.00
17:37:56.078125,-0.00
17:37:56.093750,-0.00
17:37:56.109375,-0.00
17:37:56.125000,-0.00
17:37:56.140625,-0.01
17:37:56.156250,-0.00
17:37:56.171875,0.00
17:37:56.187500,0.01
17:37:56.203125,0.01
17:37:56.218750,-0.00
17:37:56.234375,-0.03
17:37:56.250000,-0.05
17:37:56.265625,-0.05
17:37:56.281250,-0.00
17:37:56.296875,0.13
17:37:56.312500,0.36
17:37:56.328125,0.66
17:37:56.343750,1.01
17:37:56.359375,1.37
17:37:56.375000,1.72
17:37:56.390625,2.06
17:37:56.406250,2.40
17:37:56.421875,2.77
17:37:56.437500,3.24
17:37:56.453125,3.80
17:37:56.468750,4.42
17:37:56.484375,5.06
17:37:56.500000,5.66
17:37:56.515625,6.20
17:37:56.531250,6.68
17:37:56.546875,7.15
17:37:56.562500,7.64
17:37:56.578125,8.31
17:37:56.593750,9.14
17:37:56.609375,10.09
17:37:56.625000,11.04
17:37:56.640625,11.88
17:37:56.656250,12.56
17:37:56.671875,13.14
17:37:56.687500,13.76
17:37:56.703125,14.58
17:37:56.718750,15.96
17:37:56.734375,17.91
17:37:56.750000,20.32
17:37:56.765625,22.90
17:37:56.781250,25.38
17:37:56.796875,27.58
17:37:56.812500,29.57
17:37:56.828125,31.68
17:37:56.843750,34.20
17:37:56.859375,37.81
17:37:56.875000,42.54
17:37:56.890625,48.15
17:37:56.906250,54.10
17:37:56.921875,59.83
17:37:56.937500,64.97
17:37:56.953125,69.58
17:37:56.968750,74.14
17:37:56.984375,79.19
17:37:57,85.71
17:37:57.015625,93.76
17:37:57.031250,103.00
17:37:57.046875,112.62
17:37:57.062500,121.73
17:37:57.078125,129.77
17:37:57.093750,136.75
17:37:57.109375,144.29
17:37:57.125000,150.58
17:37:57.140625,157.77
17:37:57.156250,166.64
17:37:57.171875,177.95
17:37:57.187500,191.79
17:37:57.203125,206.97
17:37:57.218750,220.57
17:37:57.234375,228.25
17:37:57.250000,225.36
17:37:57.265625,208.37
17:37:57.281250,176.87
17:37:57.296875,132.76
17:37:57.312500,80.05
17:37:57.328125,23.07
17:37:57.343750,-34.94
17:37:57.359375,-92.44
17:37:57.375000,-149.16
17:37:57.390625,-205.23
17:37:57.406250,-260.49
17:37:57.421875,-313.74
17:37:57.437500,-363.87
17:37:57.453125,-409.83
17:37:57.468750,-450.91
17:37:57.484375,-486.50
17:37:57.500000,-515.74
17:37:57.515625,-537.23
17:37:57.531250,-549.22
17:37:57.546875,-550.04
17:37:57.562500,-538.37
17:37:57.578125,-514.20
17:37:57.593750,-478.67
17:37:57.609375,-433.88
17:37:57.625000,-382.45
17:37:57.640625,-327.02
17:37:57.656250,-269.84
17:37:57.671875,-212.63
17:37:57.687500,-156.70
17:37:57.703125,-102.95
17:37:57.718750,-52.37
17:37:57.734375,-5.90
17:37:57.750000,35.58
17:37:57.765625,71.43
17:37:57.781250,101.35
17:37:57.796875,125.50
17:37:57.812500,144.38
17:37:57.828125,158.68
17:37:57.843750,169.15
17:37:57.859375,176.37
17:37:57.875000,180.75
17:37:57.890625,182.57
17:37:57.906250,182.07
17:37:57.921875,179.51
17:37:57.937500,175.23
17:37:57.953125,169.65
17:37:57.968750,163.18
17:37:57.984375,156.15
17:37:58,148.81
17:37:58.015625,141.30
17:37:58.031250,133.69
17:37:58.046875,126.02
17:37:58.062500,118.33
17:37:58.078125,110.69
17:37:58.093750,103.16
17:37:58.109375,95.80
17:37:58.125000,88.68
17:37:58.140625,81.83
17:37:58.156250,75.25
17:37:58.171875,68.95
17:37:58.187500,62.95
17:37:58.203125,57.25
17:37:58.218750,51.86
17:37:58.234375,46.78
17:37:58.250000,42.03
17:37:58.265625,37.59
17:37:58.281250,33.45
17:37:58.296875,29.61
17:37:58.312500,26.07
17:37:58.328125,22.81
17:37:58.343750,19.82
17:37:58.359375,17.11
17:37:58.375000,14.67
17:37:58.390625,12.48
17:37:58.406250,10.54
17:37:58.421875,8.83
17:37:58.437500,7.35
17:37:58.453125,6.07
17:37:58.468750,4.97
17:37:58.484375,4.05
17:37:58.500000,3.27
17:37:58.515625,2.62
17:37:58.531250,2.09
17:37:58.546875,1.65
17:37:58.562500,1.30
17:37:58.578125,1.01
17:37:58.593750,0.79
17:37:58.609375,0.61
17:37:58.625000,0.47
17:37:58.640625,0.37
17:37:58.656250,0.29
17:37:58.671875,0.23
17:37:58.687500,0.19
17:37:58.703125,0.16
17:37:58.718750,0.14
17:37:58.734375,0.14
17:37:58.750000,0.15
17:37:58.765625,0.16
17:37:58.781250,0.19
17:37:58.796875,0.21
17:37:58.812500,0.25
17:37:58.828125,0.29
17:37:58.843750,0.32
17:37:58.859375,0.37
17:37:58.875000,0.41
17:37:58.890625,0.46
17:37:58.906250,0.51
17:37:58.921875,0.56
17:37:58.937500,0.61
17:37:58.953125,0.66
17:37:58.968750,0.71
17:37:58.984375,0.77
17:37:59,0.84
17:37:59.015625,0.92
17:37:59.031250,1.01
17:37:59.046875,1.11
17:37:59.062500,1.20
17:37:59.078125,1.28
17:37:59.093750,1.33
17:37:59.109375,1.38
17:37:59.125000,1.43
17:37:59.140625,1.52
17:37:59.156250,1.66
17:37:59.171875,1.86
17:37:59.187500,2.11
17:37:59.203125,2.38
17:37:59.218750,2.65
17:37:59.234375,2.91
17:37:59.250000,3.16
17:37:59.265625,3.43
17:37:59.281250,3.76
17:37:59.296875,4.17
17:37:59.312500,4.66
17:37:59.328125,5.22
17:37:59.343750,5.79
17:37:59.359375,6.32
17:37:59.375000,6.80
17:37:59.390625,7.24
17:37:59.406250,7.71
17:37:59.421875,8.28
17:37:59.437500,9.03
17:37:59.453125,9.95
17:37:59.468750,10.96
17:37:59.484375,11.97
17:37:59.500000,12.85
17:37:59.515625,13.54
17:37:59.531250,14.07
17:37:59.546875,14.59
17:37:59.562500,15.29
17:37:59.578125,16.29
17:37:59.593750,17.57
17:37:59.609375,18.90
17:37:59.625000,19.94
17:37:59.640625,20.29
17:37:59.656250,19.68
17:37:59.671875,18.05
17:37:59.687500,15.62
17:37:59.703125,12.69
17:37:59.718750,9.54
17:37:59.734375,6.26
17:37:59.750000,2.65
17:37:59.765625,-1.62
17:37:59.781250,-6.81
17:37:59.796875,-12.99
17:37:59.812500,-19.82
17:37:59.828125,-26.64
17:37:59.843750,-32.71
17:37:59.859375,-37.43
17:37:59.875000,-40.54
17:37:59.890625,-42.24
17:37:59.906250,-43.06
17:37:59.921875,-43.63
17:37:59.937500,-44.55
17:37:59.953125,-46.32
17:37:59.968750,-49.19
17:37:59.984375,-52.88
17:38:00,-56.39
17:38:00.015625,-58.02
17:38:00.031250,-55.83
17:38:00.046875,-48.54
17:38:00.062500,-36.26
17:38:00.078125,-20.85
17:38:00.093750,-5.41
17:38:00.109375,6.88
17:38:00.125000,14.04
17:38:00.140625,15.94
17:38:00.156250,14.07
17:38:00.171875,10.58
17:38:00.187500,7.14
17:38:00.203125,4.46
17:38:00.218750,2.23
17:38:00.234375,-0.26
17:38:00.250000,-3.49
17:38:00.265625,-7.30
17:38:00.281250,-11.13
17:38:00.296875,-14.38
17:38:00.312500,-16.82
17:38:00.328125,-18.73
17:38:00.343750,-20.44
17:38:00.359375,-22.40
17:38:00.375000,-25.06
17:38:00.390625,-28.87
17:38:00.406250,-34.36
17:38:00.421875,-42.03
17:38:00.437500,-52.14
17:38:00.453125,-64.41
17:38:00.468750,-77.99
17:38:00.484375,-91.21
17:38:00.500000,-102.56
17:38:00.515625,-111.25
17:38:00.531250,-117.42
17:38:00.546875,-121.79
17:38:00.562500,-125.05
17:38:00.578125,-127.20
17:38:00.593750,-127.31
17:38:00.609375,-123.91
17:38:00.625000,-115.03
17:38:00.640625,-99.68
17:38:00.656250,-78.28
17:38:00.671875,-52.59
17:38:00.687500,-25.08
17:38:00.703125,2.02
17:38:00.718750,27.69
17:38:00.734375,52.78
17:38:00.750000,75.69
17:38:00.765625,96.56
17:38:00.781250,116.00
17:38:00.796875,134.45
17:38:00.812500,151.98
17:38:00.828125,168.16
17:38:00.843750,182.32
17:38:00.859375,193.71
17:38:00.875000,201.58
17:38:00.890625,205.06
17:38:00.906250,203.88
17:38:00.921875,198.31
17:38:00.937500,189.50
17:38:00.953125,179.34
17:38:00.968750,169.64
17:38:00.984375,161.02
17:38:01,152.31
17:38:01.015625,141.05
17:38:01.031250,124.98
17:38:01.046875,104.13
17:38:01.062500,80.96
17:38:01.078125,59.36
17:38:01.093750,42.77
17:38:01.109375,32.39
17:38:01.125000,26.84
17:38:01.140625,23.30
17:38:01.156250,19.37
17:38:01.171875,14.39
17:38:01.187500,9.60
17:38:01.203125,6.64
17:38:01.218750,5.95
17:38:01.234375,6.24
17:38:01.250000,5.03
17:38:01.265625,0.17
17:38:01.281250,-8.93
17:38:01.296875,-21.06
17:38:01.312500,-33.70
17:38:01.328125,-44.17
17:38:01.343750,-50.99
17:38:01.359375,-54.33
17:38:01.375000,-55.67
17:38:01.390625,-56.87
17:38:01.406250,-59.15
17:38:01.421875,-62.45
17:38:01.437500,-65.50
17:38:01.453125,-66.37
17:38:01.468750,-63.25
17:38:01.484375,-55.13
17:38:01.500000,-42.20
17:38:01.515625,-25.61
17:38:01.531250,-7.15
17:38:01.546875,11.28
17:38:01.562500,28.14
17:38:01.578125,42.54
17:38:01.593750,54.26
17:38:01.609375,63.57
17:38:01.625000,70.95
17:38:01.640625,76.81
17:38:01.656250,81.31
17:38:01.671875,84.30
17:38:01.687500,85.39
17:38:01.703125,84.08
17:38:01.718750,79.95
17:38:01.734375,72.92
17:38:01.750000,63.36
17:38:01.765625,52.24
17:38:01.781250,40.97
17:38:01.796875,31.15
17:38:01.812500,24.15
17:38:01.828125,20.73
17:38:01.843750,20.90
17:38:01.859375,23.83
17:38:01.875000,28.11
17:38:01.890625,31.97
17:38:01.906250,33.76
17:38:01.921875,32.32
17:38:01.937500,27.33
17:38:01.953125,19.46
17:38:01.968750,10.24
17:38:01.984375,1.65
17:38:02,-4.60
17:38:02.015625,-7.67
17:38:02.031250,-7.91
17:38:02.046875,-6.78
17:38:02.062500,-6.18
17:38:02.078125,-7.92
17:38:02.093750,-13.12
17:38:02.109375,-22.09
17:38:02.125000,-34.50
17:38:02.140625,-49.57
17:38:02.156250,-66.28
17:38:02.171875,-83.43
17:38:02.187500,-99.74
17:38:02.203125,-114.03
17:38:02.218750,-125.54
17:38:02.234375,-134.21
17:38:02.250000,-140.66
17:38:02.265625,-145.83
17:38:02.281250,-150.42
17:38:02.296875,-154.37
17:38:02.312500,-156.73
17:38:02.328125,-156.03
17:38:02.343750,-150.87
17:38:02.359375,-140.61
17:38:02.375000,-125.59
17:38:02.390625,-107.09
17:38:02.406250,-86.87
17:38:02.421875,-66.65
17:38:02.437500,-47.77
17:38:02.453125,-30.96
17:38:02.468750,-16.50
17:38:02.484375,-4.33
17:38:02.500000,5.68
17:38:02.515625,13.65
17:38:02.531250,19.65
17:38:02.546875,23.80
17:38:02.562500,26.27
17:38:02.578125,27.39
17:38:02.593750,27.51
17:38:02.609375,27.03
17:38:02.625000,26.24
17:38:02.640625,25.36
17:38:02.656250,24.49
17:38:02.671875,23.72
17:38:02.687500,23.12
17:38:02.703125,22.77
17:38:02.718750,22.67
17:38:02.734375,22.74
17:38:02.750000,22.76
17:38:02.765625,22.46
17:38:02.781250,21.60
17:38:02.796875,20.03
17:38:02.812500,17.72
17:38:02.828125,14.75
17:38:02.843750,11.25
17:38:02.859375,7.38
17:38:02.875000,3.27
17:38:02.890625,-1.02
17:38:02.906250,-5.46
17:38:02.921875,-10.12
17:38:02.937500,-15.08
17:38:02.953125,-20.44
17:38:02.968750,-26.29
17:38:02.984375,-32.66
17:38:03,-39.57
17:38:03.015625,-47.02
17:38:03.031250,-54.88
17:38:03.046875,-62.83
17:38:03.062500,-70.27
17:38:03.078125,-76.29
17:38:03.093750,-79.91
17:38:03.109375,-80.31
17:38:03.125000,-77.13
17:38:03.140625,-70.61
17:38:03.156250,-61.42
17:38:03.171875,-50.46
17:38:03.187500,-38.49
17:38:03.203125,-26.03
17:38:03.218750,-13.33
17:38:03.234375,-0.53
17:38:03.250000,12.19
17:38:03.265625,24.59
17:38:03.281250,36.34
17:38:03.296875,47.08
17:38:03.312500,56.45
17:38:03.328125,64.10
17:38:03.343750,69.79
17:38:03.359375,73.39
17:38:03.375000,74.98
17:38:03.390625,74.89
17:38:03.406250,73.66
17:38:03.421875,71.89
17:38:03.437500,70.10
17:38:03.453125,68.59
17:38:03.468750,67.33
17:38:03.484375,66.09
17:38:03.500000,64.49
17:38:03.515625,62.19
17:38:03.531250,59.02
17:38:03.546875,54.99
17:38:03.562500,50.27
17:38:03.578125,45.10
17:38:03.593750,39.73
17:38:03.609375,34.32
17:38:03.625000,28.95
17:38:03.640625,23.62
17:38:03.656250,18.25
17:38:03.671875,12.69
17:38:03.687500,6.79
17:38:03.703125,0.40
17:38:03.718750,-6.51
17:38:03.734375,-13.79
17:38:03.750000,-21.23
17:38:03.765625,-28.54
17:38:03.781250,-35.60
17:38:03.796875,-42.45
17:38:03.812500,-49.32
17:38:03.828125,-56.43
17:38:03.843750,-63.80
17:38:03.859375,-71.07
17:38:03.875000,-77.46
17:38:03.890625,-81.98
17:38:03.906250,-83.72
17:38:03.921875,-82.13
17:38:03.937500,-77.18
17:38:03.953125,-69.30
17:38:03.968750,-59.15
17:38:03.984375,-47.46
17:38:04,-34.82
17:38:04.015625,-21.65
17:38:04.031250,-8.25
17:38:04.046875,5.10
17:38:04.062500,18.06
17:38:04.078125,30.23
17:38:04.093750,41.17
17:38:04.109375,50.47
17:38:04.125000,57.83
17:38:04.140625,63.14
17:38:04.156250,66.53
17:38:04.171875,68.25
17:38:04.187500,68.69
17:38:04.203125,68.20
17:38:04.218750,67.01
17:38:04.234375,65.33
17:38:04.250000,63.27
17:38:04.265625,60.93
17:38:04.281250,58.40
17:38:04.296875,55.77
17:38:04.312500,53.02
17:38:04.328125,50.14
17:38:04.343750,47.06
17:38:04.359375,43.71
17:38:04.375000,40.06
17:38:04.390625,36.10
17:38:04.406250,31.84
17:38:04.421875,27.33
17:38:04.437500,22.66
17:38:04.453125,17.97
17:38:04.468750,13.37
17:38:04.484375,8.91
17:38:04.500000,4.51
17:38:04.515625,0.00
17:38:04.531250,-4.78
17:38:04.546875,-9.94
17:38:04.562500,-15.42
17:38:04.578125,-21.03
17:38:04.593750,-26.49
17:38:04.609375,-31.63
17:38:04.625000,-36.39
17:38:04.640625,-40.90
17:38:04.656250,-45.41
17:38:04.671875,-50.19
17:38:04.687500,-55.47
17:38:04.703125,-61.34
17:38:04.718750,-67.75
17:38:04.734375,-74.44
17:38:04.750000,-80.89
17:38:04.765625,-86.31
17:38:04.781250,-89.86
17:38:04.796875,-90.77
17:38:04.812500,-88.63
17:38:04.828125,-83.45
17:38:04.843750,-75.68
17:38:04.859375,-65.94
17:38:04.875000,-54.92
17:38:04.890625,-43.11
17:38:04.906250,-30.90
17:38:04.921875,-18.53
17:38:04.937500,-6.20
17:38:04.953125,5.91
17:38:04.968750,17.64
17:38:04.984375,28.84
17:38:05,39.28
17:38:05.015625,48.66
17:38:05.031250,56.55
17:38:05.046875,62.56
17:38:05.062500,66.47
17:38:05.078125,68.35
17:38:05.093750,68.54
17:38:05.109375,67.57
17:38:05.125000,65.96
17:38:05.140625,64.10
17:38:05.156250,62.21
17:38:05.171875,60.40
17:38:05.187500,58.71
17:38:05.203125,57.12
17:38:05.218750,55.57
17:38:05.234375,53.99
17:38:05.250000,52.22
17:38:05.265625,50.12
17:38:05.281250,47.62
17:38:05.296875,44.73
17:38:05.312500,41.54
17:38:05.328125,38.21
17:38:05.343750,34.81
17:38:05.359375,31.44
17:38:05.375000,28.14
17:38:05.390625,24.90
17:38:05.406250,21.73
17:38:05.421875,18.58
17:38:05.437500,15.45
17:38:05.453125,12.27
17:38:05.468750,8.99
17:38:05.484375,5.59
17:38:05.500000,2.03
17:38:05.515625,-1.68
17:38:05.531250,-5.55
17:38:05.546875,-9.58
17:38:05.562500,-13.77
17:38:05.578125,-18.13
17:38:05.593750,-22.64
17:38:05.609375,-27.26
17:38:05.625000,-31.88
17:38:05.640625,-36.40
17:38:05.656250,-40.75
17:38:05.671875,-44.95
17:38:05.687500,-49.08
17:38:05.703125,-53.28
17:38:05.718750,-57.66
17:38:05.734375,-62.28
17:38:05.750000,-67.17
17:38:05.765625,-72.30
17:38:05.781250,-77.56
17:38:05.796875,-82.70
17:38:05.812500,-87.23
17:38:05.828125,-90.47
17:38:05.843750,-91.68
17:38:05.859375,-90.30
17:38:05.875000,-86.19
17:38:05.890625,-79.63
17:38:05.906250,-71.29
17:38:05.921875,-61.87
17:38:05.937500,-51.91
17:38:05.953125,-41.65
17:38:05.968750,-31.11
17:38:05.984375,-20.24
17:38:06,-9.09
17:38:06.015625,2.11
17:38:06.031250,13.01
17:38:06.046875,23.22
17:38:06.062500,32.38
17:38:06.078125,40.24
17:38:06.093750,46.59
17:38:06.109375,51.31
17:38:06.125000,54.35
17:38:06.140625,55.83
17:38:06.156250,55.99
17:38:06.171875,55.26
17:38:06.187500,54.06
17:38:06.203125,52.81
17:38:06.218750,51.77
17:38:06.234375,51.05
17:38:06.250000,50.59
17:38:06.265625,50.24
17:38:06.281250,49.84
17:38:06.296875,49.26
17:38:06.312500,48.38
17:38:06.328125,47.11
17:38:06.343750,45.46
17:38:06.359375,43.47
17:38:06.375000,41.24
17:38:06.390625,38.91
17:38:06.406250,36.59
17:38:06.421875,34.34
17:38:06.437500,32.16
17:38:06.453125,30.00
17:38:06.468750,27.76
17:38:06.484375,25.35
17:38:06.500000,22.73
17:38:06.515625,19.87
17:38:06.531250,16.75
17:38:06.546875,13.39
17:38:06.562500,9.80
17:38:06.578125,6.02
17:38:06.593750,2.14
17:38:06.609375,-1.71
17:38:06.625000,-5.41
17:38:06.640625,-8.88
17:38:06.656250,-12.16
17:38:06.671875,-15.33
17:38:06.687500,-18.50
17:38:06.703125,-21.74
17:38:06.718750,-25.01
17:38:06.734375,-28.23
17:38:06.750000,-31.31
17:38:06.765625,-34.24
17:38:06.781250,-37.09
17:38:06.796875,-40.04
17:38:06.812500,-43.28
17:38:06.828125,-46.92
17:38:06.843750,-51.01
17:38:06.859375,-55.56
17:38:06.875000,-60.56
17:38:06.890625,-66.08
17:38:06.906250,-72.11
17:38:06.921875,-78.53
17:38:06.937500,-84.89
17:38:06.953125,-90.39
17:38:06.968750,-94.07
17:38:06.984375,-95.02
17:38:07,-92.80
17:38:07.015625,-87.56
17:38:07.031250,-79.99
17:38:07.046875,-71.01
17:38:07.062500,-61.44
17:38:07.078125,-51.71
17:38:07.093750,-41.88
17:38:07.109375,-31.80
17:38:07.125000,-21.34
17:38:07.140625,-10.59
17:38:07.156250,0.19
17:38:07.171875,10.61
17:38:07.187500,20.35
17:38:07.203125,29.18
17:38:07.218750,36.90
17:38:07.234375,43.34
17:38:07.250000,48.26
17:38:07.265625,51.50
17:38:07.281250,53.07
17:38:07.296875,53.24
17:38:07.312500,52.55
17:38:07.328125,51.64
17:38:07.343750,51.08
17:38:07.359375,51.23
17:38:07.375000,52.12
17:38:07.390625,53.58
17:38:07.406250,55.25
17:38:07.421875,56.76
17:38:07.437500,57.79
17:38:07.453125,58.10
17:38:07.468750,57.59
17:38:07.484375,56.27
17:38:07.500000,54.24
17:38:07.515625,51.59
17:38:07.531250,48.38
17:38:07.546875,44.61
17:38:07.562500,40.22
17:38:07.578125,35.17
17:38:07.593750,29.56
17:38:07.609375,23.68
17:38:07.625000,17.99
17:38:07.640625,13.00
17:38:07.656250,9.14
17:38:07.671875,6.56
17:38:07.687500,5.10
17:38:07.703125,4.34
17:38:07.718750,3.72
17:38:07.734375,2.68
17:38:07.750000,0.84
17:38:07.765625,-1.93
17:38:07.781250,-5.51
17:38:07.796875,-9.61
17:38:07.812500,-13.90
17:38:07.828125,-18.05
17:38:07.843750,-21.81
17:38:07.859375,-25.05
17:38:07.875000,-27.74
17:38:07.890625,-29.98
17:38:07.906250,-31.94
17:38:07.921875,-33.90
17:38:07.937500,-36.15
17:38:07.953125,-38.97
17:38:07.968750,-42.51
17:38:07.984375,-46.78
17:38:08,-51.55
17:38:08.015625,-56.54
17:38:08.031250,-61.54
17:38:08.046875,-66.54
17:38:08.062500,-71.76
17:38:08.078125,-77.46
17:38:08.093750,-83.67
17:38:08.109375,-90.01
17:38:08.125000,-95.63
17:38:08.140625,-99.47
17:38:08.156250,-100.60
17:38:08.171875,-98.58
17:38:08.187500,-93.53
17:38:08.203125,-86.03
17:38:08.218750,-76.80
17:38:08.234375,-66.42
17:38:08.250000,-55.30
17:38:08.265625,-43.68
17:38:08.281250,-31.85
17:38:08.296875,-20.11
17:38:08.312500,-8.82
17:38:08.328125,1.82
17:38:08.343750,11.79
17:38:08.359375,21.15
17:38:08.375000,29.87
17:38:08.390625,37.77
17:38:08.406250,44.45
17:38:08.421875,49.46
17:38:08.437500,52.56
17:38:08.453125,53.80
17:38:08.468750,53.64
17:38:08.484375,52.68
17:38:08.500000,51.56
17:38:08.515625,50.80
17:38:08.531250,50.69
17:38:08.546875,51.30
17:38:08.562500,52.56
17:38:08.578125,54.25
17:38:08.593750,56.15
17:38:08.609375,58.02
17:38:08.625000,59.68
17:38:08.640625,60.96
17:38:08.656250,61.72
17:38:08.671875,61.83
17:38:08.687500,61.20
17:38:08.703125,59.85
17:38:08.718750,57.93
17:38:08.734375,55.68
17:38:08.750000,53.38
17:38:08.765625,51.22
17:38:08.781250,49.25
17:38:08.796875,47.39
17:38:08.812500,45.40
17:38:08.828125,43.02
17:38:08.843750,39.95
17:38:08.859375,35.97
17:38:08.875000,31.01
17:38:08.890625,25.25
17:38:08.906250,19.08
17:38:08.921875,13.00
17:38:08.937500,7.40
17:38:08.953125,2.46
17:38:08.968750,-1.96
17:38:08.984375,-6.26
17:38:09,-10.88
17:38:09.015625,-16.12
17:38:09.031250,-22.10
17:38:09.046875,-28.75
17:38:09.062500,-35.83
17:38:09.078125,-43.10
17:38:09.093750,-50.36
17:38:09.109375,-57.48
17:38:09.125000,-64.49
17:38:09.140625,-71.52
17:38:09.156250,-78.84
17:38:09.171875,-86.75
17:38:09.187500,-95.38
17:38:09.203125,-104.59
17:38:09.218750,-113.81
17:38:09.234375,-122.11
17:38:09.250000,-128.35
17:38:09.265625,-131.51
17:38:09.281250,-130.90
17:38:09.296875,-126.32
17:38:09.312500,-118.14
17:38:09.328125,-107.08
17:38:09.343750,-94.02
17:38:09.359375,-79.80
17:38:09.375000,-65.01
17:38:09.390625,-49.98
17:38:09.406250,-34.76
17:38:09.421875,-19.35
17:38:09.437500,-3.82
17:38:09.453125,11.56
17:38:09.468750,26.24
17:38:09.484375,39.49
17:38:09.500000,50.61
17:38:09.515625,59.13
17:38:09.531250,64.96
17:38:09.546875,68.41
17:38:09.562500,70.03
17:38:09.578125,70.46
17:38:09.593750,70.29
17:38:09.609375,69.97
17:38:09.625000,69.77
17:38:09.640625,69.83
17:38:09.656250,70.07
17:38:09.671875,70.23
17:38:09.687500,69.90
17:38:09.703125,68.60
17:38:09.718750,66.00
17:38:09.734375,62.13
17:38:09.750000,57.38
17:38:09.765625,52.42
17:38:09.781250,47.94
17:38:09.796875,44.38
17:38:09.812500,41.77
17:38:09.828125,39.77
17:38:09.843750,37.95
17:38:09.859375,35.92
17:38:09.875000,33.51
17:38:09.890625,30.77
17:38:09.906250,27.74
17:38:09.921875,24.41
17:38:09.937500,20.70
17:38:09.953125,16.53
17:38:09.968750,12.02
17:38:09.984375,7.40
17:38:10,2.94
17:38:10.015625,-1.23
17:38:10.031250,-5.20
17:38:10.046875,-9.28
17:38:10.062500,-13.77
17:38:10.078125,-18.76
17:38:10.093750,-24.11
17:38:10.109375,-29.48
17:38:10.125000,-34.51
17:38:10.140625,-39.06
17:38:10.156250,-43.26
17:38:10.171875,-47.49
17:38:10.187500,-52.22
17:38:10.203125,-57.83
17:38:10.218750,-64.54
17:38:10.234375,-72.35
17:38:10.250000,-81.01
17:38:10.265625,-90.05
17:38:10.281250,-98.70
17:38:10.296875,-105.94
17:38:10.312500,-110.66
17:38:10.328125,-111.93
17:38:10.343750,-109.24
17:38:10.359375,-102.70
17:38:10.375000,-92.95
17:38:10.390625,-80.89
17:38:10.406250,-67.40
17:38:10.421875,-53.01
17:38:10.437500,-37.98
17:38:10.453125,-22.38
17:38:10.468750,-6.37
17:38:10.484375,9.67
17:38:10.500000,25.10
17:38:10.515625,39.16
17:38:10.531250,51.19
17:38:10.546875,60.72
17:38:10.562500,67.62
17:38:10.578125,72.06
17:38:10.593750,74.49
17:38:10.609375,75.44
17:38:10.625000,75.44
17:38:10.640625,74.88
17:38:10.656250,74.05
17:38:10.671875,73.12
17:38:10.687500,72.20
17:38:10.703125,71.42
17:38:10.718750,70.79
17:38:10.734375,70.28
17:38:10.750000,69.71
17:38:10.765625,68.89
17:38:10.781250,67.65
17:38:10.796875,65.90
17:38:10.812500,63.69
17:38:10.828125,61.09
17:38:10.843750,58.21
17:38:10.859375,55.13
17:38:10.875000,51.92
17:38:10.890625,48.65
17:38:10.906250,45.34
17:38:10.921875,41.91
17:38:10.937500,38.23
17:38:10.953125,34.14
17:38:10.968750,29.62
17:38:10.984375,24.77
17:38:11,19.88
17:38:11.015625,15.21
17:38:11.031250,10.87
17:38:11.046875,6.69
17:38:11.062500,2.32
17:38:11.078125,-2.56
17:38:11.093750,-8.10
17:38:11.109375,-14.16
17:38:11.125000,-20.39
17:38:11.140625,-26.40
17:38:11.156250,-31.98
17:38:11.171875,-37.17
17:38:11.187500,-42.20
17:38:11.203125,-47.45
17:38:11.218750,-53.20
17:38:11.234375,-59.66
17:38:11.250000,-66.95
17:38:11.265625,-75.03
17:38:11.281250,-83.65
17:38:11.296875,-92.23
17:38:11.312500,-99.82
17:38:11.328125,-105.16
17:38:11.343750,-107.07
17:38:11.359375,-104.74
17:38:11.375000,-98.09
17:38:11.390625,-87.75
17:38:11.406250,-74.80
17:38:11.421875,-60.39
17:38:11.437500,-45.39
17:38:11.453125,-30.26
17:38:11.468750,-15.14
17:38:11.484375,-0.09
17:38:11.500000,14.71
17:38:11.515625,28.88
17:38:11.531250,41.91
17:38:11.546875,53.19
17:38:11.562500,62.25
17:38:11.578125,68.82
17:38:11.593750,72.88
17:38:11.609375,74.73
17:38:11.625000,74.88
17:38:11.640625,73.98
17:38:11.656250,72.61
17:38:11.671875,71.16
17:38:11.687500,69.82
17:38:11.703125,68.60
17:38:11.718750,67.45
17:38:11.734375,66.34
17:38:11.750000,65.24
17:38:11.765625,64.07
17:38:11.781250,62.66
17:38:11.796875,60.83
17:38:11.812500,58.41
17:38:11.828125,55.44
17:38:11.843750,52.08
17:38:11.859375,48.58
17:38:11.875000,45.09
17:38:11.890625,41.57
17:38:11.906250,37.80
17:38:11.921875,33.60
17:38:11.937500,28.91
17:38:11.953125,23.90
17:38:11.968750,18.89
17:38:11.984375,14.15
17:38:12,9.76
17:38:12.015625,5.56
17:38:12.031250,1.30
17:38:12.046875,-3.31
17:38:12.062500,-8.41
17:38:12.078125,-13.94
17:38:12.093750,-19.70
17:38:12.109375,-25.42
17:38:12.125000,-30.88
17:38:12.140625,-35.94
17:38:12.156250,-40.66
17:38:12.171875,-45.29
17:38:12.187500,-50.23
17:38:12.203125,-55.88
17:38:12.218750,-62.51
17:38:12.234375,-70.03
17:38:12.250000,-77.92
17:38:12.265625,-85.19
17:38:12.281250,-90.62
17:38:12.296875,-93.07
17:38:12.312500,-91.79
17:38:12.328125,-86.63
17:38:12.343750,-78.10
17:38:12.359375,-67.07
17:38:12.375000,-54.57
17:38:12.390625,-41.44
17:38:12.406250,-28.17
17:38:12.421875,-15.01
17:38:12.437500,-2.05
17:38:12.453125,10.54
17:38:12.468750,22.34
17:38:12.484375,32.79
17:38:12.500000,41.32
17:38:12.515625,47.56
17:38:12.531250,51.51
17:38:12.546875,53.57
17:38:12.562500,54.39
17:38:12.578125,54.66
17:38:12.593750,54.91
17:38:12.609375,55.40
17:38:12.625000,56.12
17:38:12.640625,56.91
17:38:12.656250,57.59
17:38:12.671875,58.01
17:38:12.687500,58.13
17:38:12.703125,57.92
17:38:12.718750,57.34
17:38:12.734375,56.34
17:38:12.750000,54.80
17:38:12.765625,52.65
17:38:12.781250,49.89
17:38:12.796875,46.58
17:38:12.812500,42.86
17:38:12.828125,38.88
17:38:12.843750,34.73
17:38:12.859375,30.36
17:38:12.875000,25.67
17:38:12.890625,20.56
17:38:12.906250,14.99
17:38:12.921875,9.08
17:38:12.937500,3.04
17:38:12.953125,-2.90
17:38:12.968750,-8.61
17:38:12.984375,-14.07
17:38:13,-19.40
17:38:13.015625,-24.72
17:38:13.031250,-30.14
17:38:13.046875,-35.78
17:38:13.062500,-41.78
17:38:13.078125,-48.40
17:38:13.093750,-55.92
17:38:13.109375,-64.52
17:38:13.125000,-74.03
17:38:13.140625,-83.77
17:38:13.156250,-92.56
17:38:13.171875,-99.04
17:38:13.187500,-101.92
17:38:13.203125,-100.46
17:38:13.218750,-94.60
17:38:13.234375,-84.91
17:38:13.250000,-72.36
17:38:13.265625,-58.01
17:38:13.281250,-42.82
17:38:13.296875,-27.53
17:38:13.312500,-12.69
17:38:13.328125,1.30
17:38:13.343750,14.20
17:38:13.359375,25.96
17:38:13.375000,36.68
17:38:13.390625,46.51
17:38:13.406250,55.46
17:38:13.421875,63.36
17:38:13.437500,69.83
17:38:13.453125,74.51
17:38:13.468750,77.27
17:38:13.484375,78.30
17:38:13.500000,78.12
17:38:13.515625,77.34
17:38:13.531250,76.38
17:38:13.546875,75.44
17:38:13.562500,74.42
17:38:13.578125,73.16
17:38:13.593750,71.60
17:38:13.609375,69.81
17:38:13.625000,67.89
17:38:13.640625,65.87
17:38:13.656250,63.57
17:38:13.671875,60.63
17:38:13.687500,56.76
17:38:13.703125,51.84
17:38:13.718750,46.07
17:38:13.734375,39.91
17:38:13.750000,33.86
17:38:13.765625,28.27
17:38:13.781250,23.14
17:38:13.796875,18.22
17:38:13.812500,13.13
17:38:13.828125,7.58
17:38:13.843750,1.52
17:38:13.859375,-4.86
17:38:13.875000,-11.29
17:38:13.890625,-17.54
17:38:13.906250,-23.52
17:38:13.921875,-29.31
17:38:13.937500,-35.04
17:38:13.953125,-40.89
17:38:13.968750,-47.05
17:38:13.984375,-53.76
17:38:14,-61.24
17:38:14.015625,-69.55
17:38:14.031250,-78.43
17:38:14.046875,-87.16
17:38:14.062500,-94.68
17:38:14.078125,-99.74
17:38:14.093750,-101.36
17:38:14.109375,-99.01
17:38:14.125000,-92.84
17:38:14.140625,-83.48
17:38:14.156250,-71.80
17:38:14.171875,-58.61
17:38:14.187500,-44.58
17:38:14.203125,-30.17
17:38:14.218750,-15.65
17:38:14.234375,-1.27
17:38:14.250000,12.80
17:38:14.265625,26.37
17:38:14.281250,39.19
17:38:14.296875,50.93
17:38:14.312500,61.10
17:38:14.328125,69.17
17:38:14.343750,74.70
17:38:14.359375,77.53
17:38:14.375000,77.86
17:38:14.390625,76.22
17:38:14.406250,73.28
17:38:14.421875,69.68
17:38:14.437500,65.91
17:38:14.453125,62.36
17:38:14.468750,59.45
17:38:14.484375,57.54
17:38:14.500000,56.86
17:38:14.515625,57.23
17:38:14.531250,57.98
17:38:14.546875,58.07
17:38:14.562500,56.47
17:38:14.578125,52.59
17:38:14.593750,46.49
17:38:14.609375,38.90
17:38:14.625000,30.86
17:38:14.640625,23.29
17:38:14.656250,16.71
17:38:14.671875,11.13
17:38:14.687500,6.21
17:38:14.703125,1.42
17:38:14.718750,-3.85
17:38:14.734375,-10.15
17:38:14.750000,-17.79
17:38:14.765625,-26.52
17:38:14.781250,-35.30
17:38:14.796875,-42.30
17:38:14.812500,-45.42
17:38:14.828125,-43.07
17:38:14.843750,-34.97
17:38:14.859375,-22.47
17:38:14.875000,-8.13
17:38:14.890625,5.12
17:38:14.906250,15.10
17:38:14.921875,20.97
17:38:14.937500,23.12
17:38:14.953125,22.65
17:38:14.968750,20.57
17:38:14.984375,17.56
17:38:15,13.98
17:38:15.015625,10.31
17:38:15.031250,7.41
17:38:15.046875,6.31
17:38:15.062500,7.85
17:38:15.078125,12.29
17:38:15.093750,19.16
17:38:15.109375,27.55
17:38:15.125000,36.55
17:38:15.140625,45.64
17:38:15.156250,54.83
17:38:15.171875,64.48
17:38:15.187500,74.93
17:38:15.203125,86.25
17:38:15.218750,97.98
17:38:15.234375,109.25
17:38:15.250000,119.01
17:38:15.265625,126.38
17:38:15.281250,130.99
17:38:15.296875,133.09
17:38:15.312500,133.53
17:38:15.328125,133.46
17:38:15.343750,133.96
17:38:15.359375,135.72
17:38:15.375000,138.78
17:38:15.390625,142.51
17:38:15.406250,145.75
17:38:15.421875,146.93
17:38:15.437500,144.49
17:38:15.453125,137.12
17:38:15.468750,124.20
17:38:15.484375,105.89
17:38:15.500000,83.05
17:38:15.515625,56.91
17:38:15.531250,28.62
17:38:15.546875,-1.02
17:38:15.562500,-31.56
17:38:15.578125,-62.55
17:38:15.593750,-93.09
17:38:15.609375,-121.62
17:38:15.625000,-146.00
17:38:15.640625,-164.14
17:38:15.656250,-174.78
17:38:15.671875,-178.25
17:38:15.687500,-176.65
17:38:15.703125,-173.44
17:38:15.718750,-172.34
17:38:15.734375,-176.00
17:38:15.750000,-184.96
17:38:15.765625,-197.46
17:38:15.781250,-210.20
17:38:15.796875,-219.79
17:38:15.812500,-224.23
17:38:15.828125,-223.74
17:38:15.843750,-220.63
17:38:15.859375,-218.47
17:38:15.875000,-220.50
17:38:15.890625,-228.37
17:38:15.906250,-241.26
17:38:15.921875,-255.85
17:38:15.937500,-267.27
17:38:15.953125,-270.39
17:38:15.968750,-261.16
17:38:15.984375,-237.49
17:38:16,-199.49
17:38:16.015625,-149.22
17:38:16.031250,-90.24
17:38:16.046875,-27.05
17:38:16.062500,35.47
17:38:16.078125,92.71
17:38:16.093750,140.96
17:38:16.109375,177.85
17:38:16.125000,202.46
17:38:16.140625,214.99
17:38:16.156250,216.21
17:38:16.171875,207.24
17:38:16.187500,189.66
17:38:16.203125,166.06
17:38:16.218750,140.25
17:38:16.234375,116.69
17:38:16.250000,99.13
17:38:16.265625,89.11
17:38:16.281250,85.38
17:38:16.296875,84.60
17:38:16.312500,83.00
17:38:16.328125,78.18
17:38:16.343750,69.95
17:38:16.359375,59.85
17:38:16.375000,49.84
17:38:16.390625,41.12
17:38:16.406250,33.68
17:38:16.421875,26.80
17:38:16.437500,19.99
17:38:16.453125,13.52
17:38:16.468750,8.33
17:38:16.484375,5.29
17:38:16.500000,4.33
17:38:16.515625,4.19
17:38:16.531250,2.88
17:38:16.546875,-1.44
17:38:16.562500,-9.39
17:38:16.578125,-19.95
17:38:16.593750,-30.70
17:38:16.609375,-38.73
17:38:16.625000,-41.79
17:38:16.640625,-39.09
17:38:16.656250,-31.54
17:38:16.671875,-21.34
17:38:16.687500,-11.25
17:38:16.703125,-3.69
17:38:16.718750,-0.34
17:38:16.734375,-1.85
17:38:16.750000,-8.03
17:38:16.765625,-18.01
17:38:16.781250,-30.50
17:38:16.796875,-44.00
17:38:16.812500,-57.15
17:38:16.828125,-69.03
17:38:16.843750,-79.27
17:38:16.859375,-88.07
17:38:16.875000,-95.91
17:38:16.890625,-103.28
17:38:16.906250,-110.46
17:38:16.921875,-117.49
17:38:16.937500,-124.18
17:38:16.953125,-130.22
17:38:16.968750,-135.13
17:38:16.984375,-138.26
17:38:17,-138.98
17:38:17.015625,-136.79
17:38:17.031250,-131.63
17:38:17.046875,-124.04
17:38:17.062500,-114.99
17:38:17.078125,-105.64
17:38:17.093750,-96.95
17:38:17.109375,-89.41
17:38:17.125000,-83.07
17:38:17.140625,-77.63
17:38:17.156250,-72.64
17:38:17.171875,-67.65
17:38:17.187500,-62.30
17:38:17.203125,-56.43
17:38:17.218750,-50.11
17:38:17.234375,-43.79
17:38:17.250000,-38.19
17:38:17.265625,-34.07
17:38:17.281250,-31.92
17:38:17.296875,-31.71
17:38:17.312500,-32.76
17:38:17.328125,-34.05
17:38:17.343750,-34.56
17:38:17.359375,-33.67
17:38:17.375000,-31.28
17:38:17.390625,-27.75
17:38:17.406250,-23.62
17:38:17.421875,-19.31
17:38:17.437500,-15.06
17:38:17.453125,-10.94
17:38:17.468750,-7.04
17:38:17.484375,-3.54
17:38:17.500000,-0.79
17:38:17.515625,0.88
17:38:17.531250,1.33
17:38:17.546875,0.77
17:38:17.562500,-0.22
17:38:17.578125,-0.89
17:38:17.593750,-0.52
17:38:17.609375,1.22
17:38:17.625000,4.25
17:38:17.640625,8.15
17:38:17.656250,12.45
17:38:17.671875,16.85
17:38:17.687500,21.28
17:38:17.703125,25.70
17:38:17.718750,29.85
17:38:17.734375,33.15
17:38:17.750000,34.78
17:38:17.765625,34.16
17:38:17.781250,31.33
17:38:17.796875,27.32
17:38:17.812500,23.94
17:38:17.828125,23.35
17:38:17.843750,27.36
17:38:17.859375,36.89
17:38:17.875000,51.79
17:38:17.890625,70.98
17:38:17.906250,92.82
17:38:17.921875,115.44
17:38:17.937500,137.08
17:38:17.953125,156.18
17:38:17.968750,171.47
17:38:17.984375,181.99
17:38:18,187.14
17:38:18.015625,186.72
17:38:18.031250,180.92
17:38:18.046875,170.35
17:38:18.062500,155.95
17:38:18.078125,138.98
17:38:18.093750,120.85
17:38:18.109375,102.97
17:38:18.125000,86.41
17:38:18.140625,71.62
17:38:18.156250,58.24
17:38:18.171875,45.16
17:38:18.187500,30.76
17:38:18.203125,13.39
17:38:18.218750,-8.02
17:38:18.234375,-33.51
17:38:18.250000,-61.76
17:38:18.265625,-90.25
17:38:18.281250,-115.72
17:38:18.296875,-134.91
17:38:18.312500,-145.45
17:38:18.328125,-146.29
17:38:18.343750,-138.10
17:38:18.359375,-123.15
17:38:18.375000,-104.87
17:38:18.390625,-87.10
17:38:18.406250,-73.19
17:38:18.421875,-65.10
17:38:18.437500,-62.88
17:38:18.453125,-64.73
17:38:18.468750,-67.58
17:38:18.484375,-68.16
17:38:18.500000,-64.08
17:38:18.515625,-54.45
17:38:18.531250,-39.92
17:38:18.546875,-22.22
17:38:18.562500,-3.44
17:38:18.578125,14.60
17:38:18.593750,30.57
17:38:18.609375,43.73
17:38:18.625000,53.73
17:38:18.640625,60.49
17:38:18.656250,64.14
17:38:18.671875,64.96
17:38:18.687500,63.38
17:38:18.703125,59.97
17:38:18.718750,55.40
17:38:18.734375,50.31
17:38:18.750000,45.14
17:38:18.765625,40.15
17:38:18.781250,35.38
17:38:18.796875,30.81
17:38:18.812500,26.55
17:38:18.828125,22.91
17:38:18.843750,20.28
17:38:18.859375,19.09
17:38:18.875000,19.46
17:38:18.890625,21.23
17:38:18.906250,23.94
17:38:18.921875,27.04
17:38:18.937500,30.07
17:38:18.953125,32.83
17:38:18.968750,35.30
17:38:18.984375,37.60
17:38:19,39.76
17:38:19.015625,41.67
17:38:19.031250,43.02
17:38:19.046875,43.44
17:38:19.062500,42.67
17:38:19.078125,40.65
17:38:19.093750,37.59
17:38:19.109375,33.86
17:38:19.125000,29.95
17:38:19.140625,26.21
17:38:19.156250,22.93
17:38:19.171875,20.27
17:38:19.187500,18.35
17:38:19.203125,17.29
17:38:19.218750,17.16
17:38:19.234375,17.99
17:38:19.250000,19.67
17:38:19.265625,21.97
17:38:19.281250,24.56
17:38:19.296875,27.13
17:38:19.312500,29.48
17:38:19.328125,31.59
17:38:19.343750,33.55
17:38:19.359375,35.51
17:38:19.375000,37.53
17:38:19.390625,39.51
17:38:19.406250,41.14
17:38:19.421875,42.09
17:38:19.437500,42.11
17:38:19.453125,41.18
17:38:19.468750,39.52
17:38:19.484375,37.42
17:38:19.500000,35.14
17:38:19.515625,32.75
17:38:19.531250,30.10
17:38:19.546875,26.97
17:38:19.562500,23.25
17:38:19.578125,19.03
17:38:19.593750,14.64
17:38:19.609375,10.45
17:38:19.625000,6.73
17:38:19.640625,3.49
17:38:19.656250,0.58
17:38:19.671875,-2.21
17:38:19.687500,-4.99
17:38:19.703125,-7.69
17:38:19.718750,-10.12
17:38:19.734375,-12.13
17:38:19.750000,-13.67
17:38:19.765625,-14.80
17:38:19.781250,-15.59
17:38:19.796875,-16.00
17:38:19.812500,-15.81
17:38:19.828125,-14.77
17:38:19.843750,-12.62
17:38:19.859375,-9.30
17:38:19.875000,-4.90
17:38:19.890625,0.43
17:38:19.906250,6.45
17:38:19.921875,12.90
17:38:19.937500,19.42
17:38:19.953125,25.57
17:38:19.968750,30.80
17:38:19.984375,34.65
17:38:20,36.81
17:38:20.015625,37.26
17:38:20.031250,36.27
17:38:20.046875,34.26
17:38:20.062500,31.75
17:38:20.078125,29.20
17:38:20.093750,26.93
17:38:20.109375,25.08
17:38:20.125000,23.61
17:38:20.140625,22.36
17:38:20.156250,21.14
17:38:20.171875,19.85
17:38:20.187500,18.53
17:38:20.203125,17.37
17:38:20.218750,16.55
17:38:20.234375,16.21
17:38:20.250000,16.26
17:38:20.265625,16.46
17:38:20.281250,16.53
17:38:20.296875,16.25
17:38:20.312500,15.51
17:38:20.328125,14.32
17:38:20.343750,12.66
17:38:20.359375,10.53
17:38:20.375000,7.89
17:38:20.390625,4.71
17:38:20.406250,1.12
17:38:20.421875,-2.64
17:38:20.437500,-6.24
17:38:20.453125,-9.38
17:38:20.468750,-11.92
17:38:20.484375,-13.86
17:38:20.500000,-15.41
17:38:20.515625,-16.81
17:38:20.531250,-18.29
17:38:20.546875,-19.96
17:38:20.562500,-21.83
17:38:20.578125,-23.83
17:38:20.593750,-25.82
17:38:20.609375,-27.73
17:38:20.625000,-29.45
17:38:20.640625,-30.86
17:38:20.656250,-31.74
17:38:20.671875,-31.77
17:38:20.687500,-30.63
17:38:20.703125,-28.04
17:38:20.718750,-23.81
17:38:20.734375,-17.90
17:38:20.750000,-10.45
17:38:20.765625,-1.64
17:38:20.781250,8.25
17:38:20.796875,18.96
17:38:20.812500,30.29
17:38:20.828125,42.07
17:38:20.843750,54.11
17:38:20.859375,66.12
17:38:20.875000,77.63
17:38:20.890625,87.98
17:38:20.906250,96.44
17:38:20.921875,102.35
17:38:20.937500,105.36
17:38:20.953125,105.44
17:38:20.968750,102.94
17:38:20.984375,98.46
17:38:21,92.66
17:38:21.015625,86.20
17:38:21.031250,79.57
17:38:21.046875,73.04
17:38:21.062500,66.66
17:38:21.078125,60.30
17:38:21.093750,53.79
17:38:21.109375,47.03
17:38:21.125000,40.06
17:38:21.140625,33.11
17:38:21.156250,26.50
17:38:21.171875,20.57
17:38:21.187500,15.55
17:38:21.203125,11.55
17:38:21.218750,8.51
17:38:21.234375,6.24
17:38:21.250000,4.41
17:38:21.265625,2.61
17:38:21.281250,0.44
17:38:21.296875,-2.38
17:38:21.312500,-5.99
17:38:21.328125,-10.39
17:38:21.343750,-15.51
17:38:21.359375,-21.28
17:38:21.375000,-27.71
17:38:21.390625,-34.83
17:38:21.406250,-42.62
17:38:21.421875,-50.96
17:38:21.437500,-59.67
17:38:21.453125,-68.46
17:38:21.468750,-77.05
17:38:21.484375,-85.24
17:38:21.500000,-92.85
17:38:21.515625,-99.78
17:38:21.531250,-105.92
17:38:21.546875,-111.13
17:38:21.562500,-115.29
17:38:21.578125,-118.26
17:38:21.593750,-119.88
17:38:21.609375,-119.96
17:38:21.625000,-118.29
17:38:21.640625,-114.63
17:38:21.656250,-108.84
17:38:21.671875,-100.98
17:38:21.687500,-91.31
17:38:21.703125,-80.31
17:38:21.718750,-68.59
17:38:21.734375,-56.77
17:38:21.750000,-45.36
17:38:21.765625,-34.80
17:38:21.781250,-25.39
17:38:21.796875,-17.37
17:38:21.812500,-10.89
17:38:21.828125,-5.96
17:38:21.843750,-2.47
17:38:21.859375,-0.16
17:38:21.875000,1.37
17:38:21.890625,2.56
17:38:21.906250,3.86
17:38:21.921875,5.65
17:38:21.937500,8.19
17:38:21.953125,11.57
17:38:21.968750,15.70
17:38:21.984375,20.26
17:38:22,24.80
17:38:22.015625,28.78
17:38:22.031250,31.68
17:38:22.046875,33.13
17:38:22.062500,33.00
17:38:22.078125,31.44
17:38:22.093750,28.85
17:38:22.109375,25.72
17:38:22.125000,22.51
17:38:22.140625,19.52
17:38:22.156250,16.85
17:38:22.171875,14.43
17:38:22.187500,12.18
17:38:22.203125,10.07
17:38:22.218750,8.15
17:38:22.234375,6.47
17:38:22.250000,4.99
17:38:22.265625,3.49
17:38:22.281250,1.63
17:38:22.296875,-0.91
17:38:22.312500,-4.29
17:38:22.328125,-8.39
17:38:22.343750,-12.87
17:38:22.359375,-17.26
17:38:22.375000,-21.24
17:38:22.390625,-24.66
17:38:22.406250,-27.64
17:38:22.421875,-30.53
17:38:22.437500,-33.68
17:38:22.453125,-37.42
17:38:22.468750,-41.82
17:38:22.484375,-46.66
17:38:22.500000,-51.47
17:38:22.515625,-55.59
17:38:22.531250,-58.39
17:38:22.546875,-59.41
17:38:22.562500,-58.55
17:38:22.578125,-55.96
17:38:22.593750,-51.99
17:38:22.609375,-46.97
17:38:22.625000,-41.09
17:38:22.640625,-34.39
17:38:22.656250,-26.89
17:38:22.671875,-18.76
17:38:22.687500,-10.42
17:38:22.703125,-2.47
17:38:22.718750,4.41
17:38:22.734375,9.69
17:38:22.750000,13.13
17:38:22.765625,14.79
17:38:22.781250,14.97
17:38:22.796875,14.07
17:38:22.812500,12.48
17:38:22.828125,10.47
17:38:22.843750,8.18
17:38:22.859375,5.69
17:38:22.875000,2.99
17:38:22.890625,0.05
17:38:22.906250,-3.14
17:38:22.921875,-6.59
17:38:22.937500,-10.18
17:38:22.953125,-13.78
17:38:22.968750,-17.12
17:38:22.984375,-20.01
17:38:23,-22.33
17:38:23.015625,-24.12
17:38:23.031250,-25.60
17:38:23.046875,-27.01
17:38:23.062500,-28.53
17:38:23.078125,-30.19
17:38:23.093750,-31.84
17:38:23.109375,-33.27
17:38:23.125000,-34.34
17:38:23.140625,-35.05
17:38:23.156250,-35.58
17:38:23.171875,-36.17
17:38:23.187500,-37.02
17:38:23.203125,-38.18
17:38:23.218750,-39.55
17:38:23.234375,-40.98
17:38:23.250000,-42.30
17:38:23.265625,-43.43
17:38:23.281250,-44.35
17:38:23.296875,-45.14
17:38:23.312500,-45.88
17:38:23.328125,-46.71
17:38:23.343750,-47.75
17:38:23.359375,-49.09
17:38:23.375000,-50.68
17:38:23.390625,-52.28
17:38:23.406250,-53.48
17:38:23.421875,-53.72
17:38:23.437500,-52.47
17:38:23.453125,-49.39
17:38:23.468750,-44.44
17:38:23.484375,-37.82
17:38:23.500000,-29.87
17:38:23.515625,-20.94
17:38:23.531250,-11.22
17:38:23.546875,-0.81
17:38:23.562500,10.13
17:38:23.578125,21.29
17:38:23.593750,32.12
17:38:23.609375,41.94
17:38:23.625000,50.14
17:38:23.640625,56.45
17:38:23.656250,60.95
17:38:23.671875,64.08
17:38:23.687500,66.32
17:38:23.703125,68.04
17:38:23.718750,69.29
17:38:23.734375,69.93
17:38:23.750000,69.77
17:38:23.765625,68.79
17:38:23.781250,67.23
17:38:23.796875,65.50
17:38:23.812500,63.98
17:38:23.828125,62.83
17:38:23.843750,61.96
17:38:23.859375,61.00
17:38:23.875000,59.62
17:38:23.890625,57.60
17:38:23.906250,54.99
17:38:23.921875,52.05
17:38:23.937500,49.03
17:38:23.953125,46.08
17:38:23.968750,43.11
17:38:23.984375,39.84
17:38:24,35.96
17:38:24.015625,31.28
17:38:24.031250,25.80
17:38:24.046875,19.78
17:38:24.062500,13.59
17:38:24.078125,7.64
17:38:24.093750,2.25
17:38:24.109375,-2.45
17:38:24.125000,-6.53
17:38:24.140625,-10.29
17:38:24.156250,-14.16
17:38:24.171875,-18.61
17:38:24.187500,-23.97
17:38:24.203125,-30.29
17:38:24.218750,-37.26
17:38:24.234375,-44.24
17:38:24.250000,-50.40
17:38:24.265625,-54.93
17:38:24.281250,-57.23
17:38:24.296875,-57.01
17:38:24.312500,-54.36
17:38:24.328125,-49.60
17:38:24.343750,-43.17
17:38:24.359375,-35.51
17:38:24.375000,-26.96
17:38:24.390625,-17.84
17:38:24.406250,-8.43
17:38:24.421875,0.91
17:38:24.437500,9.75
17:38:24.453125,17.60
17:38:24.468750,24.07
17:38:24.484375,28.93
17:38:24.500000,32.18
17:38:24.515625,34.04
17:38:24.531250,34.86
17:38:24.546875,34.95
17:38:24.562500,34.56
17:38:24.578125,33.85
17:38:24.593750,32.91
17:38:24.609375,31.88
17:38:24.625000,30.90
17:38:24.640625,30.13
17:38:24.656250,29.64
17:38:24.671875,29.37
17:38:24.687500,29.13
17:38:24.703125,28.67
17:38:24.718750,27.69
17:38:24.734375,25.96
17:38:24.750000,23.36
17:38:24.765625,19.85
17:38:24.781250,15.48
17:38:24.796875,10.41
17:38:24.812500,4.84
17:38:24.828125,-1.01
17:38:24.843750,-6.91
17:38:24.859375,-12.70
17:38:24.875000,-18.26
17:38:24.890625,-23.58
17:38:24.906250,-28.73
17:38:24.921875,-33.86
17:38:24.937500,-39.15
17:38:24.953125,-44.75
17:38:24.968750,-50.70
17:38:24.984375,-56.95
17:38:25,-63.34
17:38:25.015625,-69.77
17:38:25.031250,-76.17
17:38:25.046875,-82.58
17:38:25.062500,-89.03
17:38:25.078125,-95.37
17:38:25.093750,-101.24
17:38:25.109375,-106.05
17:38:25.125000,-109.11
17:38:25.140625,-109.89
17:38:25.156250,-108.21
17:38:25.171875,-104.45
17:38:25.187500,-99.48
17:38:25.203125,-94.57
17:38:25.218750,-91.18
17:38:25.234375,-90.69
17:38:25.250000,-94.08
17:38:25.265625,-101.48
17:38:25.281250,-111.89
17:38:25.296875,-123.07
17:38:25.312500,-131.87
17:38:25.328125,-135.03
17:38:25.343750,-130.09
17:38:25.359375,-116.30
17:38:25.375000,-94.88
17:38:25.390625,-68.79
17:38:25.406250,-41.69
17:38:25.421875,-16.91
17:38:25.437500,3.40
17:38:25.453125,18.52
17:38:25.468750,28.91
17:38:25.484375,35.65
17:38:25.500000,40.02
17:38:25.515625,43.20
17:38:25.531250,46.20
17:38:25.546875,49.85
17:38:25.562500,54.68
17:38:25.578125,60.90
17:38:25.593750,68.34
17:38:25.609375,76.55
17:38:25.625000,84.97
17:38:25.640625,93.01
17:38:25.656250,100.17
17:38:25.671875,106.03
17:38:25.687500,110.22
17:38:25.703125,112.56
17:38:25.718750,113.12
17:38:25.734375,112.25
17:38:25.750000,110.47
17:38:25.765625,108.15
17:38:25.781250,105.34
17:38:25.796875,101.77
17:38:25.812500,97.08
17:38:25.828125,91.11
17:38:25.843750,84.05
17:38:25.859375,76.52
17:38:25.875000,69.34
17:38:25.890625,63.32
17:38:25.906250,59.15
17:38:25.921875,57.30
17:38:25.937500,57.91
17:38:25.953125,60.63
17:38:25.968750,64.39
17:38:25.984375,67.45
17:38:26,67.72
17:38:26.015625,63.43
17:38:26.031250,53.88
17:38:26.046875,39.92
17:38:26.062500,23.75
17:38:26.078125,8.25
17:38:26.093750,-4.00
17:38:26.109375,-11.55
17:38:26.125000,-14.33
17:38:26.140625,-13.34
17:38:26.156250,-10.10
17:38:26.171875,-5.94
17:38:26.187500,-1.68
17:38:26.203125,2.35
17:38:26.218750,6.13
17:38:26.234375,9.71
17:38:26.250000,13.01
17:38:26.265625,15.83
17:38:26.281250,17.95
17:38:26.296875,19.26
17:38:26.312500,19.88
17:38:26.328125,20.19
17:38:26.343750,20.70
17:38:26.359375,21.85
17:38:26.375000,23.81
17:38:26.390625,26.29
17:38:26.406250,28.72
17:38:26.421875,30.44
17:38:26.437500,30.99
17:38:26.453125,30.27
17:38:26.468750,28.53
17:38:26.484375,26.09
17:38:26.500000,23.19
17:38:26.515625,19.83
17:38:26.531250,15.83
17:38:26.546875,11.03
17:38:26.562500,5.42
17:38:26.578125,-0.81
17:38:26.593750,-7.33
17:38:26.609375,-13.85
17:38:26.625000,-20.20
17:38:26.640625,-26.36
17:38:26.656250,-32.38
17:38:26.671875,-38.38
17:38:26.687500,-44.49
17:38:26.703125,-50.85
17:38:26.718750,-57.62
17:38:26.734375,-64.88
17:38:26.750000,-72.54
17:38:26.765625,-80.20
17:38:26.781250,-87.15
17:38:26.796875,-92.50
17:38:26.812500,-95.44
17:38:26.828125,-95.43
17:38:26.843750,-92.44
17:38:26.859375,-86.85
17:38:26.875000,-79.27
17:38:26.890625,-70.33
17:38:26.906250,-60.42
17:38:26.921875,-49.74
17:38:26.937500,-38.42
17:38:26.953125,-26.80
17:38:26.968750,-15.58
17:38:26.984375,-5.83
17:38:27,1.31
17:38:27.015625,5.05
17:38:27.031250,5.23
17:38:27.046875,2.49
17:38:27.062500,-2.01
17:38:27.078125,-6.91
17:38:27.093750,-11.10
17:38:27.109375,-13.97
17:38:27.125000,-15.50
17:38:27.140625,-16.23
17:38:27.156250,-17.22
17:38:27.171875,-19.85
17:38:27.187500,-25.31
17:38:27.203125,-33.78
17:38:27.218750,-43.63
17:38:27.234375,-51.26
17:38:27.250000,-51.99
17:38:27.265625,-41.79
17:38:27.281250,-19.13
17:38:27.296875,13.99
17:38:27.312500,52.49
17:38:27.328125,90.10
17:38:27.343750,121.46
17:38:27.359375,143.81
17:38:27.375000,157.16
17:38:27.390625,163.30
17:38:27.406250,164.33
17:38:27.421875,161.55
17:38:27.437500,155.26
17:38:27.453125,145.27
17:38:27.468750,131.53
17:38:27.484375,114.48
17:38:27.500000,94.96
17:38:27.515625,73.91
17:38:27.531250,52.05
17:38:27.546875,29.95
17:38:27.562500,8.23
17:38:27.578125,-12.11
17:38:27.593750,-29.67
17:38:27.609375,-42.92
17:38:27.625000,-50.75
17:38:27.640625,-53.00
17:38:27.656250,-50.69
17:38:27.671875,-45.77
17:38:27.687500,-40.43
17:38:27.703125,-36.40
17:38:27.718750,-34.37
17:38:27.734375,-33.97
17:38:27.750000,-34.03
17:38:27.765625,-33.20
17:38:27.781250,-30.43
17:38:27.796875,-25.29
17:38:27.812500,-18.02
17:38:27.828125,-9.15
17:38:27.843750,0.66
17:38:27.859375,11.03
17:38:27.875000,21.80
17:38:27.890625,32.97
17:38:27.906250,44.54
17:38:27.921875,56.30
17:38:27.937500,67.91
17:38:27.953125,78.90
17:38:27.968750,88.84
17:38:27.984375,97.40
17:38:28,104.33
17:38:28.015625,109.39
17:38:28.031250,112.30
17:38:28.046875,112.72
17:38:28.062500,110.50
17:38:28.078125,105.72
17:38:28.093750,98.84
17:38:28.109375,90.50
17:38:28.125000,81.45
17:38:28.140625,72.28
17:38:28.156250,63.33
17:38:28.171875,54.82
17:38:28.187500,46.96
17:38:28.203125,40.04
17:38:28.218750,34.49
17:38:28.234375,30.71
17:38:28.250000,28.88
17:38:28.265625,28.76
17:38:28.281250,29.77
17:38:28.296875,31.07
17:38:28.312500,31.91
17:38:28.328125,31.83
17:38:28.343750,30.74
17:38:28.359375,28.87
17:38:28.375000,26.59
17:38:28.390625,24.18
17:38:28.406250,21.73
17:38:28.421875,19.01
17:38:28.437500,15.54
17:38:28.453125,10.78
17:38:28.468750,4.31
17:38:28.484375,-3.85
17:38:28.500000,-13.09
17:38:28.515625,-22.28
17:38:28.531250,-30.02
17:38:28.546875,-35.09
17:38:28.562500,-36.93
17:38:28.578125,-35.78
17:38:28.593750,-32.49
17:38:28.609375,-28.11
17:38:28.625000,-23.46
17:38:28.640625,-18.87
17:38:28.656250,-14.23
17:38:28.671875,-9.17
17:38:28.687500,-3.27
17:38:28.703125,3.87
17:38:28.718750,12.63
17:38:28.734375,23.37
17:38:28.750000,36.28
17:38:28.765625,51.12
17:38:28.781250,67.23
17:38:28.796875,83.77
17:38:28.812500,100.38
17:38:28.828125,117.58
17:38:28.843750,136.72
17:38:28.859375,159.29
17:38:28.875000,185.96
17:38:28.890625,215.92
17:38:28.906250,246.92
17:38:28.921875,276.03
17:38:28.937500,300.55
17:38:28.953125,318.64
17:38:28.968750,329.39
17:38:28.984375,332.42
17:38:29,327.58
17:38:29.015625,315.01
17:38:29.031250,295.39
17:38:29.046875,270.27
17:38:29.062500,241.87
17:38:29.078125,212.51
17:38:29.093750,183.97
17:38:29.109375,157.00
17:38:29.125000,131.44
17:38:29.140625,106.64
17:38:29.156250,81.93
17:38:29.171875,56.87
17:38:29.187500,31.29
17:38:29.203125,5.13
17:38:29.218750,-21.63
17:38:29.234375,-48.98
17:38:29.250000,-76.82
17:38:29.265625,-104.90
17:38:29.281250,-133.01
17:38:29.296875,-161.19
17:38:29.312500,-189.89
17:38:29.328125,-219.78
17:38:29.343750,-251.33
17:38:29.359375,-284.34
17:38:29.375000,-317.59
17:38:29.390625,-349.01
17:38:29.406250,-376.37
17:38:29.421875,-398.05
17:38:29.437500,-413.70
17:38:29.453125,-424.33
17:38:29.468750,-431.87
17:38:29.484375,-438.62
17:38:29.500000,-446.56
17:38:29.515625,-457.09
17:38:29.531250,-470.71
17:38:29.546875,-486.89
17:38:29.562500,-503.72
17:38:29.578125,-517.76
17:38:29.593750,-524.40
17:38:29.609375,-518.92
17:38:29.625000,-497.92
17:38:29.640625,-460.75
17:38:29.656250,-409.95
17:38:29.671875,-350.48
17:38:29.687500,-287.95
17:38:29.703125,-226.72
17:38:29.718750,-168.78
17:38:29.734375,-113.92
17:38:29.750000,-61.00
17:38:29.765625,-9.35
17:38:29.781250,40.38
17:38:29.796875,86.40
17:38:29.812500,126.78
17:38:29.828125,160.41
17:38:29.843750,187.52
17:38:29.859375,209.41
17:38:29.875000,227.64
17:38:29.890625,243.34
17:38:29.906250,256.74
17:38:29.921875,267.08
17:38:29.937500,272.90
17:38:29.953125,272.45
17:38:29.968750,264.07
17:38:29.984375,246.70
17:38:30,220.23
17:38:30.015625,185.61
17:38:30.031250,144.79
17:38:30.046875,100.26
17:38:30.062500,54.69
17:38:30.078125,10.58
17:38:30.093750,-29.89
17:38:30.109375,-64.91
17:38:30.125000,-93.02
17:38:30.140625,-113.25
17:38:30.156250,-125.29
17:38:30.171875,-129.53
17:38:30.187500,-127.07
17:38:30.203125,-119.38
17:38:30.218750,-108.08
17:38:30.234375,-94.62
17:38:30.250000,-80.12
17:38:30.265625,-65.36
17:38:30.281250,-50.83
17:38:30.296875,-36.90
17:38:30.312500,-23.97
17:38:30.328125,-12.52
17:38:30.343750,-3.07
17:38:30.359375,3.97
17:38:30.375000,8.47
17:38:30.390625,10.71
17:38:30.406250,11.29
17:38:30.421875,10.88
17:38:30.437500,9.97
17:38:30.453125,8.63
17:38:30.468750,6.47
17:38:30.484375,2.86
17:38:30.500000,-2.76
17:38:30.515625,-10.55
17:38:30.531250,-20.00
17:38:30.546875,-30.00
17:38:30.562500,-39.02
17:38:30.578125,-45.45
17:38:30.593750,-48.05
17:38:30.609375,-46.22
17:38:30.625000,-40.16
17:38:30.640625,-30.71
17:38:30.656250,-19.16
17:38:30.671875,-6.87
17:38:30.687500,4.99
17:38:30.703125,15.66
17:38:30.718750,24.92
17:38:30.734375,32.93
17:38:30.750000,40.02
17:38:30.765625,46.45
17:38:30.781250,52.22
17:38:30.796875,57.06
17:38:30.812500,60.61
17:38:30.828125,62.69
17:38:30.843750,63.46
17:38:30.859375,63.44
17:38:30.875000,63.28
17:38:30.890625,63.48
17:38:30.906250,64.20
17:38:30.921875,65.24
17:38:30.937500,66.21
17:38:30.953125,66.84
17:38:30.968750,67.07
17:38:30.984375,67.06
17:38:31,67.07
17:38:31.015625,67.18
17:38:31.031250,67.24
17:38:31.046875,66.89
17:38:31.062500,65.74
17:38:31.078125,63.53
17:38:31.093750,60.33
17:38:31.109375,56.48
17:38:31.125000,52.49
17:38:31.140625,48.81
17:38:31.156250,45.70
17:38:31.171875,43.12
17:38:31.187500,40.85
17:38:31.203125,38.58
17:38:31.218750,36.01
17:38:31.234375,32.90
17:38:31.250000,29.08
17:38:31.265625,24.50
17:38:31.281250,19.23
17:38:31.296875,13.49
17:38:31.312500,7.67
17:38:31.328125,2.20
17:38:31.343750,-2.55
17:38:31.359375,-6.38
17:38:31.375000,-9.38
17:38:31.390625,-11.79
17:38:31.406250,-13.94
17:38:31.421875,-16.08
17:38:31.437500,-18.40
17:38:31.453125,-20.97
17:38:31.468750,-23.91
17:38:31.484375,-27.40
17:38:31.500000,-31.70
17:38:31.515625,-37.08
17:38:31.531250,-43.65
17:38:31.546875,-51.23
17:38:31.562500,-59.29
17:38:31.578125,-66.96
17:38:31.593750,-73.15
17:38:31.609375,-76.79
17:38:31.625000,-76.98
17:38:31.640625,-73.28
17:38:31.656250,-65.79
17:38:31.671875,-55.11
17:38:31.687500,-42.21
17:38:31.703125,-28.18
17:38:31.718750,-13.99
17:38:31.734375,-0.32
17:38:31.750000,12.51
17:38:31.765625,24.41
17:38:31.781250,35.41
17:38:31.796875,45.54
17:38:31.812500,54.70
17:38:31.828125,62.64
17:38:31.843750,69.07
17:38:31.859375,73.72
17:38:31.875000,76.51
17:38:31.890625,77.55
17:38:31.906250,77.15
17:38:31.921875,75.67
17:38:31.937500,73.45
17:38:31.953125,70.74
17:38:31.968750,67.78
17:38:31.984375,64.81
17:38:32,62.16
17:38:32.015625,60.12
17:38:32.031250,58.79
17:38:32.046875,58.03
17:38:32.062500,57.41
17:38:32.078125,56.44
17:38:32.093750,54.78
17:38:32.109375,52.30
17:38:32.125000,49.20
17:38:32.140625,45.72
17:38:32.156250,42.09
17:38:32.171875,38.28
17:38:32.187500,34.19
17:38:32.203125,29.68
17:38:32.218750,24.72
17:38:32.234375,19.53
17:38:32.250000,14.44
17:38:32.265625,9.85
17:38:32.281250,6.06
17:38:32.296875,3.19
17:38:32.312500,1.07
17:38:32.328125,-0.63
17:38:32.343750,-2.35
17:38:32.359375,-4.47
17:38:32.375000,-7.23
17:38:32.390625,-10.67
17:38:32.406250,-14.66
17:38:32.421875,-18.95
17:38:32.437500,-23.34
17:38:32.453125,-27.70
17:38:32.468750,-32.05
17:38:32.484375,-36.52
17:38:32.500000,-41.34
17:38:32.515625,-46.69
17:38:32.531250,-52.61
17:38:32.546875,-58.87
17:38:32.562500,-64.98
17:38:32.578125,-70.21
17:38:32.593750,-73.72
17:38:32.609375,-74.82
17:38:32.625000,-73.09
17:38:32.640625,-68.46
17:38:32.656250,-61.22
17:38:32.671875,-51.93
17:38:32.687500,-41.28
17:38:32.703125,-29.97
17:38:32.718750,-18.66
17:38:32.734375,-7.91
17:38:32.750000,1.86
17:38:32.765625,10.29
17:38:32.781250,17.10
17:38:32.796875,22.11
17:38:32.812500,25.26
17:38:32.828125,26.66
17:38:32.843750,26.62
17:38:32.859375,25.54
17:38:32.875000,23.95
17:38:32.890625,22.29
17:38:32.906250,20.86
17:38:32.921875,19.76
17:38:32.937500,18.90
17:38:32.953125,18.08
17:38:32.968750,17.13
17:38:32.984375,15.99
17:38:33,14.76
17:38:33.015625,13.63
17:38:33.031250,12.69
17:38:33.046875,11.89
17:38:33.062500,10.90
17:38:33.078125,9.32
17:38:33.093750,6.83
17:38:33.109375,3.39
17:38:33.125000,-0.76
17:38:33.140625,-5.18
17:38:33.156250,-9.49
17:38:33.171875,-13.45
17:38:33.187500,-16.98
17:38:33.203125,-20.03
17:38:33.218750,-22.52
17:38:33.234375,-24.31
17:38:33.250000,-25.29
17:38:33.265625,-25.60
17:38:33.281250,-25.62
17:38:33.296875,-25.94
17:38:33.312500,-27.07
17:38:33.328125,-29.32
17:38:33.343750,-32.63
17:38:33.359375,-36.65
17:38:33.375000,-40.95
17:38:33.390625,-45.11
17:38:33.406250,-48.89
17:38:33.421875,-52.22
17:38:33.437500,-55.12
17:38:33.453125,-57.69
17:38:33.468750,-60.06
17:38:33.484375,-62.41
17:38:33.500000,-64.96
17:38:33.515625,-67.89
17:38:33.531250,-71.31
17:38:33.546875,-75.01
17:38:33.562500,-78.48
17:38:33.578125,-80.85
17:38:33.593750,-81.06
17:38:33.609375,-78.23
17:38:33.625000,-71.83
17:38:33.640625,-61.88
17:38:33.656250,-48.91
17:38:33.671875,-33.72
17:38:33.687500,-17.09
17:38:33.703125,0.40
17:38:33.718750,18.46
17:38:33.734375,37.02
17:38:33.750000,55.98
17:38:33.765625,75.07
17:38:33.781250,93.69
17:38:33.796875,110.94
17:38:33.812500,125.63
17:38:33.828125,136.48
17:38:33.843750,142.32
17:38:33.859375,142.31
17:38:33.875000,136.25
17:38:33.890625,124.84
17:38:33.906250,109.79
17:38:33.921875,93.62
17:38:33.937500,79.24
17:38:33.953125,69.26
17:38:33.968750,65.33
17:38:33.984375,67.67
17:38:34,75.03
17:38:34.015625,85.17
17:38:34.031250,95.54
17:38:34.046875,104.19
17:38:34.062500,110.15
17:38:34.078125,113.62
17:38:34.093750,115.52
17:38:34.109375,116.98
17:38:34.125000,118.76
17:38:34.140625,121.06
17:38:34.156250,123.58
17:38:34.171875,125.86
17:38:34.187500,127.75
17:38:34.203125,129.43
17:38:34.218750,131.41
17:38:34.234375,133.95
17:38:34.250000,136.57
17:38:34.265625,137.74
17:38:34.281250,134.86
17:38:34.296875,124.83
17:38:34.312500,104.90
17:38:34.328125,73.82
17:38:34.343750,32.62
17:38:34.359375,-15.12
17:38:34.375000,-63.97
17:38:34.390625,-107.85
17:38:34.406250,-141.63
17:38:34.421875,-162.27
17:38:34.437500,-169.33
17:38:34.453125,-164.63
17:38:34.468750,-151.32
17:38:34.484375,-132.82
17:38:34.500000,-112.05
17:38:34.515625,-91.06
17:38:34.531250,-71.22
17:38:34.546875,-53.55
17:38:34.562500,-39.36
17:38:34.578125,-30.36
17:38:34.593750,-28.84
17:38:34.609375,-37.29
17:38:34.625000,-57.78
17:38:34.640625,-91.12
17:38:34.656250,-136.04
17:38:34.671875,-188.73
17:38:34.687500,-242.97
17:38:34.703125,-291.07
17:38:34.718750,-325.27
17:38:34.734375,-339.51
17:38:34.750000,-330.85
17:38:34.765625,-300.04
17:38:34.781250,-251.21
17:38:34.796875,-190.59
17:38:34.812500,-125.06
17:38:34.828125,-60.72
17:38:34.843750,-2.14
17:38:34.859375,47.92
17:38:34.875000,88.40
17:38:34.890625,119.63
17:38:34.906250,142.93
17:38:34.921875,160.00
17:38:34.937500,172.16
17:38:34.953125,179.63
17:38:34.968750,181.31
17:38:34.984375,175.09
17:38:35,158.93
17:38:35.015625,131.96
17:38:35.031250,95.43
17:38:35.046875,52.81
17:38:35.062500,9.17
17:38:35.078125,-30.15
17:38:35.093750,-60.85
17:38:35.109375,-80.63
17:38:35.125000,-89.43
17:38:35.140625,-88.99
17:38:35.156250,-82.02
17:38:35.171875,-71.09
17:38:35.187500,-58.03
17:38:35.203125,-43.59
17:38:35.218750,-27.73
17:38:35.234375,-10.07
17:38:35.250000,9.58
17:38:35.265625,30.96
17:38:35.281250,53.35
17:38:35.296875,75.82
17:38:35.312500,97.39
17:38:35.328125,117.23
17:38:35.343750,134.68
17:38:35.359375,149.18
17:38:35.375000,160.14
17:38:35.390625,166.71
17:38:35.406250,167.67
17:38:35.421875,161.39
17:38:35.437500,146.10
17:38:35.453125,120.49
17:38:35.468750,84.31
17:38:35.484375,38.86
17:38:35.500000,-12.93
17:38:35.515625,-66.91
17:38:35.531250,-118.35
17:38:35.546875,-162.75
17:38:35.562500,-196.52
17:38:35.578125,-217.53
17:38:35.593750,-225.56
17:38:35.609375,-222.23
17:38:35.625000,-210.70
17:38:35.640625,-194.65
17:38:35.656250,-177.33
17:38:35.671875,-160.59
17:38:35.687500,-144.73
17:38:35.703125,-129.02
17:38:35.718750,-112.63
17:38:35.734375,-95.57
17:38:35.750000,-79.01
17:38:35.765625,-64.93
17:38:35.781250,-55.44
17:38:35.796875,-52.08
17:38:35.812500,-55.30
17:38:35.828125,-64.29
17:38:35.843750,-77.04
17:38:35.859375,-90.56
17:38:35.875000,-101.44
17:38:35.890625,-106.50
17:38:35.906250,-103.55
17:38:35.921875,-91.82
17:38:35.937500,-72.00
17:38:35.953125,-45.70
17:38:35.968750,-15.03
17:38:35.984375,17.93
17:38:36,51.11
17:38:36.015625,82.32
17:38:36.031250,109.04
17:38:36.046875,128.53
17:38:36.062500,138.26
17:38:36.078125,136.62
17:38:36.093750,123.78
17:38:36.109375,101.98
17:38:36.125000,75.37
17:38:36.140625,49.02
17:38:36.156250,27.46
17:38:36.171875,13.44
17:38:36.187500,7.41
17:38:36.203125,7.98
17:38:36.218750,13.15
17:38:36.234375,21.57
17:38:36.250000,33.15
17:38:36.265625,48.73
17:38:36.281250,68.98
17:38:36.296875,93.56
17:38:36.312500,120.80
17:38:36.328125,148.22
17:38:36.343750,173.45
17:38:36.359375,195.15
17:38:36.375000,213.00
17:38:36.390625,227.45
17:38:36.406250,238.95
17:38:36.421875,247.51
17:38:36.437500,252.52
17:38:36.453125,253.01
17:38:36.468750,248.09
17:38:36.484375,237.27
17:38:36.500000,220.64
17:38:36.515625,198.72
17:38:36.531250,172.35
17:38:36.546875,142.50
17:38:36.562500,110.20
17:38:36.578125,76.58
17:38:36.593750,42.92
17:38:36.609375,10.47
17:38:36.625000,-19.67
17:38:36.640625,-46.83
17:38:36.656250,-70.94
17:38:36.671875,-92.42
17:38:36.687500,-112.04
17:38:36.703125,-130.70
17:38:36.718750,-149.19
17:38:36.734375,-168.10
17:38:36.750000,-187.71
17:38:36.765625,-207.94
17:38:36.781250,-228.22
17:38:36.796875,-247.51
17:38:36.812500,-264.31
17:38:36.828125,-276.90
17:38:36.843750,-283.59
17:38:36.859375,-282.96
17:38:36.875000,-274.11
17:38:36.890625,-256.82
17:38:36.906250,-231.62
17:38:36.921875,-199.85
17:38:36.937500,-163.47
17:38:36.953125,-124.80
17:38:36.968750,-86.11
17:38:36.984375,-49.26
17:38:37,-15.54
17:38:37.015625,14.20
17:38:37.031250,39.38
17:38:37.046875,59.42
17:38:37.062500,73.71
17:38:37.078125,81.90
17:38:37.093750,84.11
17:38:37.109375,81.11
17:38:37.125000,74.22
17:38:37.140625,65.06
17:38:37.156250,55.12
17:38:37.171875,45.67
17:38:37.187500,37.75
17:38:37.203125,32.26
17:38:37.218750,30.03
17:38:37.234375,31.71
17:38:37.250000,37.51
17:38:37.265625,47.06
17:38:37.281250,59.40
17:38:37.296875,73.23
17:38:37.312500,87.27
17:38:37.328125,100.51
17:38:37.343750,112.25
17:38:37.359375,121.96
17:38:37.375000,129.07
17:38:37.390625,132.80
17:38:37.406250,132.31
17:38:37.421875,126.90
17:38:37.437500,116.43
17:38:37.453125,101.43
17:38:37.468750,83.16
17:38:37.484375,63.28
17:38:37.500000,43.48
17:38:37.515625,24.97
17:38:37.531250,8.23
17:38:37.546875,-6.96
17:38:37.562500,-21.35
17:38:37.578125,-35.86
17:38:37.593750,-51.25
17:38:37.609375,-67.96
17:38:37.625000,-85.97
17:38:37.640625,-104.72
17:38:37.656250,-123.29
17:38:37.671875,-140.54
17:38:37.687500,-155.38
17:38:37.703125,-167.01
17:38:37.718750,-175.12
17:38:37.734375,-179.79
17:38:37.750000,-181.34
17:38:37.765625,-180.05
17:38:37.781250,-176.07
17:38:37.796875,-169.29
17:38:37.812500,-159.52
17:38:37.828125,-146.61
17:38:37.843750,-130.82
17:38:37.859375,-112.89
17:38:37.875000,-94.07
17:38:37.890625,-75.92
17:38:37.906250,-59.91
17:38:37.921875,-46.98
17:38:37.937500,-37.22
17:38:37.953125,-29.89
17:38:37.968750,-23.74
17:38:37.984375,-17.44
17:38:38,-9.95
17:38:38.015625,-0.67
17:38:38.031250,10.61
17:38:38.046875,23.83
17:38:38.062500,38.75
17:38:38.078125,54.92
17:38:38.093750,71.79
17:38:38.109375,88.73
17:38:38.125000,105.22
17:38:38.140625,120.98
17:38:38.156250,135.88
17:38:38.171875,149.84
17:38:38.187500,162.61
17:38:38.203125,173.62
17:38:38.218750,181.97
17:38:38.234375,186.61
17:38:38.250000,186.64
17:38:38.265625,181.58
17:38:38.281250,171.60
17:38:38.296875,157.63
17:38:38.312500,141.20
17:38:38.328125,124.14
17:38:38.343750,108.09
17:38:38.359375,93.98
17:38:38.375000,81.73
17:38:38.390625,70.20
17:38:38.406250,57.53
17:38:38.421875,41.71
17:38:38.437500,21.22
17:38:38.453125,-4.39
17:38:38.468750,-34.14
17:38:38.484375,-65.61
17:38:38.500000,-95.33
17:38:38.515625,-119.54
17:38:38.531250,-135.12
17:38:38.546875,-140.52
17:38:38.562500,-136.16
17:38:38.578125,-124.23
17:38:38.593750,-107.87
17:38:38.609375,-90.08
17:38:38.625000,-72.85
17:38:38.640625,-56.88
17:38:38.656250,-41.92
17:38:38.671875,-27.68
17:38:38.687500,-14.66
17:38:38.703125,-4.53
17:38:38.718750,0.12
17:38:38.734375,-3.43
17:38:38.750000,-16.97
17:38:38.765625,-40.59
17:38:38.781250,-72.28
17:38:38.796875,-108.13
17:38:38.812500,-143.11
17:38:38.828125,-171.96
17:38:38.843750,-190.37
17:38:38.859375,-195.80
17:38:38.875000,-187.88
17:38:38.890625,-168.20
17:38:38.906250,-139.68
17:38:38.921875,-105.62
17:38:38.937500,-68.88
17:38:38.953125,-31.49
17:38:38.968750,5.34
17:38:38.984375,40.90
17:38:39,74.48
17:38:39.015625,105.13
17:38:39.031250,131.66
17:38:39.046875,152.77
17:38:39.062500,167.44
17:38:39.078125,175.18
17:38:39.093750,176.14
17:38:39.109375,171.16
17:38:39.125000,161.54
17:38:39.140625,148.91
17:38:39.156250,134.90
17:38:39.171875,121.00
17:38:39.187500,108.42
17:38:39.203125,97.89
17:38:39.218750,89.63
17:38:39.234375,83.13
17:38:39.250000,77.29
17:38:39.265625,70.63
17:38:39.281250,61.81
17:38:39.296875,50.17
17:38:39.312500,35.97
17:38:39.328125,20.43
17:38:39.343750,5.19
17:38:39.359375,-8.21
17:38:39.375000,-18.79
17:38:39.390625,-26.22
17:38:39.406250,-30.66
17:38:39.421875,-32.41
17:38:39.437500,-31.77
17:38:39.453125,-29.01
17:38:39.468750,-24.53
17:38:39.484375,-19.10
17:38:39.500000,-13.95
17:38:39.515625,-10.65
17:38:39.531250,-10.78
17:38:39.546875,-15.53
17:38:39.562500,-25.31
17:38:39.578125,-39.52
17:38:39.593750,-56.64
17:38:39.609375,-74.43
17:38:39.625000,-90.42
17:38:39.640625,-102.41
17:38:39.656250,-108.85
17:38:39.671875,-109.16
17:38:39.687500,-103.73
17:38:39.703125,-93.78
17:38:39.718750,-80.93
17:38:39.734375,-66.77
17:38:39.750000,-52.53
17:38:39.765625,-38.97
17:38:39.781250,-26.35
17:38:39.796875,-14.69
17:38:39.812500,-3.96
17:38:39.828125,5.97
17:38:39.843750,15.27
17:38:39.859375,24.36
17:38:39.875000,33.76
17:38:39.890625,43.98
17:38:39.906250,55.20
17:38:39.921875,67.29
17:38:39.937500,79.79
17:38:39.953125,92.31
17:38:39.968750,104.74
17:38:39.984375,117.27
17:38:40,130.16
17:38:40.015625,143.23
17:38:40.031250,155.60
17:38:40.046875,165.60
17:38:40.062500,171.21
17:38:40.078125,170.67
17:38:40.093750,163.07
17:38:40.109375,148.75
17:38:40.125000,129.17
17:38:40.140625,106.53
17:38:40.156250,83.16
17:38:40.171875,61.08
17:38:40.187500,41.67
17:38:40.203125,25.67
17:38:40.218750,13.28
17:38:40.234375,4.39
17:38:40.250000,-1.33
17:38:40.265625,-4.32
17:38:40.281250,-5.20
17:38:40.296875,-4.70
17:38:40.312500,-3.66
17:38:40.328125,-2.81
17:38:40.343750,-2.59
17:38:40.359375,-3.09
17:38:40.375000,-4.08
17:38:40.390625,-5.23
17:38:40.406250,-6.31
17:38:40.421875,-7.31
17:38:40.437500,-8.44
17:38:40.453125,-9.92
17:38:40.468750,-11.85
17:38:40.484375,-14.15
17:38:40.500000,-16.60
17:38:40.515625,-18.99
17:38:40.531250,-21.25
17:38:40.546875,-23.48
17:38:40.562500,-25.85
17:38:40.578125,-28.54
17:38:40.593750,-31.62
17:38:40.609375,-35.09
17:38:40.625000,-38.79
17:38:40.640625,-42.63
17:38:40.656250,-46.49
17:38:40.671875,-50.38
17:38:40.687500,-54.39
17:38:40.703125,-58.67
17:38:40.718750,-63.38
17:38:40.734375,-68.55
17:38:40.750000,-74.15
17:38:40.765625,-79.97
17:38:40.781250,-85.84
17:38:40.796875,-91.61
17:38:40.812500,-97.31
17:38:40.828125,-103.14
17:38:40.843750,-109.45
17:38:40.859375,-116.66
17:38:40.875000,-125.11
17:38:40.890625,-134.83
17:38:40.906250,-145.41
17:38:40.921875,-155.86
17:38:40.937500,-164.74
17:38:40.953125,-170.46
17:38:40.968750,-171.63
17:38:40.984375,-167.49
17:38:41,-158.08
17:38:41.015625,-144.16
17:38:41.031250,-126.86
17:38:41.046875,-107.33
17:38:41.062500,-86.45
17:38:41.078125,-64.72
17:38:41.093750,-42.47
17:38:41.109375,-19.98
17:38:41.125000,2.38
17:38:41.140625,24.10
17:38:41.156250,44.61
17:38:41.171875,63.33
17:38:41.187500,79.74
17:38:41.203125,93.38
17:38:41.218750,103.98
17:38:41.234375,111.48
17:38:41.250000,116.15
17:38:41.265625,118.49
17:38:41.281250,119.19
17:38:41.296875,118.94
17:38:41.312500,118.27
17:38:41.328125,117.51
17:38:41.343750,116.75
17:38:41.359375,115.94
17:38:41.375000,114.95
17:38:41.390625,113.63
17:38:41.406250,111.82
17:38:41.421875,109.41
17:38:41.437500,106.31
17:38:41.453125,102.56
17:38:41.468750,98.24
17:38:41.484375,93.56
17:38:41.500000,88.73
17:38:41.515625,83.97
17:38:41.531250,79.36
17:38:41.546875,74.88
17:38:41.562500,70.41
17:38:41.578125,65.80
17:38:41.593750,60.95
17:38:41.609375,55.90
17:38:41.625000,50.71
17:38:41.640625,45.51
17:38:41.656250,40.38
17:38:41.671875,35.36
17:38:41.687500,30.50
17:38:41.703125,25.87
17:38:41.718750,21.53
17:38:41.734375,17.47
17:38:41.750000,13.55
17:38:41.765625,9.53
17:38:41.781250,5.14
17:38:41.796875,0.18
17:38:41.812500,-5.39
17:38:41.828125,-11.38
17:38:41.843750,-17.49
17:38:41.859375,-23.46
17:38:41.875000,-29.15
17:38:41.890625,-34.70
17:38:41.906250,-40.35
17:38:41.921875,-46.40
17:38:41.937500,-53.03
17:38:41.953125,-60.18
17:38:41.968750,-67.68
17:38:41.984375,-75.26
17:38:42,-82.78
17:38:42.015625,-90.23
17:38:42.031250,-97.72
17:38:42.046875,-105.48
17:38:42.062500,-113.75
17:38:42.078125,-122.71
17:38:42.093750,-132.38
17:38:42.109375,-142.47
17:38:42.125000,-152.26
17:38:42.140625,-160.59
17:38:42.156250,-166.06
17:38:42.171875,-167.33
17:38:42.187500,-163.54
17:38:42.203125,-154.52
17:38:42.218750,-140.78
17:38:42.234375,-123.33
17:38:42.250000,-103.43
17:38:42.265625,-82.28
17:38:42.281250,-60.89
17:38:42.296875,-39.92
17:38:42.312500,-19.79
17:38:42.328125,-0.64
17:38:42.343750,17.43
17:38:42.359375,34.21
17:38:42.375000,49.24
17:38:42.390625,61.85
17:38:42.406250,71.35
17:38:42.421875,77.35
17:38:42.437500,79.96
17:38:42.453125,79.76
17:38:42.468750,77.59
17:38:42.484375,74.20
17:38:42.500000,70.04
17:38:42.515625,65.20
17:38:42.531250,59.65
17:38:42.546875,53.35
17:38:42.562500,46.43
17:38:42.578125,39.11
17:38:42.593750,31.53
17:38:42.609375,23.72
17:38:42.625000,15.58
17:38:42.640625,6.93
17:38:42.656250,-2.36
17:38:42.671875,-12.64
17:38:42.687500,-24.45
17:38:42.703125,-38.49
17:38:42.718750,-55.16
17:38:42.734375,-73.88
17:38:42.750000,-92.75
17:38:42.765625,-108.68
17:38:42.781250,-118.23
17:38:42.796875,-118.68
17:38:42.812500,-108.73
17:38:42.828125,-88.62
17:38:42.843750,-59.71
17:38:42.859375,-23.85
17:38:42.875000,16.85
17:38:42.890625,60.08
17:38:42.906250,103.03
17:38:42.921875,142.62
17:38:42.937500,175.96
17:38:42.953125,201.11
17:38:42.968750,217.69
17:38:42.984375,226.76
17:38:43,230.25
17:38:43.015625,230.13
17:38:43.031250,227.75
17:38:43.046875,223.81
17:38:43.062500,218.66
17:38:43.078125,212.72
17:38:43.093750,206.64
17:38:43.109375,201.26
17:38:43.125000,197.19
17:38:43.140625,194.67
17:38:43.156250,193.50
17:38:43.171875,193.30
17:38:43.187500,193.91
17:38:43.203125,195.48
17:38:43.218750,198.24
17:38:43.234375,201.89
17:38:43.250000,205.07
17:38:43.265625,205.21
17:38:43.281250,199.16
17:38:43.296875,184.14
17:38:43.312500,158.74
17:38:43.328125,123.36
17:38:43.343750,80.21
17:38:43.359375,32.72
17:38:43.375000,-15.06
17:38:43.390625,-59.09
17:38:43.406250,-95.89
17:38:43.421875,-123.02
17:38:43.437500,-139.53
17:38:43.453125,-146.03
17:38:43.468750,-144.47
17:38:43.484375,-137.37
17:38:43.500000,-127.15
17:38:43.515625,-115.52
17:38:43.531250,-103.48
17:38:43.546875,-91.67
17:38:43.562500,-80.75
17:38:43.578125,-71.50
17:38:43.593750,-64.55
17:38:43.609375,-60.09
17:38:43.625000,-57.63
17:38:43.640625,-56.25
17:38:43.656250,-55.04
17:38:43.671875,-53.48
17:38:43.687500,-51.49
17:38:43.703125,-49.38
17:38:43.718750,-47.48
17:38:43.734375,-45.92
17:38:43.750000,-44.58
17:38:43.765625,-43.18
17:38:43.781250,-41.44
17:38:43.796875,-39.30
17:38:43.812500,-36.93
17:38:43.828125,-34.63
17:38:43.843750,-32.82
17:38:43.859375,-31.78
17:38:43.875000,-31.60
17:38:43.890625,-32.17
17:38:43.906250,-33.20
17:38:43.921875,-34.39
17:38:43.937500,-35.47
17:38:43.953125,-36.37
17:38:43.968750,-37.24
17:38:43.984375,-38.33
17:38:44,-39.96
17:38:44.015625,-42.34
17:38:44.031250,-45.52
17:38:44.046875,-49.45
17:38:44.062500,-53.92
17:38:44.078125,-58.67
17:38:44.093750,-63.50
17:38:44.109375,-68.27
17:38:44.125000,-73.04
17:38:44.140625,-78.01
17:38:44.156250,-83.55
17:38:44.171875,-90.00
17:38:44.187500,-97.56
17:38:44.203125,-106.20
17:38:44.218750,-115.62
17:38:44.234375,-125.48
17:38:44.250000,-135.52
17:38:44.265625,-145.75
17:38:44.281250,-156.46
17:38:44.296875,-168.02
17:38:44.312500,-180.77
17:38:44.328125,-194.88
17:38:44.343750,-210.45
17:38:44.359375,-227.50
17:38:44.375000,-245.96
17:38:44.390625,-265.44
17:38:44.406250,-285.05
17:38:44.421875,-303.42
17:38:44.437500,-319.01
17:38:44.453125,-330.59
17:38:44.468750,-337.49
17:38:44.484375,-339.54
17:38:44.500000,-336.57
17:38:44.515625,-328.03
17:38:44.531250,-312.85
17:38:44.546875,-289.93
17:38:44.562500,-258.82
17:38:44.578125,-220.24
17:38:44.593750,-176.10
17:38:44.609375,-129.10
17:38:44.625000,-82.03
17:38:44.640625,-37.21
17:38:44.656250,3.76
17:38:44.671875,40.05
17:38:44.687500,71.57
17:38:44.703125,98.85
17:38:44.718750,122.91
17:38:44.734375,144.92
17:38:44.750000,165.82
17:38:44.765625,185.93
17:38:44.781250,204.91
17:38:44.796875,222.09
17:38:44.812500,236.85
17:38:44.828125,249.11
17:38:44.843750,259.30
17:38:44.859375,268.22
17:38:44.875000,276.63
17:38:44.890625,285.02
17:38:44.906250,293.51
17:38:44.921875,302.02
17:38:44.937500,310.36
17:38:44.953125,318.47
17:38:44.968750,326.33
17:38:44.984375,333.95
17:38:45,341.28
17:38:45.015625,348.20
17:38:45.031250,354.52
17:38:45.046875,360.02
17:38:45.062500,364.32
17:38:45.078125,366.89
17:38:45.093750,366.85
17:38:45.109375,363.02
17:38:45.125000,354.01
17:38:45.140625,338.46
17:38:45.156250,315.45
17:38:45.171875,284.92
17:38:45.187500,247.92
17:38:45.203125,206.63
17:38:45.218750,163.98
17:38:45.234375,122.99
17:38:45.250000,86.06
17:38:45.265625,54.44
17:38:45.281250,28.20
17:38:45.296875,6.40
17:38:45.312500,-12.25
17:38:45.328125,-28.93
17:38:45.343750,-44.36
17:38:45.359375,-58.79
17:38:45.375000,-72.20
17:38:45.390625,-84.51
17:38:45.406250,-95.76
17:38:45.421875,-106.12
17:38:45.437500,-115.88
17:38:45.453125,-125.30
17:38:45.468750,-134.62
17:38:45.484375,-143.97
17:38:45.500000,-153.38
17:38:45.515625,-162.79
17:38:45.531250,-172.10
17:38:45.546875,-181.22
17:38:45.562500,-190.14
17:38:45.578125,-198.97
17:38:45.593750,-207.98
17:38:45.609375,-217.50
17:38:45.625000,-227.89
17:38:45.640625,-239.41
17:38:45.656250,-252.14
17:38:45.671875,-265.98
17:38:45.687500,-280.63
17:38:45.703125,-295.58
17:38:45.718750,-310.17
17:38:45.734375,-323.57
17:38:45.750000,-335.02
17:38:45.765625,-344.04
17:38:45.781250,-350.38
17:38:45.796875,-354.01
17:38:45.812500,-354.63
17:38:45.828125,-351.36
17:38:45.843750,-342.72
17:38:45.859375,-327.02
17:38:45.875000,-303.13
17:38:45.890625,-271.10
17:38:45.906250,-232.37
17:38:45.921875,-189.31
17:38:45.937500,-144.45
17:38:45.953125,-99.55
17:38:45.968750,-55.21
17:38:45.984375,-10.96
17:38:46,34.29
17:38:46.015625,81.48
17:38:46.031250,130.75
17:38:46.046875,180.99
17:38:46.062500,229.88
17:38:46.078125,274.49
17:38:46.093750,312.05
17:38:46.109375,340.97
17:38:46.125000,361.34
17:38:46.140625,374.86
17:38:46.156250,384.13
17:38:46.171875,391.66
17:38:46.187500,399.08
17:38:46.203125,406.87
17:38:46.218750,414.45
17:38:46.234375,420.75
17:38:46.250000,424.41
17:38:46.265625,423.91
17:38:46.281250,417.52
17:38:46.296875,403.42
17:38:46.312500,380.21
17:38:46.328125,347.66
17:38:46.343750,307.21
17:38:46.359375,262.00
17:38:46.375000,216.16
17:38:46.390625,173.62
17:38:46.406250,137.03
17:38:46.421875,107.11
17:38:46.437500,82.90
17:38:46.453125,62.58
17:38:46.468750,44.43
17:38:46.484375,27.45
17:38:46.500000,11.46
17:38:46.515625,-3.26
17:38:46.531250,-16.48
17:38:46.546875,-28.30
17:38:46.562500,-39.06
17:38:46.578125,-49.18
17:38:46.593750,-58.82
17:38:46.609375,-67.87
17:38:46.625000,-76.09
17:38:46.640625,-83.29
17:38:46.656250,-89.55
17:38:46.671875,-95.16
17:38:46.687500,-100.54
17:38:46.703125,-106.02
17:38:46.718750,-111.69
17:38:46.734375,-117.45
17:38:46.750000,-123.06
17:38:46.765625,-128.37
17:38:46.781250,-133.34
17:38:46.796875,-138.07
17:38:46.812500,-142.74
17:38:46.828125,-147.53
17:38:46.843750,-152.61
17:38:46.859375,-158.24
17:38:46.875000,-164.67
17:38:46.890625,-172.04
17:38:46.906250,-180.19
17:38:46.921875,-188.47
17:38:46.937500,-195.73
17:38:46.953125,-200.54
17:38:46.968750,-201.48
17:38:46.984375,-197.64
17:38:47,-188.79
17:38:47.015625,-175.47
17:38:47.031250,-158.72
17:38:47.046875,-139.72
17:38:47.062500,-119.54
17:38:47.078125,-98.90
17:38:47.093750,-78.33
17:38:47.109375,-58.15
17:38:47.125000,-38.65
17:38:47.140625,-20.12
17:38:47.156250,-2.85
17:38:47.171875,12.86
17:38:47.187500,26.69
17:38:47.203125,38.33
17:38:47.218750,47.56
17:38:47.234375,54.30
17:38:47.250000,58.79
17:38:47.265625,61.52
17:38:47.281250,63.16
17:38:47.296875,64.35
17:38:47.312500,65.54
17:38:47.328125,66.87
17:38:47.343750,68.25
17:38:47.359375,69.55
17:38:47.375000,70.60
17:38:47.390625,71.32
17:38:47.406250,71.57
17:38:47.421875,71.22
17:38:47.437500,70.06
17:38:47.453125,68.04
17:38:47.468750,65.27
17:38:47.484375,62.05
17:38:47.500000,58.78
17:38:47.515625,55.80
17:38:47.531250,53.25
17:38:47.546875,51.00
17:38:47.562500,48.74
17:38:47.578125,46.15
17:38:47.593750,43.04
17:38:47.609375,39.44
17:38:47.625000,35.53
17:38:47.640625,31.62
17:38:47.656250,27.93
17:38:47.671875,24.54
17:38:47.687500,21.39
17:38:47.703125,18.25
17:38:47.718750,14.92
17:38:47.734375,11.23
17:38:47.750000,7.13
17:38:47.765625,2.68
17:38:47.781250,-1.99
17:38:47.796875,-6.77
17:38:47.812500,-11.57
17:38:47.828125,-16.32
17:38:47.843750,-21.05
17:38:47.859375,-25.82
17:38:47.875000,-30.77
17:38:47.890625,-36.07
17:38:47.906250,-41.79
17:38:47.921875,-47.89
17:38:47.937500,-54.16
17:38:47.953125,-60.31
17:38:47.968750,-66.10
17:38:47.984375,-71.48
17:38:48,-76.63
17:38:48.015625,-82.05
17:38:48.031250,-88.30
17:38:48.046875,-95.94
17:38:48.062500,-105.18
17:38:48.078125,-115.70
17:38:48.093750,-126.57
17:38:48.109375,-136.28
17:38:48.125000,-143.05
17:38:48.140625,-145.34
17:38:48.156250,-142.26
17:38:48.171875,-133.88
17:38:48.187500,-121.11
17:38:48.203125,-105.31
17:38:48.218750,-87.85
17:38:48.234375,-69.74
17:38:48.250000,-51.51
17:38:48.265625,-33.38
17:38:48.281250,-15.53
17:38:48.296875,1.78
17:38:48.312500,18.11
17:38:48.328125,32.95
17:38:48.343750,45.91
17:38:48.359375,56.71
17:38:48.375000,65.32
17:38:48.390625,71.84
17:38:48.406250,76.54
17:38:48.421875,79.72
17:38:48.437500,81.76
17:38:48.453125,82.99
17:38:48.468750,83.69
17:38:48.484375,84.06
17:38:48.500000,84.24
17:38:48.515625,84.33
17:38:48.531250,84.41
17:38:48.546875,84.51
17:38:48.562500,84.51
17:38:48.578125,84.23
17:38:48.593750,83.36
17:38:48.609375,81.66
17:38:48.625000,79.02
17:38:48.640625,75.56
17:38:48.656250,71.61
17:38:48.671875,67.57
17:38:48.687500,63.78
17:38:48.703125,60.40
17:38:48.718750,57.31
17:38:48.734375,54.28
17:38:48.750000,51.03
17:38:48.765625,47.38
17:38:48.781250,43.34
17:38:48.796875,39.07
17:38:48.812500,34.80
17:38:48.828125,30.71
17:38:48.843750,26.86
17:38:48.859375,23.19
17:38:48.875000,19.50
17:38:48.890625,15.63
17:38:48.906250,11.42
17:38:48.921875,6.80
17:38:48.937500,1.87
17:38:48.953125,-3.22
17:38:48.968750,-8.26
17:38:48.984375,-13.11
17:38:49,-17.77
17:38:49.015625,-22.43
17:38:49.031250,-27.37
17:38:49.046875,-32.88
17:38:49.062500,-39.07
17:38:49.078125,-45.85
17:38:49.093750,-52.89
17:38:49.109375,-59.82
17:38:49.125000,-66.41
17:38:49.140625,-72.62
17:38:49.156250,-78.68
17:38:49.171875,-84.99
17:38:49.187500,-91.99
17:38:49.203125,-99.97
17:38:49.218750,-109.03
17:38:49.234375,-118.89
17:38:49.250000,-128.83
17:38:49.265625,-137.75
17:38:49.281250,-144.25
17:38:49.296875,-147.01
17:38:49.312500,-145.11
17:38:49.328125,-138.27
17:38:49.343750,-126.96
17:38:49.359375,-112.16
17:38:49.375000,-95.06
17:38:49.390625,-76.73
17:38:49.406250,-57.92
17:38:49.421875,-39.07
17:38:49.437500,-20.45
17:38:49.453125,-2.30
17:38:49.468750,15.06
17:38:49.484375,31.22
17:38:49.500000,45.71
17:38:49.515625,58.07
17:38:49.531250,67.99
17:38:49.546875,75.35
17:38:49.562500,80.32
17:38:49.578125,83.32
17:38:49.593750,84.90
17:38:49.609375,85.61
17:38:49.625000,85.83
17:38:49.640625,85.78
17:38:49.656250,85.56
17:38:49.671875,85.24
17:38:49.687500,84.95
17:38:49.703125,84.79
17:38:49.718750,84.76
17:38:49.734375,84.68
17:38:49.750000,84.21
17:38:49.765625,83.02
17:38:49.781250,80.90
17:38:49.796875,77.83
17:38:49.812500,74.03
17:38:49.828125,69.83
17:38:49.843750,65.52
17:38:49.859375,61.32
17:38:49.875000,57.30
17:38:49.890625,53.40
17:38:49.906250,49.49
17:38:49.921875,45.47
17:38:49.937500,41.24
17:38:49.953125,36.86
17:38:49.968750,32.45
17:38:49.984375,28.18
17:38:50,24.18
17:38:50.015625,20.41
17:38:50.031250,16.73
17:38:50.046875,12.87
17:38:50.062500,8.64
17:38:50.078125,3.96
17:38:50.093750,-1.01
17:38:50.109375,-6.02
17:38:50.125000,-10.84
17:38:50.140625,-15.40
17:38:50.156250,-19.81
17:38:50.171875,-24.35
17:38:50.187500,-29.27
17:38:50.203125,-34.66
17:38:50.218750,-40.44
17:38:50.234375,-46.36
17:38:50.250000,-52.19
17:38:50.265625,-57.84
17:38:50.281250,-63.42
17:38:50.296875,-69.19
17:38:50.312500,-75.43
17:38:50.328125,-82.41
17:38:50.343750,-90.26
17:38:50.359375,-99.01
17:38:50.375000,-108.55
17:38:50.390625,-118.49
17:38:50.406250,-128.05
17:38:50.421875,-136.10
17:38:50.437500,-141.27
17:38:50.453125,-142.38
17:38:50.468750,-138.70
17:38:50.484375,-130.26
17:38:50.500000,-117.77
17:38:50.515625,-102.35
17:38:50.531250,-85.22
17:38:50.546875,-67.38
17:38:50.562500,-49.55
17:38:50.578125,-32.21
17:38:50.593750,-15.73
17:38:50.609375,-0.45
17:38:50.625000,13.22
17:38:50.640625,24.92
17:38:50.656250,34.33
17:38:50.671875,41.27
17:38:50.687500,45.75
17:38:50.703125,47.98
17:38:50.718750,48.34
17:38:50.734375,47.31
17:38:50.750000,45.38
17:38:50.765625,42.94
17:38:50.781250,40.22
17:38:50.796875,37.31
17:38:50.812500,34.17
17:38:50.828125,30.74
17:38:50.843750,26.91
17:38:50.859375,22.54
17:38:50.875000,17.47
17:38:50.890625,11.49
17:38:50.906250,4.50
17:38:50.921875,-3.43
17:38:50.937500,-12.04
17:38:50.953125,-20.90
17:38:50.968750,-29.60
17:38:50.984375,-38.03
17:38:51,-46.43
17:38:51.015625,-55.47
17:38:51.031250,-66.06
17:38:51.046875,-78.95
17:38:51.062500,-94.27
17:38:51.078125,-111.11
17:38:51.093750,-127.48
17:38:51.109375,-140.54
17:38:51.125000,-147.34
17:38:51.140625,-145.45
17:38:51.156250,-133.46
17:38:51.171875,-110.99
17:38:51.187500,-78.57
17:38:51.203125,-37.48
17:38:51.218750,10.20
17:38:51.234375,61.48
17:38:51.250000,112.53
17:38:51.265625,159.20
17:38:51.281250,197.92
17:38:51.296875,226.67
17:38:51.312500,245.47
17:38:51.328125,256.24
17:38:51.343750,261.99
17:38:51.359375,265.91
17:38:51.375000,270.49
17:38:51.390625,277.08
17:38:51.406250,285.50
17:38:51.421875,294.03
17:38:51.437500,299.53
17:38:51.453125,298.03
17:38:51.468750,285.69
17:38:51.484375,260.00
17:38:51.500000,220.83
17:38:51.515625,170.80
17:38:51.531250,114.91
17:38:51.546875,59.32
17:38:51.562500,9.83
17:38:51.578125,-29.42
17:38:51.593750,-56.67
17:38:51.609375,-72.46
17:38:51.625000,-78.87
17:38:51.640625,-78.56
17:38:51.656250,-73.97
17:38:51.671875,-66.90
17:38:51.687500,-58.55
17:38:51.703125,-49.80
17:38:51.718750,-41.44
17:38:51.734375,-34.21
17:38:51.750000,-28.66
17:38:51.765625,-24.90
17:38:51.781250,-22.57
17:38:51.796875,-21.01
17:38:51.812500,-19.57
17:38:51.828125,-17.88
17:38:51.843750,-15.95
17:38:51.859375,-14.10
17:38:51.875000,-12.72
17:38:51.890625,-12.00
17:38:51.906250,-11.80
17:38:51.921875,-11.64
17:38:51.937500,-11.03
17:38:51.953125,-9.61
17:38:51.968750,-7.46
17:38:51.984375,-5.07
17:38:52,-3.11
17:38:52.015625,-2.17
17:38:52.031250,-2.50
17:38:52.046875,-3.91
17:38:52.062500,-5.94
17:38:52.078125,-8.06
17:38:52.093750,-9.89
17:38:52.109375,-11.30
17:38:52.125000,-12.49
17:38:52.140625,-13.79
17:38:52.156250,-15.57
17:38:52.171875,-18.05
17:38:52.187500,-21.24
17:38:52.203125,-24.91
17:38:52.218750,-28.67
17:38:52.234375,-32.16
17:38:52.250000,-35.28
17:38:52.265625,-38.18
17:38:52.281250,-41.30
17:38:52.296875,-45.15
17:38:52.312500,-50.07
17:38:52.328125,-56.04
17:38:52.343750,-62.74
17:38:52.359375,-69.64
17:38:52.375000,-76.34
17:38:52.390625,-82.66
17:38:52.406250,-88.72
17:38:52.421875,-94.86
17:38:52.437500,-101.47
17:38:52.453125,-108.95
17:38:52.468750,-117.56
17:38:52.484375,-127.43
17:38:52.500000,-138.37
17:38:52.515625,-149.72
17:38:52.531250,-160.26
17:38:52.546875,-168.35
17:38:52.562500,-172.29
17:38:52.578125,-170.80
17:38:52.593750,-163.42
17:38:52.609375,-150.65
17:38:52.625000,-133.75
17:38:52.640625,-114.33
17:38:52.656250,-93.83
17:38:52.671875,-73.24
17:38:52.687500,-52.96
17:38:52.703125,-33.03
17:38:52.718750,-13.32
17:38:52.734375,6.15
17:38:52.750000,25.10
17:38:52.765625,42.95
17:38:52.781250,58.92
17:38:52.796875,72.29
17:38:52.812500,82.57
17:38:52.828125,89.68
17:38:52.843750,93.96
17:38:52.859375,96.02
17:38:52.875000,96.59
17:38:52.890625,96.35
17:38:52.906250,95.80
17:38:52.921875,95.25
17:38:52.937500,94.86
17:38:52.953125,94.68
17:38:52.968750,94.66
17:38:52.984375,94.65
17:38:53,94.39
17:38:53.015625,93.58
17:38:53.031250,91.96
17:38:53.046875,89.37
17:38:53.062500,85.79
17:38:53.078125,81.42
17:38:53.093750,76.57
17:38:53.109375,71.57
17:38:53.125000,66.68
17:38:53.140625,61.94
17:38:53.156250,57.26
17:38:53.171875,52.39
17:38:53.187500,47.10
17:38:53.203125,41.29
17:38:53.218750,35.06
17:38:53.234375,28.64
17:38:53.250000,22.31
17:38:53.265625,16.23
17:38:53.281250,10.37
17:38:53.296875,4.53
17:38:53.312500,-1.61
17:38:53.328125,-8.29
17:38:53.343750,-15.62
17:38:53.359375,-23.50
17:38:53.375000,-31.77
17:38:53.390625,-40.21
17:38:53.406250,-48.63
17:38:53.421875,-56.93
17:38:53.437500,-65.08
17:38:53.453125,-73.19
17:38:53.468750,-81.50
17:38:53.484375,-90.37
17:38:53.500000,-100.23
17:38:53.515625,-111.36
17:38:53.531250,-123.65
17:38:53.546875,-136.44
17:38:53.562500,-148.47
17:38:53.578125,-158.04
17:38:53.593750,-163.45
17:38:53.609375,-163.40
17:38:53.625000,-157.37
17:38:53.640625,-145.73
17:38:53.656250,-129.60
17:38:53.671875,-110.45
17:38:53.687500,-89.68
17:38:53.703125,-68.33
17:38:53.718750,-47.00
17:38:53.734375,-25.95
17:38:53.750000,-5.36
17:38:53.765625,14.45
17:38:53.781250,32.98
17:38:53.796875,49.60
17:38:53.812500,63.76
17:38:53.828125,75.13
17:38:53.843750,83.71
17:38:53.859375,89.80
17:38:53.875000,93.86
17:38:53.890625,96.35
17:38:53.906250,97.69
17:38:53.921875,98.21
17:38:53.937500,98.22
17:38:53.953125,98.04
17:38:53.968750,97.92
17:38:53.984375,98.00
17:38:54,98.21
17:38:54.015625,98.30
17:38:54.031250,97.94
17:38:54.046875,96.78
17:38:54.062500,94.60
17:38:54.078125,91.32
17:38:54.093750,87.05
17:38:54.109375,82.00
17:38:54.125000,76.54
17:38:54.140625,70.99
17:38:54.156250,65.66
17:38:54.171875,60.62
17:38:54.187500,55.78
17:38:54.203125,50.88
17:38:54.218750,45.62
17:38:54.234375,39.79
17:38:54.250000,33.31
17:38:54.265625,26.29
17:38:54.281250,18.91
17:38:54.296875,11.44
17:38:54.312500,4.10
17:38:54.328125,-2.98
17:38:54.343750,-9.78
17:38:54.359375,-16.46
17:38:54.375000,-23.33
17:38:54.390625,-30.68
17:38:54.406250,-38.71
17:38:54.421875,-47.35
17:38:54.437500,-56.33
17:38:54.453125,-65.24
17:38:54.468750,-73.79
17:38:54.484375,-82.00
17:38:54.500000,-90.21
17:38:54.515625,-99.03
17:38:54.531250,-109.06
17:38:54.546875,-120.68
17:38:54.562500,-133.78
17:38:54.578125,-147.60
17:38:54.593750,-160.81
17:38:54.609375,-171.61
17:38:54.625000,-178.14
17:38:54.640625,-178.93
17:38:54.656250,-173.25
17:38:54.671875,-161.33
17:38:54.687500,-144.19
17:38:54.703125,-123.39
17:38:54.718750,-100.49
17:38:54.734375,-76.77
17:38:54.750000,-53.04
17:38:54.765625,-29.70
17:38:54.781250,-6.93
17:38:54.796875,15.16
17:38:54.812500,36.31
17:38:54.828125,56.08
17:38:54.843750,73.86
17:38:54.859375,88.99
17:38:54.875000,100.94
17:38:54.890625,109.51
17:38:54.906250,114.89
17:38:54.921875,117.71
17:38:54.937500,118.79
17:38:54.953125,118.99
17:38:54.968750,118.92
17:38:54.984375,118.86
17:38:55,118.85
17:38:55.015625,118.70
17:38:55.031250,118.19
17:38:55.046875,117.16
17:38:55.062500,115.52
17:38:55.078125,113.24
17:38:55.093750,110.36
17:38:55.109375,106.93
17:38:55.125000,103.04
17:38:55.140625,98.75
17:38:55.156250,94.14
17:38:55.171875,89.23
17:38:55.187500,84.05
17:38:55.203125,78.59
17:38:55.218750,72.82
17:38:55.234375,66.68
17:38:55.250000,60.10
17:38:55.265625,53.04
17:38:55.281250,45.49
17:38:55.296875,37.54
17:38:55.312500,29.37
17:38:55.328125,21.21
17:38:55.343750,13.24
17:38:55.359375,5.50
17:38:55.375000,-2.08
17:38:55.390625,-9.70
17:38:55.406250,-17.59
17:38:55.421875,-25.98
17:38:55.437500,-34.99
17:38:55.453125,-44.70
17:38:55.468750,-55.05
17:38:55.484375,-65.87
17:38:55.500000,-76.89
17:38:55.515625,-87.79
17:38:55.531250,-98.35
17:38:55.546875,-108.59
17:38:55.562500,-118.89
17:38:55.578125,-129.84
17:38:55.593750,-142.16
17:38:55.609375,-156.27
17:38:55.625000,-172.08
17:38:55.640625,-188.74
17:38:55.656250,-204.66
17:38:55.671875,-217.83
17:38:55.687500,-226.29
17:38:55.703125,-228.70
17:38:55.718750,-224.73
17:38:55.734375,-215.20
17:38:55.750000,-201.71
17:38:55.765625,-186.09
17:38:55.781250,-169.76
17:38:55.796875,-153.48
17:38:55.812500,-137.36
17:38:55.828125,-121.25
17:38:55.843750,-105.24
17:38:55.859375,-89.91
17:38:55.875000,-76.17
17:38:55.890625,-65.00
17:38:55.906250,-57.12
17:38:55.921875,-52.99
17:38:55.937500,-52.88
17:38:55.953125,-56.90
17:38:55.968750,-64.71
17:38:55.984375,-75.05
17:38:56,-85.36
17:38:56.015625,-91.99
17:38:56.031250,-91.13
17:38:56.046875,-79.96
17:38:56.062500,-57.74
17:38:56.078125,-25.81
17:38:56.093750,13.11
17:38:56.109375,56.08
17:38:56.125000,100.55
17:38:56.140625,144.13
17:38:56.156250,184.00
17:38:56.171875,216.66
17:38:56.187500,238.73
17:38:56.203125,248.53
17:38:56.218750,247.36
17:38:56.234375,239.52
17:38:56.250000,230.75
17:38:56.265625,225.79
17:38:56.281250,226.64
17:38:56.296875,232.04
17:38:56.312500,238.64
17:38:56.328125,242.73
17:38:56.343750,241.75
17:38:56.359375,234.70
17:38:56.375000,221.87
17:38:56.390625,204.17
17:38:56.406250,182.84
17:38:56.421875,159.32
17:38:56.437500,135.41
17:38:56.453125,112.99
17:38:56.468750,93.57
17:38:56.484375,77.91
17:38:56.500000,65.87
17:38:56.515625,56.61
17:38:56.531250,49.01
17:38:56.546875,41.99
17:38:56.562500,34.66
17:38:56.578125,26.32
17:38:56.593750,16.47
17:38:56.609375,4.86
17:38:56.625000,-8.48
17:38:56.640625,-23.17
17:38:56.656250,-38.58
17:38:56.671875,-53.94
17:38:56.687500,-68.55
17:38:56.703125,-81.87
17:38:56.718750,-93.49
17:38:56.734375,-103.04
17:38:56.750000,-110.08
17:38:56.765625,-114.13
17:38:56.781250,-114.70
17:38:56.796875,-111.51
17:38:56.812500,-104.68
17:38:56.828125,-94.72
17:38:56.843750,-82.56
17:38:56.859375,-69.35
17:38:56.875000,-56.38
17:38:56.890625,-44.93
17:38:56.906250,-36.10
17:38:56.921875,-30.69
17:38:56.937500,-28.99
17:38:56.953125,-30.70
17:38:56.968750,-34.98
17:38:56.984375,-40.62
17:38:57,-46.42
17:38:57.015625,-51.57
17:38:57.031250,-55.84
17:38:57.046875,-59.68
17:38:57.062500,-63.90
17:38:57.078125,-69.23
17:38:57.093750,-76.00
17:38:57.109375,-84.06
17:38:57.125000,-92.98
17:38:57.140625,-102.27
17:38:57.156250,-111.55
17:38:57.171875,-120.06
17:38:57.187500,-126.29
17:38:57.203125,-127.85
17:38:57.218750,-121.90
17:38:57.234375,-106.24
17:38:57.250000,-80.22
17:38:57.265625,-44.73
17:38:57.281250,-1.26
17:38:57.296875,49.30
17:38:57.312500,107.05
17:38:57.328125,172.11
17:38:57.343750,242.71
17:38:57.359375,313.72
17:38:57.375000,376.95
17:38:57.390625,423.43
17:38:57.406250,446.63
17:38:57.421875,444.89
17:38:57.437500,421.70
17:38:57.453125,383.67
17:38:57.468750,337.60
17:38:57.484375,288.26
17:38:57.500000,237.97
17:38:57.515625,187.49
17:38:57.531250,137.65
17:38:57.546875,90.18
17:38:57.562500,47.68
17:38:57.578125,12.76
17:38:57.593750,-12.82
17:38:57.609375,-28.51
17:38:57.625000,-34.56
17:38:57.640625,-31.27
17:38:57.656250,-18.48
17:38:57.671875,4.41
17:38:57.687500,37.44
17:38:57.703125,78.99
17:38:57.718750,124.95
17:38:57.734375,169.25
17:38:57.750000,205.41
17:38:57.765625,228.67
17:38:57.781250,237.55
17:38:57.796875,233.78
17:38:57.812500,220.93
17:38:57.828125,202.31
17:38:57.843750,179.72
17:38:57.859375,153.42
17:38:57.875000,123.23
17:38:57.890625,89.63
17:38:57.906250,54.24
17:38:57.921875,19.31
17:38:57.937500,-13.06
17:38:57.953125,-41.54
17:38:57.968750,-65.54
17:38:57.984375,-84.85
17:38:58,-99.31
17:38:58.015625,-108.80
17:38:58.031250,-113.54
17:38:58.046875,-114.24
17:38:58.062500,-112.05
17:38:58.078125,-108.08
17:38:58.093750,-103.13
17:38:58.109375,-97.58
17:38:58.125000,-91.57
17:38:58.140625,-85.29
17:38:58.156250,-79.07
17:38:58.171875,-73.28
17:38:58.187500,-68.25
17:38:58.203125,-64.16
17:38:58.218750,-61.24
17:38:58.234375,-59.68
17:38:58.250000,-59.69
17:38:58.265625,-61.34
17:38:58.281250,-64.38
17:38:58.296875,-68.27
17:38:58.312500,-72.39
17:38:58.328125,-76.25
17:38:58.343750,-79.68
17:38:58.359375,-82.93
17:38:58.375000,-86.41
17:38:58.390625,-90.60
17:38:58.406250,-95.81
17:38:58.421875,-102.15
17:38:58.437500,-109.61
17:38:58.453125,-118.14
17:38:58.468750,-127.75
17:38:58.484375,-138.46
17:38:58.500000,-150.26
17:38:58.515625,-163.04
17:38:58.531250,-176.50
17:38:58.546875,-190.17
17:38:58.562500,-203.54
17:38:58.578125,-216.09
17:38:58.593750,-227.41
17:38:58.609375,-237.38
17:38:58.625000,-246.22
17:38:58.640625,-254.53
17:38:58.656250,-263.13
17:38:58.671875,-272.76
17:38:58.687500,-283.61
17:38:58.703125,-294.92
17:38:58.718750,-304.83
17:38:58.734375,-310.69
17:38:58.750000,-309.77
17:38:58.765625,-300.05
17:38:58.781250,-280.95
17:38:58.796875,-253.45
17:38:58.812500,-219.79
17:38:58.828125,-182.73
17:38:58.843750,-144.91
17:38:58.859375,-108.34
17:38:58.875000,-74.29
17:38:58.890625,-43.45
17:38:58.906250,-16.14
17:38:58.921875,7.58
17:38:58.937500,27.88
17:38:58.953125,45.15
17:38:58.968750,60.02
17:38:58.984375,73.20
17:38:59,85.35
17:38:59.015625,96.91
17:38:59.031250,108.05
17:38:59.046875,118.77
17:38:59.062500,128.94
17:38:59.078125,138.50
17:38:59.093750,147.48
17:38:59.109375,156.02
17:38:59.125000,164.28
17:38:59.140625,172.40
17:38:59.156250,180.39
17:38:59.171875,188.17
17:38:59.187500,195.61
17:38:59.203125,202.58
17:38:59.218750,208.99
17:38:59.234375,214.73
17:38:59.250000,219.74
17:38:59.265625,223.97
17:38:59.281250,227.39
17:38:59.296875,230.00
17:38:59.312500,231.77
17:38:59.328125,232.58
17:38:59.343750,232.25
17:38:59.359375,230.57
17:38:59.375000,227.42
17:38:59.390625,222.89
17:38:59.406250,217.19
17:38:59.421875,210.62
17:38:59.437500,203.33
17:38:59.453125,195.31
17:38:59.468750,186.31
17:38:59.484375,176.01
17:38:59.500000,164.08
17:38:59.515625,150.30
17:38:59.531250,134.66
17:38:59.546875,117.30
17:38:59.562500,98.54
17:38:59.578125,78.88
17:38:59.593750,58.91
17:38:59.609375,39.27
17:38:59.625000,20.55
17:38:59.640625,3.24
17:38:59.656250,-12.32
17:38:59.671875,-25.96
17:38:59.687500,-37.67
17:38:59.703125,-47.62
17:38:59.718750,-56.18
17:38:59.734375,-63.72
17:38:59.750000,-70.51
17:38:59.765625,-76.63
17:38:59.781250,-81.85
17:38:59.796875,-85.86
17:38:59.812500,-88.38
17:38:59.828125,-89.21
17:38:59.843750,-88.21
17:38:59.859375,-85.11
17:38:59.875000,-79.47
17:38:59.890625,-70.74
17:38:59.906250,-58.65
17:38:59.921875,-43.53
17:38:59.937500,-26.44
17:38:59.953125,-9.09
17:38:59.968750,6.60
17:38:59.984375,18.97
17:39:00,26.98
17:39:00.015625,30.39
17:39:00.031250,29.64
17:39:00.046875,25.67
17:39:00.062500,19.63
17:39:00.078125,12.64
17:39:00.093750,5.64
17:39:00.109375,-0.70
17:39:00.125000,-6.00
17:39:00.140625,-10.07
17:39:00.156250,-12.93
17:39:00.171875,-14.73
17:39:00.187500,-15.79
17:39:00.203125,-16.58
17:39:00.218750,-17.60
17:39:00.234375,-19.26
17:39:00.250000,-21.69
17:39:00.265625,-24.76
17:39:00.281250,-28.15
17:39:00.296875,-31.48
17:39:00.312500,-34.54
17:39:00.328125,-37.39
17:39:00.343750,-40.25
17:39:00.359375,-43.48
17:39:00.375000,-47.44
17:39:00.390625,-52.41
17:39:00.406250,-58.63
17:39:00.421875,-66.26
17:39:00.437500,-75.37
17:39:00.453125,-85.89
17:39:00.468750,-97.56
17:39:00.484375,-110.04
17:39:00.500000,-122.86
17:39:00.515625,-135.60
17:39:00.531250,-147.89
17:39:00.546875,-159.54
17:39:00.562500,-170.54
17:39:00.578125,-181.10
17:39:00.593750,-191.54
17:39:00.609375,-202.31
17:39:00.625000,-213.85
17:39:00.640625,-226.52
17:39:00.656250,-240.54
17:39:00.671875,-255.83
17:39:00.687500,-272.12
17:39:00.703125,-288.95
17:39:00.718750,-305.88
17:39:00.734375,-322.66
17:39:00.750000,-339.17
17:39:00.765625,-355.19
17:39:00.781250,-370.09
17:39:00.796875,-382.61
17:39:00.812500,-390.91
17:39:00.828125,-393.08
17:39:00.843750,-387.71
17:39:00.859375,-374.53
17:39:00.875000,-354.44
17:39:00.890625,-329.23
17:39:00.906250,-300.89
17:39:00.921875,-271.02
17:39:00.937500,-240.51
17:39:00.953125,-209.52
17:39:00.968750,-177.82
17:39:00.984375,-145.19
17:39:01,-111.66
17:39:01.015625,-77.69
17:39:01.031250,-44.04
17:39:01.046875,-11.46
17:39:01.062500,19.50
17:39:01.078125,48.83
17:39:01.093750,77.04
17:39:01.109375,104.95
17:39:01.125000,133.45
17:39:01.140625,163.14
17:39:01.156250,194.32
17:39:01.171875,226.93
17:39:01.187500,260.48
17:39:01.203125,294.02
17:39:01.218750,325.85
17:39:01.234375,353.60
17:39:01.250000,374.66
17:39:01.265625,387.27
17:39:01.281250,391.44
17:39:01.296875,389.12
17:39:01.312500,383.32
17:39:01.328125,376.53
17:39:01.343750,369.35
17:39:01.359375,360.30
17:39:01.375000,346.88
17:39:01.390625,327.49
17:39:01.406250,302.71
17:39:01.421875,275.32
17:39:01.437500,248.84
17:39:01.453125,225.61
17:39:01.468750,205.55
17:39:01.484375,186.54
17:39:01.500000,165.95
17:39:01.515625,142.56
17:39:01.531250,117.47
17:39:01.546875,93.69
17:39:01.562500,74.54
17:39:01.578125,61.93
17:39:01.593750,55.52
17:39:01.609375,52.96
17:39:01.625000,51.11
17:39:01.640625,47.19
17:39:01.656250,39.81
17:39:01.671875,29.13
17:39:01.687500,16.30
17:39:01.703125,2.91
17:39:01.718750,-9.46
17:39:01.734375,-19.44
17:39:01.750000,-25.92
17:39:01.765625,-28.17
17:39:01.781250,-25.97
17:39:01.796875,-19.78
17:39:01.812500,-10.73
17:39:01.828125,-0.27
17:39:01.843750,10.38
17:39:01.859375,20.63
17:39:01.875000,30.42
17:39:01.890625,39.80
17:39:01.906250,48.28
17:39:01.921875,54.54
17:39:01.937500,56.77
17:39:01.953125,53.49
17:39:01.968750,44.50
17:39:01.984375,31.28
17:39:02,16.66
17:39:02.015625,3.83
17:39:02.031250,-4.74
17:39:02.046875,-7.99
17:39:02.062500,-6.42
17:39:02.078125,-1.71
17:39:02.093750,3.78
17:39:02.109375,7.67
17:39:02.125000,8.08
17:39:02.140625,4.11
17:39:02.156250,-3.87
17:39:02.171875,-14.38
17:39:02.187500,-25.24
17:39:02.203125,-34.49
17:39:02.218750,-40.96
17:39:02.234375,-44.58
17:39:02.250000,-46.08
17:39:02.265625,-46.51
17:39:02.281250,-46.76
17:39:02.296875,-47.29
17:39:02.312500,-48.25
17:39:02.328125,-49.45
17:39:02.343750,-50.48
17:39:02.359375,-50.76
17:39:02.375000,-49.57
17:39:02.390625,-46.39
17:39:02.406250,-41.14
17:39:02.421875,-34.39
17:39:02.437500,-27.21
17:39:02.453125,-20.98
17:39:02.468750,-16.91
17:39:02.484375,-15.68
17:39:02.500000,-17.22
17:39:02.515625,-20.71
17:39:02.531250,-24.78
17:39:02.546875,-27.80
17:39:02.562500,-28.42
17:39:02.578125,-25.90
17:39:02.593750,-20.34
17:39:02.609375,-12.47
17:39:02.625000,-3.33
17:39:02.640625,6.20
17:39:02.656250,15.68
17:39:02.671875,25.07
17:39:02.687500,34.49
17:39:02.703125,43.92
17:39:02.718750,53.02
17:39:02.734375,61.16
17:39:02.750000,67.68
17:39:02.765625,72.08
17:39:02.781250,74.18
17:39:02.796875,74.14
17:39:02.812500,72.40
17:39:02.828125,69.57
17:39:02.843750,66.31
17:39:02.859375,63.22
17:39:02.875000,60.65
17:39:02.890625,58.62
17:39:02.906250,56.73
17:39:02.921875,54.30
17:39:02.937500,50.59
17:39:02.953125,45.11
17:39:02.968750,37.88
17:39:02.984375,29.46
17:39:03,20.74
17:39:03.015625,12.68
17:39:03.031250,5.96
17:39:03.046875,0.82
17:39:03.062500,-3.01
17:39:03.078125,-6.11
17:39:03.093750,-9.23
17:39:03.109375,-13.02
17:39:03.125000,-17.89
17:39:03.140625,-23.96
17:39:03.156250,-31.06
17:39:03.171875,-38.86
17:39:03.187500,-46.91
17:39:03.203125,-54.85
17:39:03.218750,-62.47
17:39:03.234375,-69.81
17:39:03.250000,-77.19
17:39:03.265625,-85.13
17:39:03.281250,-94.08
17:39:03.296875,-104.12
17:39:03.312500,-114.79
17:39:03.328125,-125.01
17:39:03.343750,-133.35
17:39:03.359375,-138.46
17:39:03.375000,-139.51
17:39:03.390625,-136.44
17:39:03.406250,-129.89
17:39:03.421875,-120.80
17:39:03.437500,-110.11
17:39:03.453125,-98.45
17:39:03.468750,-86.11
17:39:03.484375,-73.17
17:39:03.500000,-59.70
17:39:03.515625,-45.84
17:39:03.531250,-31.86
17:39:03.546875,-18.06
17:39:03.562500,-4.78
17:39:03.578125,7.71
17:39:03.593750,19.16
17:39:03.609375,29.35
17:39:03.625000,38.13
17:39:03.640625,45.45
17:39:03.656250,51.35
17:39:03.671875,56.00
17:39:03.687500,59.59
17:39:03.703125,62.35
17:39:03.718750,64.40
17:39:03.734375,65.79
17:39:03.750000,66.48
17:39:03.765625,66.32
17:39:03.781250,65.17
17:39:03.796875,62.92
17:39:03.812500,59.51
17:39:03.828125,55.03
17:39:03.843750,49.59
17:39:03.859375,43.44
17:39:03.875000,36.91
17:39:03.890625,30.42
17:39:03.906250,24.42
17:39:03.921875,19.33
17:39:03.937500,15.41
17:39:03.953125,12.75
17:39:03.968750,11.16
17:39:03.984375,10.21
17:39:04,9.37
17:39:04.015625,8.11
17:39:04.031250,6.03
17:39:04.046875,3.01
17:39:04.062500,-0.78
17:39:04.078125,-4.84
17:39:04.093750,-8.42
17:39:04.109375,-10.74
17:39:04.125000,-11.27
17:39:04.140625,-10.00
17:39:04.156250,-7.65
17:39:04.171875,-5.45
17:39:04.187500,-4.73
17:39:04.203125,-6.32
17:39:04.218750,-10.04
17:39:04.234375,-14.76
17:39:04.250000,-18.71
17:39:04.265625,-20.23
17:39:04.281250,-18.37
17:39:04.296875,-13.21
17:39:04.312500,-5.69
17:39:04.328125,2.82
17:39:04.343750,11.09
17:39:04.359375,18.33
17:39:04.375000,24.33
17:39:04.390625,29.37
17:39:04.406250,34.09
17:39:04.421875,39.34
17:39:04.437500,45.99
17:39:04.453125,54.76
17:39:04.468750,65.91
17:39:04.484375,79.04
17:39:04.500000,92.82
17:39:04.515625,105.12
17:39:04.531250,113.36
17:39:04.546875,115.28
17:39:04.562500,109.78
17:39:04.578125,97.44
17:39:04.593750,80.45
17:39:04.609375,61.89
17:39:04.625000,44.66
17:39:04.640625,30.39
17:39:04.656250,19.13
17:39:04.671875,9.65
17:39:04.687500,0.36
17:39:04.703125,-9.77
17:39:04.718750,-20.81
17:39:04.734375,-31.97
17:39:04.750000,-42.10
17:39:04.765625,-50.23
17:39:04.781250,-55.72
17:39:04.796875,-58.30
17:39:04.812500,-58.05
17:39:04.828125,-55.51
17:39:04.843750,-51.81
17:39:04.859375,-48.64
17:39:04.875000,-47.85
17:39:04.890625,-50.69
17:39:04.906250,-57.24
17:39:04.921875,-66.15
17:39:04.937500,-75.10
17:39:04.953125,-81.60
17:39:04.968750,-83.92
17:39:04.984375,-81.55
17:39:05,-75.06
17:39:05.015625,-65.64
17:39:05.031250,-54.52
17:39:05.046875,-42.69
17:39:05.062500,-30.83
17:39:05.078125,-19.57
17:39:05.093750,-9.53
17:39:05.109375,-1.35
17:39:05.125000,4.51
17:39:05.140625,7.98
17:39:05.156250,9.28
17:39:05.171875,8.89
17:39:05.187500,7.29
17:39:05.203125,4.73
17:39:05.218750,1.33
17:39:05.234375,-2.73
17:39:05.250000,-6.94
17:39:05.265625,-10.43
17:39:05.281250,-12.24
17:39:05.296875,-11.76
17:39:05.312500,-9.03
17:39:05.328125,-4.86
17:39:05.343750,-0.45
17:39:05.359375,3.09
17:39:05.375000,5.12
17:39:05.390625,5.62
17:39:05.406250,4.98
17:39:05.421875,3.65
17:39:05.437500,1.89
17:39:05.453125,-0.32
17:39:05.468750,-3.15
17:39:05.484375,-6.72
17:39:05.500000,-11.00
17:39:05.515625,-15.76
17:39:05.531250,-20.64
17:39:05.546875,-25.27
17:39:05.562500,-29.42
17:39:05.578125,-33.02
17:39:05.593750,-36.28
17:39:05.609375,-39.60
17:39:05.625000,-43.44
17:39:05.640625,-48.22
17:39:05.656250,-54.15
17:39:05.671875,-61.15
17:39:05.687500,-68.88
17:39:05.703125,-76.78
17:39:05.718750,-84.02
17:39:05.734375,-89.68
17:39:05.750000,-92.84
17:39:05.765625,-92.77
17:39:05.781250,-89.08
17:39:05.796875,-81.87
17:39:05.812500,-71.59
17:39:05.828125,-58.94
17:39:05.843750,-44.71
17:39:05.859375,-29.65
17:39:05.875000,-14.37
17:39:05.890625,0.60
17:39:05.906250,14.90
17:39:05.921875,28.22
17:39:05.937500,40.38
17:39:05.953125,51.16
17:39:05.968750,60.35
17:39:05.984375,67.67
17:39:06,72.88
17:39:06.015625,75.90
17:39:06.031250,76.84
17:39:06.046875,76.09
17:39:06.062500,74.20
17:39:06.078125,71.78
17:39:06.093750,69.37
17:39:06.109375,67.36
17:39:06.125000,65.91
17:39:06.140625,64.92
17:39:06.156250,64.09
17:39:06.171875,62.93
17:39:06.187500,60.98
17:39:06.203125,57.92
17:39:06.218750,53.74
17:39:06.234375,48.72
17:39:06.250000,43.28
17:39:06.265625,37.78
17:39:06.281250,32.31
17:39:06.296875,26.74
17:39:06.312500,20.80
17:39:06.328125,14.33
17:39:06.343750,7.41
17:39:06.359375,0.32
17:39:06.375000,-6.58
17:39:06.390625,-13.03
17:39:06.406250,-18.98
17:39:06.421875,-24.62
17:39:06.437500,-30.18
17:39:06.453125,-35.95
17:39:06.468750,-42.11
17:39:06.484375,-48.80
17:39:06.500000,-56.13
17:39:06.515625,-64.10
17:39:06.531250,-72.52
17:39:06.546875,-80.84
17:39:06.562500,-88.13
17:39:06.578125,-93.23
17:39:06.593750,-95.03
17:39:06.609375,-92.78
17:39:06.625000,-86.35
17:39:06.640625,-76.25
17:39:06.656250,-63.40
17:39:06.671875,-48.84
17:39:06.687500,-33.44
17:39:06.703125,-17.79
17:39:06.718750,-2.23
17:39:06.734375,12.91
17:39:06.750000,27.18
17:39:06.765625,39.99
17:39:06.781250,50.66
17:39:06.796875,58.67
17:39:06.812500,63.84
17:39:06.828125,66.41
17:39:06.843750,66.96
17:39:06.859375,66.18
17:39:06.875000,64.67
17:39:06.890625,62.84
17:39:06.906250,60.86
17:39:06.921875,58.77
17:39:06.937500,56.56
17:39:06.953125,54.27
17:39:06.968750,51.94
17:39:06.984375,49.58
17:39:07,47.11
17:39:07.015625,44.34
17:39:07.031250,41.05
17:39:07.046875,37.08
17:39:07.062500,32.42
17:39:07.078125,27.27
17:39:07.093750,21.90
17:39:07.109375,16.51
17:39:07.125000,11.15
17:39:07.140625,5.59
17:39:07.156250,-0.50
17:39:07.171875,-7.40
17:39:07.187500,-15.12
17:39:07.203125,-23.32
17:39:07.218750,-31.53
17:39:07.234375,-39.33
17:39:07.250000,-46.62
17:39:07.265625,-53.67
17:39:07.281250,-61.01
17:39:07.296875,-69.16
17:39:07.312500,-78.44
17:39:07.328125,-88.68
17:39:07.343750,-99.24
17:39:07.359375,-109.03
17:39:07.375000,-116.75
17:39:07.390625,-121.14
17:39:07.406250,-121.28
17:39:07.421875,-116.78
17:39:07.437500,-107.85
17:39:07.453125,-95.17
17:39:07.468750,-79.70
17:39:07.484375,-62.37
17:39:07.500000,-44.01
17:39:07.515625,-25.21
17:39:07.531250,-6.46
17:39:07.546875,11.83
17:39:07.562500,29.25
17:39:07.578125,45.39
17:39:07.593750,59.86
17:39:07.609375,72.30
17:39:07.625000,82.40
17:39:07.640625,89.93
17:39:07.656250,94.84
17:39:07.671875,97.26
17:39:07.687500,97.55
17:39:07.703125,96.24
17:39:07.718750,93.89
17:39:07.734375,91.07
17:39:07.750000,88.17
17:39:07.765625,85.38
17:39:07.781250,82.70
17:39:07.796875,79.98
17:39:07.812500,76.96
17:39:07.828125,73.37
17:39:07.843750,68.96
17:39:07.859375,63.63
17:39:07.875000,57.41
17:39:07.890625,50.47
17:39:07.906250,43.10
17:39:07.921875,35.56
17:39:07.937500,28.07
17:39:07.953125,20.69
17:39:07.968750,13.33
17:39:07.984375,5.79
17:39:08,-2.10
17:39:08.015625,-10.39
17:39:08.031250,-19.00
17:39:08.046875,-27.70
17:39:08.062500,-36.29
17:39:08.078125,-44.65
17:39:08.093750,-52.91
17:39:08.109375,-61.40
17:39:08.125000,-70.53
17:39:08.140625,-80.59
17:39:08.156250,-91.50
17:39:08.171875,-102.66
17:39:08.187500,-112.95
17:39:08.203125,-120.95
17:39:08.218750,-125.33
17:39:08.234375,-125.20
17:39:08.250000,-120.37
17:39:08.265625,-111.28
17:39:08.281250,-98.78
17:39:08.296875,-83.78
17:39:08.312500,-66.99
17:39:08.328125,-48.90
17:39:08.343750,-29.79
17:39:08.359375,-10.00
17:39:08.375000,10.00
17:39:08.390625,29.60
17:39:08.406250,48.05
17:39:08.421875,64.63
17:39:08.437500,78.70
17:39:08.453125,89.78
17:39:08.468750,97.62
17:39:08.484375,102.26
17:39:08.500000,104.03
17:39:08.515625,103.50
17:39:08.531250,101.37
17:39:08.546875,98.31
17:39:08.562500,94.88
17:39:08.578125,91.45
17:39:08.593750,88.22
17:39:08.609375,85.24
17:39:08.625000,82.49
17:39:08.640625,79.86
17:39:08.656250,77.20
17:39:08.671875,74.31
17:39:08.687500,70.97
17:39:08.703125,66.98
17:39:08.718750,62.25
17:39:08.734375,56.80
17:39:08.750000,50.78
17:39:08.765625,44.42
17:39:08.781250,37.93
17:39:08.796875,31.39
17:39:08.812500,24.77
17:39:08.828125,17.93
17:39:08.843750,10.69
17:39:08.859375,2.93
17:39:08.875000,-5.35
17:39:08.890625,-14.00
17:39:08.906250,-22.75
17:39:08.921875,-31.34
17:39:08.937500,-39.60
17:39:08.953125,-47.53
17:39:08.968750,-55.31
17:39:08.984375,-63.30
17:39:09,-71.92
17:39:09.015625,-81.53
17:39:09.031250,-92.26
17:39:09.046875,-103.89
17:39:09.062500,-115.68
17:39:09.078125,-126.40
17:39:09.093750,-134.55
17:39:09.109375,-138.65
17:39:09.125000,-137.67
17:39:09.140625,-131.35
17:39:09.156250,-120.24
17:39:09.171875,-105.46
17:39:09.187500,-88.24
17:39:09.203125,-69.67
17:39:09.218750,-50.44
17:39:09.234375,-31.01
17:39:09.250000,-11.73
17:39:09.265625,7.08
17:39:09.281250,25.14
17:39:09.296875,42.24
17:39:09.312500,58.19
17:39:09.328125,72.68
17:39:09.343750,85.14
17:39:09.359375,94.80
17:39:09.375000,101.02
17:39:09.390625,103.61
17:39:09.406250,103.09
17:39:09.421875,100.54
17:39:09.437500,97.16
17:39:09.453125,93.82
17:39:09.468750,90.77
17:39:09.484375,87.74
17:39:09.500000,84.29
17:39:09.515625,80.19
17:39:09.531250,75.54
17:39:09.546875,70.71
17:39:09.562500,66.03
17:39:09.578125,61.63
17:39:09.593750,57.30
17:39:09.609375,52.57
17:39:09.625000,46.92
17:39:09.640625,40.04
17:39:09.656250,32.02
17:39:09.671875,23.51
17:39:09.687500,15.52
17:39:09.703125,9.10
17:39:09.718750,4.93
17:39:09.734375,2.98
17:39:09.750000,2.53
17:39:09.765625,2.58
17:39:09.781250,2.32
17:39:09.796875,1.24
17:39:09.812500,-0.82
17:39:09.828125,-3.88
17:39:09.843750,-7.65
17:39:09.859375,-11.31
17:39:09.875000,-13.30
17:39:09.890625,-11.59
17:39:09.906250,-4.40
17:39:09.921875,8.86
17:39:09.937500,26.96
17:39:09.953125,47.22
17:39:09.968750,66.66
17:39:09.984375,83.32
17:39:10,96.84
17:39:10.015625,108.00
17:39:10.031250,117.41
17:39:10.046875,124.41
17:39:10.062500,126.87
17:39:10.078125,122.27
17:39:10.093750,109.20
17:39:10.109375,88.54
17:39:10.125000,63.23
17:39:10.140625,37.11
17:39:10.156250,13.31
17:39:10.171875,-6.79
17:39:10.187500,-23.60
17:39:10.203125,-38.46
17:39:10.218750,-52.52
17:39:10.234375,-66.16
17:39:10.250000,-79.09
17:39:10.265625,-90.96
17:39:10.281250,-101.90
17:39:10.296875,-112.64
17:39:10.312500,-124.12
17:39:10.328125,-136.96
17:39:10.343750,-151.03
17:39:10.359375,-165.36
17:39:10.375000,-178.44
17:39:10.390625,-188.48
17:39:10.406250,-193.63
17:39:10.421875,-192.14
17:39:10.437500,-182.55
17:39:10.453125,-163.93
17:39:10.468750,-136.33
17:39:10.484375,-100.98
17:39:10.500000,-60.32
17:39:10.515625,-17.52
17:39:10.531250,24.18
17:39:10.546875,62.28
17:39:10.562500,95.43
17:39:10.578125,123.36
17:39:10.593750,146.27
17:39:10.609375,164.22
17:39:10.625000,176.54
17:39:10.640625,182.11
17:39:10.656250,179.91
17:39:10.671875,169.83
17:39:10.687500,153.15
17:39:10.703125,132.30
17:39:10.718750,110.09
17:39:10.734375,88.69
17:39:10.750000,69.09
17:39:10.765625,51.12
17:39:10.781250,34.14
17:39:10.796875,17.83
17:39:10.812500,2.65
17:39:10.828125,-10.28
17:39:10.843750,-19.93
17:39:10.859375,-26.11
17:39:10.875000,-29.91
17:39:10.890625,-33.51
17:39:10.906250,-39.36
17:39:10.921875,-49.31
17:39:10.937500,-63.84
17:39:10.953125,-81.99
17:39:10.968750,-101.73
17:39:10.984375,-120.69
17:39:11,-136.90
17:39:11.015625,-149.17
17:39:11.031250,-157.12
17:39:11.046875,-160.88
17:39:11.062500,-160.77
17:39:11.078125,-157.14
17:39:11.093750,-150.24
17:39:11.109375,-140.39
17:39:11.125000,-127.98
17:39:11.140625,-113.49
17:39:11.156250,-97.38
17:39:11.171875,-79.95
17:39:11.187500,-61.39
17:39:11.203125,-41.94
17:39:11.218750,-22.09
17:39:11.234375,-2.74
17:39:11.250000,14.91
17:39:11.265625,29.68
17:39:11.281250,40.83
17:39:11.296875,48.35
17:39:11.312500,52.94
17:39:11.328125,55.73
17:39:11.343750,57.82
17:39:11.359375,59.97
17:39:11.375000,62.43
17:39:11.390625,65.09
17:39:11.406250,67.64
17:39:11.421875,69.83
17:39:11.437500,71.56
17:39:11.453125,72.77
17:39:11.468750,73.45
17:39:11.484375,73.51
17:39:11.500000,72.78
17:39:11.515625,71.14
17:39:11.531250,68.52
17:39:11.546875,65.04
17:39:11.562500,60.98
17:39:11.578125,56.75
17:39:11.593750,52.66
17:39:11.609375,48.88
17:39:11.625000,45.37
17:39:11.640625,41.98
17:39:11.656250,38.54
17:39:11.671875,34.91
17:39:11.687500,31.04
17:39:11.703125,26.90
17:39:11.718750,22.46
17:39:11.734375,17.70
17:39:11.750000,12.69
17:39:11.765625,7.58
17:39:11.781250,2.60
17:39:11.796875,-2.08
17:39:11.812500,-6.46
17:39:11.828125,-10.73
17:39:11.843750,-15.23
17:39:11.859375,-20.28
17:39:11.875000,-26.00
17:39:11.890625,-32.24
17:39:11.906250,-38.66
17:39:11.921875,-44.84
17:39:11.937500,-50.55
17:39:11.953125,-55.79
17:39:11.968750,-60.92
17:39:11.984375,-66.57
17:39:12,-73.45
17:39:12.015625,-82.11
17:39:12.031250,-92.66
17:39:12.046875,-104.52
17:39:12.062500,-116.43
17:39:12.078125,-126.61
17:39:12.093750,-133.23
17:39:12.109375,-134.87
17:39:12.125000,-130.92
17:39:12.140625,-121.69
17:39:12.156250,-108.19
17:39:12.171875,-91.77
17:39:12.187500,-73.74
17:39:12.203125,-55.04
17:39:12.218750,-36.31
17:39:12.234375,-17.90
17:39:12.250000,-0.05
17:39:12.265625,16.97
17:39:12.281250,32.88
17:39:12.296875,47.39
17:39:12.312500,60.20
17:39:12.328125,71.15
17:39:12.343750,80.26
17:39:12.359375,87.66
17:39:12.375000,93.52
17:39:12.390625,97.96
17:39:12.406250,100.92
17:39:12.421875,102.27
17:39:12.437500,101.96
17:39:12.453125,100.19
17:39:12.468750,97.56
17:39:12.484375,94.84
17:39:12.500000,92.74
17:39:12.515625,91.60
17:39:12.531250,91.22
17:39:12.546875,91.04
17:39:12.562500,90.37
17:39:12.578125,88.79
17:39:12.593750,86.29
17:39:12.609375,83.21
17:39:12.625000,80.06
17:39:12.640625,77.23
17:39:12.656250,74.89
17:39:12.671875,72.98
17:39:12.687500,71.33
17:39:12.703125,69.74
17:39:12.718750,68.06
17:39:12.734375,66.13
17:39:12.750000,63.71
17:39:12.765625,60.55
17:39:12.781250,56.33
17:39:12.796875,50.89
17:39:12.812500,44.20
17:39:12.828125,36.46
17:39:12.843750,28.00
17:39:12.859375,19.21
17:39:12.875000,10.47
17:39:12.890625,2.09
17:39:12.906250,-5.69
17:39:12.921875,-12.69
17:39:12.937500,-18.88
17:39:12.953125,-24.33
17:39:12.968750,-29.27
17:39:12.984375,-34.03
17:39:13,-38.93
17:39:13.015625,-44.21
17:39:13.031250,-49.93
17:39:13.046875,-55.97
17:39:13.062500,-62.07
17:39:13.078125,-67.96
17:39:13.093750,-73.46
17:39:13.109375,-78.57
17:39:13.125000,-83.53
17:39:13.140625,-88.72
17:39:13.156250,-94.59
17:39:13.171875,-101.47
17:39:13.187500,-109.35
17:39:13.203125,-117.80
17:39:13.218750,-125.91
17:39:13.234375,-132.47
17:39:13.250000,-136.24
17:39:13.265625,-136.26
17:39:13.281250,-132.11
17:39:13.296875,-123.95
17:39:13.312500,-112.41
17:39:13.328125,-98.31
17:39:13.343750,-82.42
17:39:13.359375,-65.32
17:39:13.375000,-47.35
17:39:13.390625,-28.79
17:39:13.406250,-9.95
17:39:13.421875,8.66
17:39:13.437500,26.39
17:39:13.453125,42.51
17:39:13.468750,56.39
17:39:13.484375,67.64
17:39:13.500000,76.28
17:39:13.515625,82.60
17:39:13.531250,87.09
17:39:13.546875,90.18
17:39:13.562500,92.07
17:39:13.578125,92.81
17:39:13.593750,92.33
17:39:13.609375,90.67
17:39:13.625000,88.11
17:39:13.640625,85.07
17:39:13.656250,81.97
17:39:13.671875,78.96
17:39:13.687500,75.92
17:39:13.703125,72.49
17:39:13.718750,68.35
17:39:13.734375,63.38
17:39:13.750000,57.73
17:39:13.765625,51.73
17:39:13.781250,45.68
17:39:13.796875,39.72
17:39:13.812500,33.78
17:39:13.828125,27.73
17:39:13.843750,21.43
17:39:13.859375,14.95
17:39:13.875000,8.44
17:39:13.890625,2.18
17:39:13.906250,-3.67
17:39:13.921875,-9.02
17:39:13.937500,-13.92
17:39:13.953125,-18.46
17:39:13.968750,-22.73
17:39:13.984375,-26.81
17:39:14,-30.82
17:39:14.015625,-34.95
17:39:14.031250,-39.38
17:39:14.046875,-44.22
17:39:14.062500,-49.32
17:39:14.078125,-54.30
17:39:14.093750,-58.66
17:39:14.109375,-62.02
17:39:14.125000,-64.31
17:39:14.140625,-65.83
17:39:14.156250,-67.06
17:39:14.171875,-68.42
17:39:14.187500,-70.10
17:39:14.203125,-72.06
17:39:14.218750,-74.20
17:39:14.234375,-76.62
17:39:14.250000,-79.68
17:39:14.265625,-83.90
17:39:14.281250,-89.68
17:39:14.296875,-96.97
17:39:14.312500,-105.12
17:39:14.328125,-112.91
17:39:14.343750,-118.82
17:39:14.359375,-121.50
17:39:14.375000,-120.04
17:39:14.390625,-114.22
17:39:14.406250,-104.44
17:39:14.421875,-91.48
17:39:14.437500,-76.21
17:39:14.453125,-59.33
17:39:14.468750,-41.38
17:39:14.484375,-22.79
17:39:14.500000,-4.08
17:39:14.515625,14.09
17:39:14.531250,31.05
17:39:14.546875,46.20
17:39:14.562500,59.21
17:39:14.578125,70.02
17:39:14.593750,78.77
17:39:14.609375,85.71
17:39:14.625000,91.08
17:39:14.640625,95.09
17:39:14.656250,97.94
17:39:14.671875,99.82
17:39:14.687500,101.00
17:39:14.703125,101.78
17:39:14.718750,102.41
17:39:14.734375,103.04
17:39:14.750000,103.68
17:39:14.765625,104.19
17:39:14.781250,104.41
17:39:14.796875,104.19
17:39:14.812500,103.52
17:39:14.828125,102.50
17:39:14.843750,101.24
17:39:14.859375,99.83
17:39:14.875000,98.25
17:39:14.890625,96.41
17:39:14.906250,94.22
17:39:14.921875,91.72
17:39:14.937500,88.97
17:39:14.953125,86.10
17:39:14.968750,83.11
17:39:14.984375,79.85
17:39:15,76.01
17:39:15.015625,71.23
17:39:15.031250,65.20
17:39:15.046875,57.76
17:39:15.062500,48.93
17:39:15.078125,38.93
17:39:15.093750,28.16
17:39:15.109375,17.05
17:39:15.125000,6.05
17:39:15.140625,-4.53
17:39:15.156250,-14.62
17:39:15.171875,-24.30
17:39:15.187500,-33.81
17:39:15.203125,-43.35
17:39:15.218750,-53.08
17:39:15.234375,-63.03
17:39:15.250000,-73.16
17:39:15.265625,-83.34
17:39:15.281250,-93.43
17:39:15.296875,-103.23
17:39:15.312500,-112.63
17:39:15.328125,-121.62
17:39:15.343750,-130.36
17:39:15.359375,-139.00
17:39:15.375000,-147.52
17:39:15.390625,-155.45
17:39:15.406250,-161.86
17:39:15.421875,-165.52
17:39:15.437500,-165.35
17:39:15.453125,-160.83
17:39:15.468750,-152.19
17:39:15.484375,-140.29
17:39:15.500000,-126.22
17:39:15.515625,-110.94
17:39:15.531250,-95.06
17:39:15.546875,-78.89
17:39:15.562500,-62.63
17:39:15.578125,-46.52
17:39:15.593750,-30.87
17:39:15.609375,-16.06
17:39:15.625000,-2.37
17:39:15.640625,9.93
17:39:15.656250,20.67
17:39:15.671875,29.72
17:39:15.687500,36.96
17:39:15.703125,42.42
17:39:15.718750,46.34
17:39:15.734375,49.10
17:39:15.750000,51.18
17:39:15.765625,53.01
17:39:15.781250,54.79
17:39:15.796875,56.56
17:39:15.812500,58.19
17:39:15.828125,59.50
17:39:15.843750,60.27
17:39:15.859375,60.23
17:39:15.875000,59.12
17:39:15.890625,56.73
17:39:15.906250,53.08
17:39:15.921875,48.53
17:39:15.937500,43.76
17:39:15.953125,39.63
17:39:15.968750,36.79
17:39:15.984375,35.45
17:39:16,35.18
17:39:16.015625,35.09
17:39:16.031250,34.15
17:39:16.046875,31.64
17:39:16.062500,27.43
17:39:16.078125,21.95
17:39:16.093750,15.99
17:39:16.109375,10.25
17:39:16.125000,5.05
17:39:16.140625,0.25
17:39:16.156250,-4.56
17:39:16.171875,-9.78
17:39:16.187500,-15.52
17:39:16.203125,-21.56
17:39:16.218750,-27.53
17:39:16.234375,-33.20
17:39:16.250000,-38.67
17:39:16.265625,-44.34
17:39:16.281250,-50.69
17:39:16.296875,-58.04
17:39:16.312500,-66.43
17:39:16.328125,-75.63
17:39:16.343750,-85.26
17:39:16.359375,-94.85
17:39:16.375000,-103.81
17:39:16.390625,-111.38
17:39:16.406250,-116.60
17:39:16.421875,-118.48
17:39:16.437500,-116.33
17:39:16.453125,-109.97
17:39:16.468750,-99.83
17:39:16.484375,-86.80
17:39:16.500000,-71.90
17:39:16.515625,-55.94
17:39:16.531250,-39.40
17:39:16.546875,-22.48
17:39:16.562500,-5.29
17:39:16.578125,11.93
17:39:16.593750,28.69
17:39:16.609375,44.33
17:39:16.625000,58.21
17:39:16.640625,69.76
17:39:16.656250,78.73
17:39:16.671875,85.12
17:39:16.687500,89.16
17:39:16.703125,91.20
17:39:16.718750,91.65
17:39:16.734375,90.95
17:39:16.750000,89.51
17:39:16.765625,87.66
17:39:16.781250,85.66
17:39:16.796875,83.61
17:39:16.812500,81.52
17:39:16.828125,79.28
17:39:16.843750,76.77
17:39:16.859375,73.91
17:39:16.875000,70.68
17:39:16.890625,67.09
17:39:16.906250,63.17
17:39:16.921875,58.93
17:39:16.937500,54.36
17:39:16.953125,49.47
17:39:16.968750,44.27
17:39:16.984375,38.80
17:39:17,33.02
17:39:17.015625,26.88
17:39:17.031250,20.31
17:39:17.046875,13.31
17:39:17.062500,5.98
17:39:17.078125,-1.46
17:39:17.093750,-8.79
17:39:17.109375,-15.84
17:39:17.125000,-22.57
17:39:17.140625,-29.09
17:39:17.156250,-35.61
17:39:17.171875,-42.37
17:39:17.187500,-49.57
17:39:17.203125,-57.41
17:39:17.218750,-66.03
17:39:17.234375,-75.48
17:39:17.250000,-85.62
17:39:17.265625,-95.90
17:39:17.281250,-105.36
17:39:17.296875,-112.70
17:39:17.312500,-116.63
17:39:17.328125,-116.26
17:39:17.343750,-111.37
17:39:17.359375,-102.39
17:39:17.375000,-90.21
17:39:17.390625,-75.82
17:39:17.406250,-59.93
17:39:17.421875,-42.98
17:39:17.437500,-25.19
17:39:17.453125,-6.77
17:39:17.468750,11.85
17:39:17.484375,30.03
17:39:17.500000,46.91
17:39:17.515625,61.68
17:39:17.531250,73.65
17:39:17.546875,82.46
17:39:17.562500,88.11
17:39:17.578125,91.00
17:39:17.593750,91.76
17:39:17.609375,91.09
17:39:17.625000,89.62
17:39:17.640625,87.73
17:39:17.656250,85.66
17:39:17.671875,83.47
17:39:17.687500,81.22
17:39:17.703125,78.94
17:39:17.718750,76.59
17:39:17.734375,74.04
17:39:17.750000,71.11
17:39:17.765625,67.64
17:39:17.781250,63.65
17:39:17.796875,59.28
17:39:17.812500,54.75
17:39:17.828125,50.20
17:39:17.843750,45.57
17:39:17.859375,40.65
17:39:17.875000,35.17
17:39:17.890625,29.05
17:39:17.906250,22.41
17:39:17.921875,15.56
17:39:17.937500,8.81
17:39:17.953125,2.30
17:39:17.968750,-4.10
17:39:17.984375,-10.60
17:39:18,-17.42
17:39:18.015625,-24.65
17:39:18.031250,-32.22
17:39:18.046875,-39.97
17:39:18.062500,-47.75
17:39:18.078125,-55.47
17:39:18.093750,-63.12
17:39:18.109375,-70.78
17:39:18.125000,-78.62
17:39:18.140625,-86.89
17:39:18.156250,-95.83
17:39:18.171875,-105.50
17:39:18.187500,-115.61
17:39:18.203125,-125.35
17:39:18.218750,-133.46
17:39:18.234375,-138.52
17:39:18.250000,-139.32
17:39:18.265625,-135.22
17:39:18.281250,-126.29
17:39:18.296875,-113.20
17:39:18.312500,-96.96
17:39:18.328125,-78.67
17:39:18.343750,-59.31
17:39:18.359375,-39.62
17:39:18.375000,-20.08
17:39:18.390625,-0.94
17:39:18.406250,17.70
17:39:18.421875,35.73
17:39:18.437500,52.83
17:39:18.453125,68.39
17:39:18.468750,81.66
17:39:18.484375,91.90
17:39:18.500000,98.79
17:39:18.515625,102.47
17:39:18.531250,103.60
17:39:18.546875,103.04
17:39:18.562500,101.54
17:39:18.578125,99.61
17:39:18.593750,97.45
17:39:18.609375,95.15
17:39:18.625000,92.73
17:39:18.640625,90.24
17:39:18.656250,87.70
17:39:18.671875,85.00
17:39:18.687500,81.95
17:39:18.703125,78.32
17:39:18.718750,73.96
17:39:18.734375,68.85
17:39:18.750000,63.16
17:39:18.765625,57.22
17:39:18.781250,51.36
17:39:18.796875,45.80
17:39:18.812500,40.56
17:39:18.828125,35.52
17:39:18.843750,30.41
17:39:18.859375,25.12
17:39:18.875000,19.67
17:39:18.890625,14.25
17:39:18.906250,9.10
17:39:18.921875,4.30
17:39:18.937500,-0.30
17:39:18.953125,-5.06
17:39:18.968750,-10.35
17:39:18.984375,-16.36
17:39:19,-23.07
17:39:19.015625,-30.22
17:39:19.031250,-37.50
17:39:19.046875,-44.63
17:39:19.062500,-51.54
17:39:19.078125,-58.27
17:39:19.093750,-65.00
17:39:19.109375,-71.98
17:39:19.125000,-79.54
17:39:19.140625,-87.92
17:39:19.156250,-97.19
17:39:19.171875,-107.06
17:39:19.187500,-116.71
17:39:19.203125,-124.88
17:39:19.218750,-130.13
17:39:19.234375,-131.29
17:39:19.250000,-127.71
17:39:19.265625,-119.53
17:39:19.281250,-107.44
17:39:19.296875,-92.47
17:39:19.312500,-75.58
17:39:19.328125,-57.47
