12:25:06,-0.00
12:25:06.015625,-0.00
12:25:06.031250,-0.00
12:25:06.046875,-0.00
12:25:06.062500,-0.00
12:25:06.078125,-0.00
12:25:06.093750,-0.00
12:25:06.109375,-0.00
12:25:06.125000,-0.00
12:25:06.140625,-0.00
12:25:06.156250,0.00
12:25:06.171875,0.01
12:25:06.187500,0.01
12:25:06.203125,-0.00
12:25:06.218750,-0.03
12:25:06.234375,-0.05
12:25:06.250000,-0.05
12:25:06.265625,0.00
12:25:06.281250,0.13
12:25:06.296875,0.36
12:25:06.312500,0.66
12:25:06.328125,1.01
12:25:06.343750,1.37
12:25:06.359375,1.72
12:25:06.375000,2.06
12:25:06.390625,2.40
12:25:06.406250,2.79
12:25:06.421875,3.24
12:25:06.437500,3.80
12:25:06.453125,4.42
12:25:06.468750,5.06
12:25:06.484375,5.66
12:25:06.500000,6.20
12:25:06.515625,6.68
12:25:06.531250,7.15
12:25:06.546875,7.68
12:25:06.562500,8.31
12:25:06.578125,9.14
12:25:06.593750,10.09
12:25:06.609375,11.04
12:25:06.625000,11.88
12:25:06.640625,12.56
12:25:06.656250,13.14
12:25:06.671875,13.76
12:25:06.687500,14.65
12:25:06.703125,15.96
12:25:06.718750,17.91
12:25:06.734375,20.32
12:25:06.750000,22.90
12:25:06.765625,25.38
12:25:06.781250,27.58
12:25:06.796875,29.57
12:25:06.812500,31.68
12:25:06.828125,34.32
12:25:06.843750,37.81
12:25:06.859375,42.54
12:25:06.875000,48.15
12:25:06.890625,54.10
12:25:06.906250,59.83
12:25:06.921875,64.97
12:25:06.937500,69.58
12:25:06.953125,74.14
12:25:06.968750,79.34
12:25:06.984375,85.71
12:25:07,93.76
12:25:07.015625,103.00
12:25:07.031250,112.62
12:25:07.046875,121.73
12:25:07.062500,129.77
12:25:07.078125,136.75
12:25:07.093750,143.30
12:25:07.109375,150.75
12:25:07.125000,157.77
12:25:07.140625,166.64
12:25:07.156250,177.95
12:25:07.171875,191.79
12:25:07.187500,206.97
12:25:07.203125,220.57
12:25:07.218750,228.25
12:25:07.234375,225.36
12:25:07.250000,208.53
12:25:07.265625,176.87
12:25:07.281250,132.76
12:25:07.296875,80.05
12:25:07.312500,23.07
12:25:07.328125,-34.94
12:25:07.343750,-92.44
12:25:07.359375,-149.16
12:25:07.375000,-205.23
12:25:07.390625,-260.37
12:25:07.406250,-313.74
12:25:07.421875,-363.87
12:25:07.437500,-409.83
12:25:07.453125,-450.91
12:25:07.468750,-486.50
12:25:07.484375,-515.74
12:25:07.500000,-537.23
12:25:07.515625,-549.22
12:25:07.531250,-549.96
12:25:07.546875,-538.37
12:25:07.562500,-514.21
12:25:07.578125,-478.67
12:25:07.593750,-433.88
12:25:07.609375,-382.45
12:25:07.625000,-327.02
12:25:07.640625,-269.84
12:25:07.656250,-212.63
12:25:07.671875,-156.66
12:25:07.687500,-102.95
12:25:07.703125,-52.37
12:25:07.718750,-5.90
12:25:07.734375,35.58
12:25:07.750000,71.43
12:25:07.765625,101.35
12:25:07.781250,125.50
12:25:07.796875,144.38
12:25:07.812500,158.69
12:25:07.828125,169.15
12:25:07.843750,176.37
12:25:07.859375,180.75
12:25:07.875000,182.57
12:25:07.890625,182.07
12:25:07.906250,179.51
12:25:07.921875,175.23
12:25:07.937500,169.65
12:25:07.953125,163.18
12:25:07.968750,156.15
12:25:07.984375,148.81
12:25:08,141.30
12:25:08.015625,133.69
12:25:08.031250,126.02
12:25:08.046875,118.33
12:25:08.062500,110.69
12:25:08.078125,103.16
12:25:08.093750,95.80
12:25:08.109375,88.68
12:25:08.125000,81.83
12:25:08.140625,75.25
12:25:08.156250,68.95
12:25:08.171875,62.95
12:25:08.187500,57.25
12:25:08.203125,51.86
12:25:08.218750,46.78
12:25:08.234375,42.03
12:25:08.250000,37.59
12:25:08.265625,33.45
12:25:08.281250,29.61
12:25:08.296875,26.07
12:25:08.312500,22.81
12:25:08.328125,19.83
12:25:08.343750,17.11
12:25:08.359375,14.67
12:25:08.375000,12.48
12:25:08.390625,10.54
12:25:08.406250,8.83
12:25:08.421875,7.35
12:25:08.437500,6.07
12:25:08.453125,4.97
12:25:08.468750,4.05
12:25:08.484375,3.27
12:25:08.500000,2.62
12:25:08.515625,2.09
12:25:08.531250,1.65
12:25:08.546875,1.30
12:25:08.562500,1.01
12:25:08.578125,0.79
12:25:08.593750,0.61
12:25:08.609375,0.47
12:25:08.625000,0.37
12:25:08.640625,0.29
12:25:08.656250,0.23
12:25:08.671875,0.19
12:25:08.687500,0.17
12:25:08.703125,0.15
12:25:08.718750,0.15
12:25:08.734375,0.16
12:25:08.750000,0.19
12:25:08.765625,0.22
12:25:08.781250,0.26
12:25:08.796875,0.28
12:25:08.812500,0.29
12:25:08.828125,0.28
12:25:08.843750,0.26
12:25:08.859375,0.23
12:25:08.875000,0.23
12:25:08.890625,0.25
12:25:08.906250,0.28
12:25:08.921875,0.31
12:25:08.937500,0.33
12:25:08.953125,0.31
12:25:08.968750,0.27
12:25:08.984375,0.23
12:25:09,0.21
12:25:09.015625,0.24
12:25:09.031250,0.33
12:25:09.046875,0.45
12:25:09.062500,0.59
12:25:09.078125,0.69
12:25:09.093750,0.74
12:25:09.109375,0.74
12:25:09.125000,0.72
12:25:09.140625,0.74
12:25:09.156250,0.85
12:25:09.171875,1.08
12:25:09.187500,1.38
12:25:09.203125,1.69
12:25:09.218750,1.90
12:25:09.234375,1.97
12:25:09.250000,1.89
12:25:09.265625,1.75
12:25:09.281250,1.71
12:25:09.296875,1.88
12:25:09.312500,2.30
12:25:09.328125,2.91
12:25:09.343750,3.51
12:25:09.359375,3.90
12:25:09.375000,3.96
12:25:09.390625,3.69
12:25:09.406250,3.31
12:25:09.421875,3.08
12:25:09.437500,3.26
12:25:09.453125,3.91
12:25:09.468750,4.90
12:25:09.484375,5.90
12:25:09.500000,6.54
12:25:09.515625,6.60
12:25:09.531250,6.14
12:25:09.546875,5.44
12:25:09.562500,4.95
12:25:09.578125,4.97
12:25:09.593750,5.49
12:25:09.609375,6.21
12:25:09.625000,6.59
12:25:09.640625,6.10
12:25:09.656250,4.38
12:25:09.671875,1.31
12:25:09.687500,-3.14
12:25:09.703125,-8.83
12:25:09.718750,-15.35
12:25:09.734375,-21.92
12:25:09.750000,-27.32
12:25:09.765625,-30.28
12:25:09.781250,-30.03
12:25:09.796875,-26.79
12:25:09.812500,-21.70
12:25:09.828125,-16.29
12:25:09.843750,-11.71
12:25:09.859375,-8.17
12:25:09.875000,-4.92
12:25:09.890625,-0.84
12:25:09.906250,4.73
12:25:09.921875,11.53
12:25:09.937500,18.40
12:25:09.953125,23.89
12:25:09.968750,26.94
12:25:09.984375,27.29
12:25:10,25.47
12:25:10.015625,22.32
12:25:10.031250,18.62
12:25:10.046875,14.74
12:25:10.062500,10.84
12:25:10.078125,6.92
12:25:10.093750,3.10
12:25:10.109375,-0.26
12:25:10.125000,-2.67
12:25:10.140625,-3.75
12:25:10.156250,-3.40
12:25:10.171875,-1.87
12:25:10.187500,0.23
12:25:10.203125,2.25
12:25:10.218750,3.68
12:25:10.234375,4.37
12:25:10.250000,4.47
12:25:10.265625,4.33
12:25:10.281250,4.29
12:25:10.296875,4.50
12:25:10.312500,4.88
12:25:10.328125,5.13
12:25:10.343750,4.89
12:25:10.359375,4.06
12:25:10.375000,2.78
12:25:10.390625,1.50
12:25:10.406250,0.68
12:25:10.421875,0.64
12:25:10.437500,1.31
12:25:10.453125,2.28
12:25:10.468750,2.95
12:25:10.484375,2.91
12:25:10.500000,2.16
12:25:10.515625,1.11
12:25:10.531250,0.30
12:25:10.546875,0.08
12:25:10.562500,0.45
12:25:10.578125,1.04
12:25:10.593750,1.36
12:25:10.609375,0.89
12:25:10.625000,-0.49
12:25:10.640625,-2.48
12:25:10.656250,-4.62
12:25:10.671875,-6.53
12:25:10.687500,-8.25
12:25:10.703125,-10.29
12:25:10.718750,-13.63
12:25:10.734375,-18.33
12:25:10.750000,-24.78
12:25:10.765625,-33.05
12:25:10.781250,-42.59
12:25:10.796875,-52.24
12:25:10.812500,-60.38
12:25:10.828125,-65.15
12:25:10.843750,-64.97
12:25:10.859375,-58.85
12:25:10.875000,-46.73
12:25:10.890625,-29.73
12:25:10.906250,-9.69
12:25:10.921875,11.12
12:25:10.937500,30.49
12:25:10.953125,46.72
12:25:10.968750,58.76
12:25:10.984375,66.32
12:25:11,69.72
12:25:11.015625,69.63
12:25:11.031250,66.77
12:25:11.046875,61.95
12:25:11.062500,55.94
12:25:11.078125,49.51
12:25:11.093750,43.29
12:25:11.109375,37.81
12:25:11.125000,33.40
12:25:11.140625,30.17
12:25:11.156250,28.08
12:25:11.171875,26.92
12:25:11.187500,26.47
12:25:11.203125,26.54
12:25:11.218750,26.93
12:25:11.234375,27.35
12:25:11.250000,27.46
12:25:11.265625,26.87
12:25:11.281250,25.30
12:25:11.296875,22.71
12:25:11.312500,19.32
12:25:11.328125,15.48
12:25:11.343750,11.57
12:25:11.359375,7.79
12:25:11.375000,4.15
12:25:11.390625,0.51
12:25:11.406250,-3.29
12:25:11.421875,-7.28
12:25:11.437500,-11.38
12:25:11.453125,-15.46
12:25:11.468750,-19.44
12:25:11.484375,-23.38
12:25:11.500000,-27.42
12:25:11.515625,-31.79
12:25:11.531250,-36.59
12:25:11.546875,-41.81
12:25:11.562500,-47.27
12:25:11.578125,-52.68
12:25:11.593750,-57.77
12:25:11.609375,-62.38
12:25:11.625000,-66.61
12:25:11.640625,-70.80
12:25:11.656250,-75.50
12:25:11.671875,-81.29
12:25:11.687500,-88.59
12:25:11.703125,-97.46
12:25:11.718750,-107.38
12:25:11.734375,-117.25
12:25:11.750000,-125.39
12:25:11.765625,-129.86
12:25:11.781250,-128.82
12:25:11.796875,-121.08
12:25:11.812500,-106.43
12:25:11.828125,-85.86
12:25:11.843750,-61.33
12:25:11.859375,-35.34
12:25:11.875000,-10.35
12:25:11.890625,11.78
12:25:11.906250,29.92
12:25:11.921875,43.73
12:25:11.937500,53.33
12:25:11.953125,59.09
12:25:11.968750,61.45
12:25:11.984375,61.01
12:25:12,58.55
12:25:12.015625,55.05
12:25:12.031250,51.54
12:25:12.046875,48.87
12:25:12.062500,47.46
12:25:12.078125,47.32
12:25:12.093750,48.15
12:25:12.109375,49.49
12:25:12.125000,51.00
12:25:12.140625,52.44
12:25:12.156250,53.71
12:25:12.171875,54.75
12:25:12.187500,55.47
12:25:12.203125,55.70
12:25:12.218750,55.24
12:25:12.234375,53.86
12:25:12.250000,51.38
12:25:12.265625,47.79
12:25:12.281250,43.25
12:25:12.296875,38.11
12:25:12.312500,32.72
12:25:12.328125,27.33
12:25:12.343750,21.99
12:25:12.359375,16.56
12:25:12.375000,10.91
12:25:12.390625,5.00
12:25:12.406250,-1.07
12:25:12.421875,-7.19
12:25:12.437500,-13.34
12:25:12.453125,-19.61
12:25:12.468750,-26.14
12:25:12.484375,-32.96
12:25:12.500000,-39.90
12:25:12.515625,-46.68
12:25:12.531250,-53.04
12:25:12.546875,-59.00
12:25:12.562500,-64.88
12:25:12.578125,-71.27
12:25:12.593750,-78.78
12:25:12.609375,-87.85
12:25:12.625000,-98.40
12:25:12.640625,-109.75
12:25:12.656250,-120.53
12:25:12.671875,-128.85
12:25:12.687500,-132.71
12:25:12.703125,-130.45
12:25:12.718750,-121.21
12:25:12.734375,-105.24
12:25:12.750000,-83.84
12:25:12.765625,-59.07
12:25:12.781250,-33.27
12:25:12.796875,-8.61
12:25:12.812500,13.22
12:25:12.828125,31.13
12:25:12.843750,44.61
12:25:12.859375,53.59
12:25:12.875000,58.37
12:25:12.890625,59.54
12:25:12.906250,57.95
12:25:12.921875,54.64
12:25:12.937500,50.68
12:25:12.953125,47.06
12:25:12.968750,44.48
12:25:12.984375,43.23
12:25:13,43.25
12:25:13.015625,44.23
12:25:13.031250,45.80
12:25:13.046875,47.66
12:25:13.062500,49.64
12:25:13.078125,51.56
12:25:13.093750,53.17
12:25:13.109375,54.11
12:25:13.125000,53.98
12:25:13.140625,52.43
12:25:13.156250,49.31
12:25:13.171875,44.78
12:25:13.187500,39.25
12:25:13.203125,33.28
12:25:13.218750,27.35
12:25:13.234375,21.65
12:25:13.250000,16.04
12:25:13.265625,10.05
12:25:13.281250,3.24
12:25:13.296875,-4.54
12:25:13.312500,-13.10
12:25:13.328125,-21.87
12:25:13.343750,-30.28
12:25:13.359375,-37.99
12:25:13.375000,-45.06
12:25:13.390625,-51.93
12:25:13.406250,-59.26
12:25:13.421875,-67.64
12:25:13.437500,-77.49
12:25:13.453125,-88.80
12:25:13.468750,-101.05
12:25:13.484375,-113.00
12:25:13.500000,-122.75
12:25:13.515625,-128.06
12:25:13.531250,-126.91
12:25:13.546875,-118.12
12:25:13.562500,-101.79
12:25:13.578125,-79.28
12:25:13.593750,-52.90
12:25:13.609375,-25.23
12:25:13.625000,1.36
12:25:13.640625,25.12
12:25:13.656250,44.89
12:25:13.671875,60.11
12:25:13.687500,70.61
12:25:13.703125,76.60
12:25:13.718750,78.63
12:25:13.734375,77.54
12:25:13.750000,74.36
12:25:13.765625,70.16
12:25:13.781250,65.87
12:25:13.796875,62.20
12:25:13.812500,59.50
12:25:13.828125,57.84
12:25:13.843750,57.05
12:25:13.859375,56.81
12:25:13.875000,56.87
12:25:13.890625,57.04
12:25:13.906250,57.16
12:25:13.921875,56.97
12:25:13.937500,56.05
12:25:13.953125,53.87
12:25:13.968750,50.03
12:25:13.984375,44.47
12:25:14,37.57
12:25:14.015625,30.07
12:25:14.031250,22.68
12:25:14.046875,15.80
12:25:14.062500,9.27
12:25:14.078125,2.52
12:25:14.093750,-5.16
12:25:14.109375,-14.21
12:25:14.125000,-24.59
12:25:14.140625,-35.76
12:25:14.156250,-46.94
12:25:14.171875,-57.44
12:25:14.187500,-66.88
12:25:14.203125,-75.35
12:25:14.218750,-83.45
12:25:14.234375,-92.08
12:25:14.250000,-102.19
12:25:14.265625,-114.45
12:25:14.281250,-128.86
12:25:14.296875,-144.48
12:25:14.312500,-159.51
12:25:14.328125,-171.52
12:25:14.343750,-177.97
12:25:14.359375,-176.90
12:25:14.375000,-167.46
12:25:14.390625,-150.21
12:25:14.406250,-127.06
12:25:14.421875,-100.81
12:25:14.437500,-74.37
12:25:14.453125,-49.90
12:25:14.468750,-28.20
12:25:14.484375,-8.75
12:25:14.500000,9.76
12:25:14.515625,28.45
12:25:14.531250,47.59
12:25:14.546875,66.36
12:25:14.562500,83.40
12:25:14.578125,97.45
12:25:14.593750,108.09
12:25:14.609375,115.74
12:25:14.625000,121.30
12:25:14.640625,125.55
12:25:14.656250,128.87
12:25:14.671875,131.23
12:25:14.687500,132.59
12:25:14.703125,133.16
12:25:14.718750,133.40
12:25:14.734375,133.67
12:25:14.750000,133.95
12:25:14.765625,133.66
12:25:14.781250,131.92
12:25:14.796875,127.91
12:25:14.812500,121.30
12:25:14.828125,112.40
12:25:14.843750,102.06
12:25:14.859375,91.35
12:25:14.875000,81.09
12:25:14.890625,71.60
12:25:14.906250,62.62
12:25:14.921875,53.49
12:25:14.937500,43.45
12:25:14.953125,32.07
12:25:14.968750,19.45
12:25:14.984375,6.32
12:25:15,-6.26
12:25:15.015625,-17.29
12:25:15.031250,-26.28
12:25:15.046875,-33.62
12:25:15.062500,-40.48
12:25:15.078125,-48.51
12:25:15.093750,-59.24
12:25:15.109375,-73.46
12:25:15.125000,-90.79
12:25:15.140625,-109.58
12:25:15.156250,-127.17
12:25:15.171875,-140.40
12:25:15.187500,-146.37
12:25:15.203125,-143.13
12:25:15.218750,-130.16
12:25:15.234375,-108.54
12:25:15.250000,-80.63
12:25:15.265625,-49.45
12:25:15.281250,-17.94
12:25:15.296875,11.56
12:25:15.312500,37.64
12:25:15.328125,59.61
12:25:15.343750,77.36
12:25:15.359375,90.99
12:25:15.375000,100.83
12:25:15.390625,107.37
12:25:15.406250,111.31
12:25:15.421875,113.53
12:25:15.437500,114.84
12:25:15.453125,115.82
12:25:15.468750,116.65
12:25:15.484375,117.19
12:25:15.500000,117.25
12:25:15.515625,116.68
12:25:15.531250,115.70
12:25:15.546875,114.63
12:25:15.562500,113.76
12:25:15.578125,113.04
12:25:15.593750,112.03
12:25:15.609375,110.04
12:25:15.625000,106.47
12:25:15.640625,101.09
12:25:15.656250,94.15
12:25:15.671875,86.25
12:25:15.687500,78.06
12:25:15.703125,70.09
12:25:15.718750,62.56
12:25:15.734375,55.40
12:25:15.750000,48.34
12:25:15.765625,41.06
12:25:15.781250,33.27
12:25:15.796875,24.86
12:25:15.812500,15.94
12:25:15.828125,6.94
12:25:15.843750,-1.52
12:25:15.859375,-8.87
12:25:15.875000,-14.89
12:25:15.890625,-19.95
12:25:15.906250,-25.01
12:25:15.921875,-31.27
12:25:15.937500,-39.63
12:25:15.953125,-50.10
12:25:15.968750,-61.48
12:25:15.984375,-71.55
12:25:16,-77.67
12:25:16.015625,-77.60
12:25:16.031250,-70.26
12:25:16.046875,-56.10
12:25:16.062500,-37.00
12:25:16.078125,-15.84
12:25:16.093750,4.20
12:25:16.109375,20.31
12:25:16.125000,30.60
12:25:16.140625,34.41
12:25:16.156250,32.34
12:25:16.171875,25.93
12:25:16.187500,17.06
12:25:16.203125,7.31
12:25:16.218750,-2.45
12:25:16.234375,-12.13
12:25:16.250000,-22.02
12:25:16.265625,-32.27
12:25:16.281250,-42.54
12:25:16.296875,-51.96
12:25:16.312500,-59.46
12:25:16.328125,-64.21
12:25:16.343750,-65.83
12:25:16.359375,-64.42
12:25:16.375000,-60.26
12:25:16.390625,-53.62
12:25:16.406250,-44.71
12:25:16.421875,-33.92
12:25:16.437500,-21.96
12:25:16.453125,-9.95
12:25:16.468750,0.77
12:25:16.484375,9.08
12:25:16.500000,14.36
12:25:16.515625,16.64
12:25:16.531250,16.48
12:25:16.546875,14.57
12:25:16.562500,11.50
12:25:16.578125,7.54
12:25:16.593750,2.70
12:25:16.609375,-3.01
12:25:16.625000,-9.49
12:25:16.640625,-16.45
12:25:16.656250,-23.51
12:25:16.671875,-30.40
12:25:16.687500,-37.16
12:25:16.703125,-44.21
12:25:16.718750,-52.20
12:25:16.734375,-61.76
12:25:16.750000,-73.09
12:25:16.765625,-85.56
12:25:16.781250,-97.62
12:25:16.796875,-107.04
12:25:16.812500,-111.40
12:25:16.828125,-108.87
12:25:16.843750,-98.75
12:25:16.859375,-81.69
12:25:16.875000,-59.52
12:25:16.890625,-34.71
12:25:16.906250,-9.77
12:25:16.921875,13.18
12:25:16.937500,32.60
12:25:16.953125,47.67
12:25:16.968750,58.10
12:25:16.984375,64.08
12:25:17,66.17
12:25:17.015625,65.20
12:25:17.031250,62.11
12:25:17.046875,57.83
12:25:17.062500,53.13
12:25:17.078125,48.53
12:25:17.093750,44.36
12:25:17.109375,40.81
12:25:17.125000,37.92
12:25:17.140625,35.74
12:25:17.156250,34.22
12:25:17.171875,33.28
12:25:17.187500,32.84
12:25:17.203125,32.79
12:25:17.218750,33.00
12:25:17.234375,33.31
12:25:17.250000,33.49
12:25:17.265625,33.25
12:25:17.281250,32.25
12:25:17.296875,30.21
12:25:17.312500,26.96
12:25:17.328125,22.48
12:25:17.343750,16.89
12:25:17.359375,10.40
12:25:17.375000,3.24
12:25:17.390625,-4.39
12:25:17.406250,-12.30
12:25:17.421875,-20.34
12:25:17.437500,-28.41
12:25:17.453125,-36.54
12:25:17.468750,-44.87
12:25:17.484375,-53.66
12:25:17.500000,-63.26
12:25:17.515625,-73.87
12:25:17.531250,-85.43
12:25:17.546875,-97.43
12:25:17.562500,-108.74
12:25:17.578125,-117.73
12:25:17.593750,-122.46
12:25:17.609375,-121.15
12:25:17.625000,-112.71
12:25:17.640625,-97.12
12:25:17.656250,-75.56
12:25:17.671875,-50.12
12:25:17.687500,-23.19
12:25:17.703125,3.15
12:25:17.718750,27.54
12:25:17.734375,49.33
12:25:17.750000,68.32
12:25:17.765625,84.37
12:25:17.781250,97.23
12:25:17.796875,106.59
12:25:17.812500,112.28
12:25:17.828125,114.52
12:25:17.843750,113.97
12:25:17.859375,111.54
12:25:17.875000,108.15
12:25:17.890625,104.47
12:25:17.906250,100.89
12:25:17.921875,97.59
12:25:17.937500,94.61
12:25:17.953125,91.99
12:25:17.968750,89.72
12:25:17.984375,87.72
12:25:18,85.80
12:25:18.015625,83.67
12:25:18.031250,81.00
12:25:18.046875,77.48
12:25:18.062500,72.93
12:25:18.078125,67.29
12:25:18.093750,60.67
12:25:18.109375,53.32
12:25:18.125000,45.55
12:25:18.140625,37.68
12:25:18.156250,30.00
12:25:18.171875,22.68
12:25:18.187500,15.78
12:25:18.203125,9.24
12:25:18.218750,2.82
12:25:18.234375,-3.80
12:25:18.250000,-10.92
12:25:18.265625,-18.71
12:25:18.281250,-27.08
12:25:18.296875,-35.71
12:25:18.312500,-44.19
12:25:18.328125,-52.19
12:25:18.343750,-59.60
12:25:18.359375,-66.57
12:25:18.375000,-73.51
12:25:18.390625,-80.90
12:25:18.406250,-89.29
12:25:18.421875,-99.09
12:25:18.437500,-110.43
12:25:18.453125,-122.85
12:25:18.468750,-135.13
12:25:18.484375,-145.25
12:25:18.500000,-150.80
12:25:18.515625,-149.60
12:25:18.531250,-140.44
12:25:18.546875,-123.56
12:25:18.562500,-100.59
12:25:18.578125,-74.03
12:25:18.593750,-46.53
12:25:18.609375,-20.21
12:25:18.625000,3.58
12:25:18.640625,24.18
12:25:18.656250,41.36
12:25:18.671875,54.98
12:25:18.687500,65.01
12:25:18.703125,71.59
12:25:18.718750,75.11
12:25:18.734375,76.31
12:25:18.750000,76.11
12:25:18.765625,75.40
12:25:18.781250,74.79
12:25:18.796875,74.57
12:25:18.812500,74.68
12:25:18.828125,74.91
12:25:18.843750,75.07
12:25:18.859375,75.09
12:25:18.875000,75.04
12:25:18.890625,75.03
12:25:18.906250,75.06
12:25:18.921875,74.93
12:25:18.937500,74.25
12:25:18.953125,72.59
12:25:18.968750,69.68
12:25:18.984375,65.55
12:25:19,60.51
12:25:19.015625,55.02
12:25:19.031250,49.51
12:25:19.046875,44.24
12:25:19.062500,39.22
12:25:19.078125,34.32
12:25:19.093750,29.28
12:25:19.109375,23.92
12:25:19.125000,18.13
12:25:19.140625,11.97
12:25:19.156250,5.63
12:25:19.171875,-0.62
12:25:19.187500,-6.56
12:25:19.203125,-12.10
12:25:19.218750,-17.27
12:25:19.234375,-22.29
12:25:19.250000,-27.41
12:25:19.265625,-32.89
12:25:19.281250,-38.82
12:25:19.296875,-45.17
12:25:19.312500,-51.78
12:25:19.328125,-58.44
12:25:19.343750,-65.01
12:25:19.359375,-71.51
12:25:19.375000,-78.14
12:25:19.390625,-85.32
12:25:19.406250,-93.45
12:25:19.421875,-102.71
12:25:19.437500,-112.85
12:25:19.453125,-122.99
12:25:19.468750,-131.72
12:25:19.484375,-137.28
12:25:19.500000,-137.86
12:25:19.515625,-132.00
12:25:19.531250,-119.04
12:25:19.546875,-99.29
12:25:19.562500,-74.21
12:25:19.578125,-46.08
12:25:19.593750,-17.61
12:25:19.609375,8.75
12:25:19.625000,31.26
12:25:19.640625,49.15
12:25:19.656250,62.51
12:25:19.671875,71.91
12:25:19.687500,78.11
12:25:19.703125,81.76
12:25:19.718750,83.48
12:25:19.734375,83.82
12:25:19.750000,83.40
12:25:19.765625,82.85
12:25:19.781250,82.63
12:25:19.796875,82.90
12:25:19.812500,83.52
12:25:19.828125,84.16
12:25:19.843750,84.51
12:25:19.859375,84.40
12:25:19.875000,83.85
12:25:19.890625,83.00
12:25:19.906250,81.94
12:25:19.921875,80.59
12:25:19.937500,78.68
12:25:19.953125,75.91
12:25:19.968750,72.05
12:25:19.984375,67.08
12:25:20,61.22
12:25:20.015625,54.82
12:25:20.031250,48.29
12:25:20.046875,41.89
12:25:20.062500,35.75
12:25:20.078125,29.82
12:25:20.093750,23.97
12:25:20.109375,18.03
12:25:20.125000,11.91
12:25:20.140625,5.64
12:25:20.156250,-0.57
12:25:20.171875,-6.49
12:25:20.187500,-11.93
12:25:20.203125,-16.90
12:25:20.218750,-21.62
12:25:20.234375,-26.44
12:25:20.250000,-31.66
12:25:20.265625,-37.37
12:25:20.281250,-43.37
12:25:20.296875,-49.33
12:25:20.312500,-54.94
12:25:20.328125,-60.11
12:25:20.343750,-64.98
12:25:20.359375,-69.90
12:25:20.375000,-75.26
12:25:20.390625,-81.48
12:25:20.406250,-88.86
12:25:20.421875,-97.39
12:25:20.437500,-106.58
12:25:20.453125,-115.35
12:25:20.468750,-122.06
12:25:20.484375,-124.88
12:25:20.500000,-122.33
12:25:20.515625,-113.79
12:25:20.531250,-99.73
12:25:20.546875,-81.59
12:25:20.562500,-61.32
12:25:20.578125,-40.85
12:25:20.593750,-21.69
12:25:20.609375,-4.83
12:25:20.625000,9.19
12:25:20.640625,20.09
12:25:20.656250,27.81
12:25:20.671875,32.48
12:25:20.687500,34.50
12:25:20.703125,34.55
12:25:20.718750,33.46
12:25:20.734375,32.09
12:25:20.750000,31.12
12:25:20.765625,30.89
12:25:20.781250,31.42
12:25:20.796875,32.49
12:25:20.812500,33.85
12:25:20.828125,35.31
12:25:20.843750,36.80
12:25:20.859375,38.27
12:25:20.875000,39.67
12:25:20.890625,40.80
12:25:20.906250,41.38
12:25:20.921875,41.13
12:25:20.937500,39.84
12:25:20.953125,37.44
12:25:20.968750,34.06
12:25:20.984375,29.95
12:25:21,25.43
12:25:21.015625,20.78
12:25:21.031250,16.14
12:25:21.046875,11.51
12:25:21.062500,6.74
12:25:21.078125,1.63
12:25:21.093750,-3.96
12:25:21.109375,-10.07
12:25:21.125000,-16.57
12:25:21.140625,-23.28
12:25:21.156250,-29.90
12:25:21.171875,-36.22
12:25:21.187500,-42.08
12:25:21.203125,-47.45
12:25:21.218750,-52.49
12:25:21.234375,-57.59
12:25:21.250000,-63.26
12:25:21.265625,-69.98
12:25:21.281250,-78.01
12:25:21.296875,-87.01
12:25:21.312500,-96.08
12:25:21.328125,-103.70
12:25:21.343750,-108.16
12:25:21.359375,-107.91
12:25:21.375000,-102.05
12:25:21.390625,-90.57
12:25:21.406250,-74.38
12:25:21.421875,-55.03
12:25:21.437500,-34.38
12:25:21.453125,-14.14
12:25:21.468750,4.34
12:25:21.484375,20.18
12:25:21.500000,32.91
12:25:21.515625,42.37
12:25:21.531250,48.62
12:25:21.546875,51.94
12:25:21.562500,52.80
12:25:21.578125,51.87
12:25:21.593750,49.94
12:25:21.609375,47.73
12:25:21.625000,45.78
12:25:21.640625,44.36
12:25:21.656250,43.50
12:25:21.671875,43.05
12:25:21.687500,42.89
12:25:21.703125,42.92
12:25:21.718750,43.06
12:25:21.734375,43.25
12:25:21.750000,43.34
12:25:21.765625,43.17
12:25:21.781250,42.54
12:25:21.796875,41.33
12:25:21.812500,39.43
12:25:21.828125,36.83
12:25:21.843750,33.56
12:25:21.859375,29.67
12:25:21.875000,25.29
12:25:21.890625,20.57
12:25:21.906250,15.69
12:25:21.921875,10.78
12:25:21.937500,5.94
12:25:21.953125,1.24
12:25:21.968750,-3.33
12:25:21.984375,-7.76
12:25:22,-12.12
12:25:22.015625,-16.48
12:25:22.031250,-21.00
12:25:22.046875,-25.80
12:25:22.062500,-30.95
12:25:22.078125,-36.37
12:25:22.093750,-41.90
12:25:22.109375,-47.35
12:25:22.125000,-52.64
12:25:22.140625,-57.88
12:25:22.156250,-63.41
12:25:22.171875,-69.65
12:25:22.187500,-76.90
12:25:22.203125,-85.10
12:25:22.218750,-93.59
12:25:22.234375,-101.10
12:25:22.250000,-105.97
12:25:22.265625,-106.50
12:25:22.281250,-101.50
12:25:22.296875,-90.65
12:25:22.312500,-74.62
12:25:22.328125,-54.93
12:25:22.343750,-33.54
12:25:22.359375,-12.36
12:25:22.375000,7.01
12:25:22.390625,23.51
12:25:22.406250,36.55
12:25:22.421875,45.97
12:25:22.437500,51.94
12:25:22.453125,54.87
12:25:22.468750,55.38
12:25:22.484375,54.23
12:25:22.500000,52.18
12:25:22.515625,49.89
12:25:22.531250,47.81
12:25:22.546875,46.20
12:25:22.562500,45.13
12:25:22.578125,44.58
12:25:22.593750,44.46
12:25:22.609375,44.63
12:25:22.625000,44.96
12:25:22.640625,45.28
12:25:22.656250,45.45
12:25:22.671875,45.37
12:25:22.687500,44.99
12:25:22.703125,44.25
12:25:22.718750,43.05
12:25:22.734375,41.19
12:25:22.750000,38.51
12:25:22.765625,34.90
12:25:22.781250,30.40
12:25:22.796875,25.24
12:25:22.812500,19.73
12:25:22.828125,14.14
12:25:22.843750,8.60
12:25:22.859375,3.16
12:25:22.875000,-2.23
12:25:22.890625,-7.58
12:25:22.906250,-12.93
12:25:22.921875,-18.33
12:25:22.937500,-23.87
12:25:22.953125,-29.65
12:25:22.968750,-35.63
12:25:22.984375,-41.65
12:25:23,-47.44
12:25:23.015625,-52.85
12:25:23.031250,-58.01
12:25:23.046875,-63.37
12:25:23.062500,-69.54
12:25:23.078125,-76.95
12:25:23.093750,-85.61
12:25:23.109375,-95.08
12:25:23.125000,-104.67
12:25:23.140625,-113.68
12:25:23.156250,-121.62
12:25:23.171875,-128.14
12:25:23.187500,-132.79
12:25:23.203125,-134.82
12:25:23.218750,-133.14
12:25:23.234375,-126.61
12:25:23.250000,-114.47
12:25:23.265625,-97.00
12:25:23.281250,-75.75
12:25:23.296875,-53.53
12:25:23.312500,-33.70
12:25:23.328125,-19.26
12:25:23.343750,-11.82
12:25:23.359375,-11.02
12:25:23.375000,-14.66
12:25:23.390625,-19.45
12:25:23.406250,-22.24
12:25:23.421875,-21.15
12:25:23.437500,-16.15
12:25:23.453125,-8.79
12:25:23.468750,-1.52
12:25:23.484375,3.32
12:25:23.500000,4.43
12:25:23.515625,1.99
12:25:23.531250,-2.20
12:25:23.546875,-4.93
12:25:23.562500,-2.36
12:25:23.578125,8.67
12:25:23.593750,29.36
12:25:23.609375,57.37
12:25:23.625000,86.48
12:25:23.640625,107.74
12:25:23.656250,112.30
12:25:23.671875,95.36
12:25:23.687500,59.41
12:25:23.703125,15.01
12:25:23.718750,-22.15
12:25:23.734375,-37.21
12:25:23.750000,-22.81
12:25:23.765625,17.30
12:25:23.781250,69.22
12:25:23.796875,114.58
12:25:23.812500,138.05
12:25:23.828125,132.91
12:25:23.843750,101.99
12:25:23.859375,54.31
12:25:23.875000,0.13
12:25:23.890625,-52.76
12:25:23.906250,-99.81
12:25:23.921875,-138.40
12:25:23.937500,-166.60
12:25:23.953125,-183.61
12:25:23.968750,-191.48
12:25:23.984375,-196.11
12:25:24,-205.52
12:25:24.015625,-225.81
12:25:24.031250,-257.00
12:25:24.046875,-291.55
12:25:24.062500,-317.14
12:25:24.078125,-322.29
12:25:24.093750,-301.49
12:25:24.109375,-257.42
12:25:24.125000,-198.74
12:25:24.140625,-135.58
12:25:24.156250,-75.31
12:25:24.171875,-20.65
12:25:24.187500,29.17
12:25:24.203125,76.12
12:25:24.218750,121.63
12:25:24.234375,166.46
12:25:24.250000,211.08
12:25:24.265625,256.02
12:25:24.281250,301.16
12:25:24.296875,344.51
12:25:24.312500,381.98
12:25:24.328125,408.29
12:25:24.343750,418.82
12:25:24.359375,411.12
12:25:24.375000,385.36
12:25:24.390625,343.30
12:25:24.406250,287.06
12:25:24.421875,218.73
12:25:24.437500,141.16
12:25:24.453125,59.02
12:25:24.468750,-21.13
12:25:24.484375,-92.30
12:25:24.500000,-149.31
12:25:24.515625,-190.31
12:25:24.531250,-216.96
12:25:24.546875,-232.45
12:25:24.562500,-239.23
12:25:24.578125,-237.61
12:25:24.593750,-226.21
12:25:24.609375,-203.28
12:25:24.625000,-168.05
12:25:24.640625,-121.53
12:25:24.656250,-66.83
12:25:24.671875,-9.29
12:25:24.687500,43.31
12:25:24.703125,81.23
12:25:24.718750,94.63
12:25:24.734375,77.00
12:25:24.750000,28.45
12:25:24.765625,-42.55
12:25:24.781250,-120.73
12:25:24.796875,-188.84
12:25:24.812500,-233.30
12:25:24.828125,-248.17
12:25:24.843750,-235.75
12:25:24.859375,-203.57
12:25:24.875000,-160.21
12:25:24.890625,-112.26
12:25:24.906250,-63.41
12:25:24.921875,-14.85
12:25:24.937500,33.36
12:25:24.953125,81.19
12:25:24.968750,128.61
12:25:24.984375,176.53
12:25:25,227.59
12:25:25.015625,285.76
12:25:25.031250,353.18
12:25:25.046875,427.91
12:25:25.062500,503.30
12:25:25.078125,569.56
12:25:25.093750,616.33
12:25:25.109375,636.18
12:25:25.125000,627.31
12:25:25.140625,594.25
12:25:25.156250,545.73
12:25:25.171875,489.71
12:25:25.187500,430.79
12:25:25.203125,370.56
12:25:25.218750,309.76
12:25:25.234375,249.33
12:25:25.250000,190.85
12:25:25.265625,136.01
12:25:25.281250,85.85
12:25:25.296875,40.15
12:25:25.312500,-4.63
12:25:25.328125,-54.25
12:25:25.343750,-113.74
12:25:25.359375,-185.02
12:25:25.375000,-266.69
12:25:25.390625,-354.46
12:25:25.406250,-441.68
12:25:25.421875,-519.97
12:25:25.437500,-571.40
12:25:25.453125,-578.53
12:25:25.468750,-538.20
12:25:25.484375,-466.97
12:25:25.500000,-389.76
12:25:25.515625,-324.85
12:25:25.531250,-278.26
12:25:25.546875,-246.74
12:25:25.562500,-223.53
12:25:25.578125,-202.74
12:25:25.593750,-183.57
12:25:25.609375,-168.75
12:25:25.625000,-160.58
12:25:25.640625,-157.55
12:25:25.656250,-155.50
12:25:25.671875,-150.48
12:25:25.687500,-140.72
12:25:25.703125,-126.80
12:25:25.718750,-110.16
12:25:25.734375,-94.01
12:25:25.750000,-81.45
12:25:25.765625,-73.58
12:25:25.781250,-68.58
12:25:25.796875,-63.07
12:25:25.812500,-53.92
12:25:25.828125,-38.96
12:25:25.843750,-20.50
12:25:25.859375,0.08
12:25:25.875000,21.02
12:25:25.890625,40.80
12:25:25.906250,59.17
12:25:25.921875,77.52
12:25:25.937500,97.71
12:25:25.953125,120.40
12:25:25.968750,144.09
12:25:25.984375,165.15
12:25:26,179.38
12:25:26.015625,182.38
12:25:26.031250,171.30
12:25:26.046875,146.17
12:25:26.062500,110.16
12:25:26.078125,68.35
12:25:26.093750,26.05
12:25:26.109375,-12.69
12:25:26.125000,-45.53
12:25:26.140625,-71.11
12:25:26.156250,-89.00
12:25:26.171875,-98.84
12:25:26.187500,-99.98
12:25:26.203125,-91.64
12:25:26.218750,-73.52
12:25:26.234375,-46.23
12:25:26.250000,-11.37
12:25:26.265625,28.93
12:25:26.281250,73.16
12:25:26.296875,120.97
12:25:26.312500,173.24
12:25:26.328125,231.15
12:25:26.343750,294.22
12:25:26.359375,358.81
12:25:26.375000,417.74
12:25:26.390625,461.95
12:25:26.406250,483.55
12:25:26.421875,479.06
12:25:26.437500,450.78
12:25:26.453125,405.73
12:25:26.468750,352.81
12:25:26.484375,299.14
12:25:26.500000,248.41
12:25:26.515625,201.26
12:25:26.531250,157.14
12:25:26.546875,116.26
12:25:26.562500,80.20
12:25:26.578125,51.04
12:25:26.593750,29.75
12:25:26.609375,15.69
12:25:26.625000,6.55
12:25:26.640625,0.82
12:25:26.656250,-0.86
12:25:26.671875,3.79
12:25:26.687500,16.73
12:25:26.703125,37.27
12:25:26.718750,61.38
12:25:26.734375,82.33
12:25:26.750000,93.59
12:25:26.765625,89.54
12:25:26.781250,68.22
12:25:26.796875,31.93
12:25:26.812500,-13.48
12:25:26.828125,-59.83
12:25:26.843750,-98.29
12:25:26.859375,-120.42
12:25:26.875000,-121.48
12:25:26.890625,-101.54
12:25:26.906250,-68.78
12:25:26.921875,-35.76
12:25:26.937500,-14.89
12:25:26.953125,-14.18
12:25:26.968750,-34.94
12:25:26.984375,-72.84
12:25:27,-119.71
12:25:27.015625,-168.89
12:25:27.031250,-215.93
12:25:27.046875,-262.11
12:25:27.062500,-309.94
12:25:27.078125,-360.12
12:25:27.093750,-410.53
12:25:27.109375,-457.10
12:25:27.125000,-496.30
12:25:27.140625,-525.48
12:25:27.156250,-545.81
12:25:27.171875,-539.96
12:25:27.187500,-497.33
12:25:27.203125,-419.64
12:25:27.218750,-322.38
12:25:27.234375,-225.80
12:25:27.250000,-144.08
12:25:27.265625,-90.48
12:25:27.281250,-59.70
12:25:27.296875,-46.40
12:25:27.312500,-45.53
12:25:27.328125,-54.63
12:25:27.343750,-70.54
12:25:27.359375,-84.84
12:25:27.375000,-90.46
12:25:27.390625,-83.30
12:25:27.406250,-64.32
12:25:27.421875,-37.64
12:25:27.437500,-10.80
12:25:27.453125,10.09
12:25:27.468750,19.90
12:25:27.484375,17.28
12:25:27.500000,5.00
12:25:27.515625,-11.59
12:25:27.531250,-26.24
12:25:27.546875,-33.97
12:25:27.562500,-31.40
12:25:27.578125,-18.98
12:25:27.593750,1.11
12:25:27.609375,24.39
12:25:27.625000,46.48
12:25:27.640625,64.45
12:25:27.656250,76.94
12:25:27.671875,84.34
12:25:27.687500,88.04
12:25:27.703125,90.56
12:25:27.718750,93.75
12:25:27.734375,99.20
12:25:27.750000,106.81
12:25:27.765625,115.03
12:25:27.781250,121.53
12:25:27.796875,123.99
12:25:27.812500,121.49
12:25:27.828125,114.88
12:25:27.843750,106.83
12:25:27.859375,100.14
12:25:27.875000,96.89
12:25:27.890625,97.37
12:25:27.906250,100.20
12:25:27.921875,103.30
12:25:27.937500,104.85
12:25:27.953125,104.04
12:25:27.968750,101.13
12:25:27.984375,97.06
12:25:28,92.66
12:25:28.015625,88.61
12:25:28.031250,85.23
12:25:28.046875,82.70
12:25:28.062500,81.03
12:25:28.078125,80.12
12:25:28.093750,79.61
12:25:28.109375,78.93
12:25:28.125000,77.31
12:25:28.140625,74.02
12:25:28.156250,68.52
12:25:28.171875,60.69
12:25:28.187500,50.74
12:25:28.203125,39.02
12:25:28.218750,25.89
12:25:28.234375,11.72
12:25:28.250000,-3.01
12:25:28.265625,-17.48
12:25:28.281250,-30.41
12:25:28.296875,-40.25
12:25:28.312500,-45.51
12:25:28.328125,-45.23
12:25:28.343750,-39.36
12:25:28.359375,-28.72
12:25:28.375000,-14.76
12:25:28.390625,0.95
12:25:28.406250,17.04
12:25:28.421875,32.59
12:25:28.437500,46.98
12:25:28.453125,59.81
12:25:28.468750,70.73
12:25:28.484375,79.45
12:25:28.500000,85.74
12:25:28.515625,89.55
12:25:28.531250,91.01
12:25:28.546875,90.49
12:25:28.562500,88.53
12:25:28.578125,85.80
12:25:28.593750,82.89
12:25:28.609375,80.11
12:25:28.625000,77.35
12:25:28.640625,74.07
12:25:28.656250,69.56
12:25:28.671875,63.29
12:25:28.687500,55.09
12:25:28.703125,45.26
12:25:28.718750,34.30
12:25:28.734375,22.65
12:25:28.750000,10.44
12:25:28.765625,-2.35
12:25:28.781250,-15.72
12:25:28.796875,-29.41
12:25:28.812500,-42.89
12:25:28.828125,-55.47
12:25:28.843750,-66.59
12:25:28.859375,-75.96
12:25:28.875000,-83.63
12:25:28.890625,-89.87
12:25:28.906250,-94.99
12:25:28.921875,-99.31
12:25:28.937500,-103.09
12:25:28.953125,-106.55
12:25:28.968750,-109.80
12:25:28.984375,-112.76
12:25:29,-114.95
12:25:29.015625,-115.47
12:25:29.031250,-113.06
12:25:29.046875,-106.52
12:25:29.062500,-95.06
12:25:29.078125,-78.69
12:25:29.093750,-58.29
12:25:29.109375,-35.42
12:25:29.125000,-11.95
12:25:29.140625,10.41
12:25:29.156250,30.36
12:25:29.171875,47.04
12:25:29.187500,59.95
12:25:29.203125,68.81
12:25:29.218750,73.48
12:25:29.234375,74.15
12:25:29.250000,71.39
12:25:29.265625,66.27
12:25:29.281250,60.17
12:25:29.296875,54.53
12:25:29.312500,50.43
12:25:29.328125,48.32
12:25:29.343750,47.91
12:25:29.359375,48.39
12:25:29.375000,48.73
12:25:29.390625,48.13
12:25:29.406250,46.22
12:25:29.421875,43.11
12:25:29.437500,39.15
12:25:29.453125,34.72
12:25:29.468750,30.07
12:25:29.484375,25.25
12:25:29.500000,20.24
12:25:29.515625,14.99
12:25:29.531250,9.58
12:25:29.546875,4.07
12:25:29.562500,-1.50
12:25:29.578125,-7.25
12:25:29.593750,-13.41
12:25:29.609375,-20.25
12:25:29.625000,-27.98
12:25:29.640625,-36.60
12:25:29.656250,-45.81
12:25:29.671875,-55.09
12:25:29.687500,-63.82
12:25:29.703125,-71.49
12:25:29.718750,-77.77
12:25:29.734375,-82.54
12:25:29.750000,-85.66
12:25:29.765625,-86.84
12:25:29.781250,-85.49
12:25:29.796875,-80.90
12:25:29.812500,-72.48
12:25:29.828125,-60.06
12:25:29.843750,-44.12
12:25:29.859375,-25.73
12:25:29.875000,-6.32
12:25:29.890625,12.55
12:25:29.906250,29.51
12:25:29.921875,43.44
12:25:29.937500,53.59
12:25:29.953125,59.55
12:25:29.968750,61.27
12:25:29.984375,59.15
12:25:30,53.98
12:25:30.015625,46.84
12:25:30.031250,38.96
12:25:30.046875,31.42
12:25:30.062500,24.99
12:25:30.078125,20.01
12:25:30.093750,16.48
12:25:30.109375,14.18
12:25:30.125000,12.87
12:25:30.140625,12.36
12:25:30.156250,12.50
12:25:30.171875,13.10
12:25:30.187500,13.90
12:25:30.203125,14.50
12:25:30.218750,14.47
12:25:30.234375,13.42
12:25:30.250000,11.10
12:25:30.265625,7.52
12:25:30.281250,2.85
12:25:30.296875,-2.58
12:25:30.312500,-8.37
12:25:30.328125,-14.17
12:25:30.343750,-19.77
12:25:30.359375,-25.22
12:25:30.375000,-30.77
12:25:30.390625,-36.89
12:25:30.406250,-43.95
12:25:30.421875,-52.09
12:25:30.437500,-60.92
12:25:30.453125,-69.46
12:25:30.468750,-76.32
12:25:30.484375,-79.89
12:25:30.500000,-78.85
12:25:30.515625,-72.51
12:25:30.531250,-61.03
12:25:30.546875,-45.45
12:25:30.562500,-27.44
12:25:30.578125,-8.84
12:25:30.593750,8.67
12:25:30.609375,23.92
12:25:30.625000,36.35
12:25:30.640625,45.91
12:25:30.656250,52.79
12:25:30.671875,57.22
12:25:30.687500,59.31
12:25:30.703125,59.10
12:25:30.718750,56.77
12:25:30.734375,52.72
12:25:30.750000,47.70
12:25:30.765625,42.60
12:25:30.781250,38.19
12:25:30.796875,34.90
12:25:30.812500,32.83
12:25:30.828125,31.74
12:25:30.843750,31.37
12:25:30.859375,31.49
12:25:30.875000,31.98
12:25:30.890625,32.76
12:25:30.906250,33.66
12:25:30.921875,34.41
12:25:30.937500,34.75
12:25:30.953125,34.51
12:25:30.968750,33.69
12:25:30.984375,32.46
12:25:31,31.02
12:25:31.015625,29.51
12:25:31.031250,27.89
12:25:31.046875,26.08
12:25:31.062500,24.01
12:25:31.078125,21.77
12:25:31.093750,19.64
12:25:31.109375,17.88
12:25:31.125000,16.58
12:25:31.140625,15.55
12:25:31.156250,14.44
12:25:31.171875,13.15
12:25:31.187500,12.14
12:25:31.203125,12.71
12:25:31.218750,16.63
12:25:31.234375,25.57
12:25:31.250000,40.31
12:25:31.265625,60.29
12:25:31.281250,83.47
12:25:31.296875,106.67
12:25:31.312500,126.08
12:25:31.328125,137.98
12:25:31.343750,139.34
12:25:31.359375,128.30
12:25:31.375000,104.45
12:25:31.390625,68.71
12:25:31.406250,23.02
12:25:31.421875,-30.06
12:25:31.437500,-87.50
12:25:31.453125,-146.06
12:25:31.468750,-202.31
12:25:31.484375,-252.73
12:25:31.500000,-293.96
12:25:31.515625,-322.98
12:25:31.531250,-337.28
12:25:31.546875,-335.01
12:25:31.562500,-315.25
12:25:31.578125,-278.57
12:25:31.593750,-227.83
12:25:31.609375,-168.67
12:25:31.625000,-109.21
12:25:31.640625,-58.68
12:25:31.656250,-25.05
12:25:31.671875,-12.84
12:25:31.687500,-21.81
12:25:31.703125,-47.30
12:25:31.718750,-81.75
12:25:31.734375,-116.85
12:25:31.750000,-145.25
12:25:31.765625,-161.63
12:25:31.781250,-162.99
12:25:31.796875,-148.63
12:25:31.812500,-119.93
12:25:31.828125,-80.07
12:25:31.843750,-33.41
12:25:31.859375,15.38
12:25:31.875000,62.17
12:25:31.890625,104.24
12:25:31.906250,140.49
12:25:31.921875,171.21
12:25:31.937500,197.69
12:25:31.953125,221.52
12:25:31.968750,244.05
12:25:31.984375,265.89
12:25:32,286.66
12:25:32.015625,304.95
12:25:32.031250,318.94
12:25:32.046875,327.21
12:25:32.062500,329.68
12:25:32.078125,327.91
12:25:32.093750,324.65
12:25:32.109375,322.73
12:25:32.125000,323.83
12:25:32.140625,327.95
12:25:32.156250,333.61
12:25:32.171875,338.62
12:25:32.187500,340.88
12:25:32.203125,338.69
12:25:32.218750,330.94
12:25:32.234375,317.11
12:25:32.250000,297.32
12:25:32.265625,272.50
12:25:32.281250,244.39
12:25:32.296875,215.13
12:25:32.312500,186.76
12:25:32.328125,160.49
12:25:32.343750,136.37
12:25:32.359375,113.31
12:25:32.375000,89.52
12:25:32.390625,63.12
12:25:32.406250,32.92
12:25:32.421875,-1.11
12:25:32.437500,-37.59
12:25:32.453125,-74.30
12:25:32.468750,-108.94
12:25:32.484375,-140.22
12:25:32.500000,-168.65
12:25:32.515625,-196.40
12:25:32.531250,-226.60
12:25:32.546875,-262.30
12:25:32.562500,-305.68
12:25:32.578125,-357.53
12:25:32.593750,-416.71
12:25:32.609375,-479.32
12:25:32.625000,-538.47
12:25:32.640625,-585.15
12:25:32.656250,-610.95
12:25:32.671875,-611.89
12:25:32.687500,-591.20
12:25:32.703125,-559.02
12:25:32.718750,-528.53
12:25:32.734375,-509.91
12:25:32.750000,-505.69
12:25:32.765625,-509.92
12:25:32.781250,-511.88
12:25:32.796875,-501.92
12:25:32.812500,-476.17
12:25:32.828125,-437.43
12:25:32.843750,-392.30
12:25:32.859375,-346.89
12:25:32.875000,-303.72
12:25:32.890625,-261.68
12:25:32.906250,-218.14
12:25:32.921875,-171.57
12:25:32.937500,-122.74
12:25:32.953125,-74.33
12:25:32.968750,-29.34
12:25:32.984375,10.39
12:25:33,44.59
12:25:33.015625,74.22
12:25:33.031250,100.50
12:25:33.046875,124.05
12:25:33.062500,144.50
12:25:33.078125,160.66
12:25:33.093750,171.16
12:25:33.109375,175.39
12:25:33.125000,174.17
12:25:33.140625,169.86
12:25:33.156250,165.79
12:25:33.171875,165.09
12:25:33.187500,169.36
12:25:33.203125,178.19
12:25:33.218750,189.33
12:25:33.234375,199.82
12:25:33.250000,207.26
12:25:33.265625,210.64
12:25:33.281250,210.26
12:25:33.296875,207.03
12:25:33.312500,201.63
12:25:33.328125,193.98
12:25:33.343750,183.42
12:25:33.359375,169.34
12:25:33.375000,151.84
12:25:33.390625,131.90
12:25:33.406250,111.19
12:25:33.421875,91.29
12:25:33.437500,73.13
12:25:33.453125,56.76
12:25:33.468750,41.54
12:25:33.484375,26.82
12:25:33.500000,12.50
12:25:33.515625,-0.69
12:25:33.531250,-11.26
12:25:33.546875,-17.58
12:25:33.562500,-18.44
12:25:33.578125,-13.53
12:25:33.593750,-3.45
12:25:33.609375,10.48
12:25:33.625000,26.70
12:25:33.640625,43.71
12:25:33.656250,60.32
12:25:33.671875,75.59
12:25:33.687500,88.72
12:25:33.703125,99.05
12:25:33.718750,106.09
12:25:33.734375,109.70
12:25:33.750000,110.13
12:25:33.765625,108.12
12:25:33.781250,104.64
12:25:33.796875,100.63
12:25:33.812500,96.75
12:25:33.828125,93.24
12:25:33.843750,89.98
12:25:33.859375,86.70
12:25:33.875000,83.17
12:25:33.890625,79.40
12:25:33.906250,75.65
12:25:33.921875,72.28
12:25:33.937500,69.62
12:25:33.953125,67.72
12:25:33.968750,66.32
12:25:33.984375,64.93
12:25:34,63.04
12:25:34.015625,60.26
12:25:34.031250,56.55
12:25:34.046875,52.17
12:25:34.062500,47.47
12:25:34.078125,42.78
12:25:34.093750,38.23
12:25:34.109375,33.77
12:25:34.125000,29.25
12:25:34.140625,24.59
12:25:34.156250,19.90
12:25:34.171875,15.37
12:25:34.187500,11.14
12:25:34.203125,7.15
12:25:34.218750,3.12
12:25:34.234375,-1.38
12:25:34.250000,-6.63
12:25:34.265625,-12.68
12:25:34.281250,-19.24
12:25:34.296875,-25.81
12:25:34.312500,-31.96
12:25:34.328125,-37.43
12:25:34.343750,-42.32
12:25:34.359375,-47.00
12:25:34.375000,-52.01
12:25:34.390625,-57.85
12:25:34.406250,-64.71
12:25:34.421875,-72.39
12:25:34.437500,-80.06
12:25:34.453125,-86.48
12:25:34.468750,-90.16
12:25:34.484375,-89.82
12:25:34.500000,-84.76
12:25:34.515625,-75.07
12:25:34.531250,-61.64
12:25:34.546875,-45.91
12:25:34.562500,-29.42
12:25:34.578125,-13.50
12:25:34.593750,1.00
12:25:34.609375,13.71
12:25:34.625000,24.59
12:25:34.640625,33.76
12:25:34.656250,41.28
12:25:34.671875,47.11
12:25:34.687500,51.16
12:25:34.703125,53.35
12:25:34.718750,53.73
12:25:34.734375,52.52
12:25:34.750000,50.03
12:25:34.765625,46.61
12:25:34.781250,42.54
12:25:34.796875,38.07
12:25:34.812500,33.53
12:25:34.828125,29.39
12:25:34.843750,26.23
12:25:34.859375,24.62
12:25:34.875000,24.87
12:25:34.890625,26.75
12:25:34.906250,29.52
12:25:34.921875,32.03
12:25:34.937500,33.09
12:25:34.953125,31.88
12:25:34.968750,28.22
12:25:34.984375,22.65
12:25:35,16.19
12:25:35.015625,9.96
12:25:35.031250,4.76
12:25:35.046875,0.87
12:25:35.062500,-2.01
12:25:35.078125,-4.49
12:25:35.093750,-7.21
12:25:35.109375,-10.55
12:25:35.125000,-14.57
12:25:35.140625,-19.05
12:25:35.156250,-23.68
12:25:35.171875,-28.11
12:25:35.187500,-32.00
12:25:35.203125,-35.03
12:25:35.218750,-36.94
12:25:35.234375,-37.77
12:25:35.250000,-37.92
12:25:35.265625,-38.09
12:25:35.281250,-38.83
12:25:35.296875,-40.05
12:25:35.312500,-40.81
12:25:35.328125,-39.56
12:25:35.343750,-34.90
12:25:35.359375,-26.22
12:25:35.375000,-14.07
12:25:35.390625,0.24
12:25:35.406250,15.43
12:25:35.421875,30.86
12:25:35.437500,46.62
12:25:35.453125,62.98
12:25:35.468750,79.58
12:25:35.484375,95.11
12:25:35.500000,107.59
12:25:35.515625,115.20
12:25:35.531250,117.22
12:25:35.546875,114.26
12:25:35.562500,107.97
12:25:35.578125,100.21
12:25:35.593750,92.24
12:25:35.609375,84.49
12:25:35.625000,76.71
12:25:35.640625,68.59
12:25:35.656250,60.18
12:25:35.671875,52.03
12:25:35.687500,44.98
12:25:35.703125,39.75
12:25:35.718750,36.68
12:25:35.734375,35.52
12:25:35.750000,35.68
12:25:35.765625,36.43
12:25:35.781250,37.18
12:25:35.796875,37.60
12:25:35.812500,37.59
12:25:35.828125,37.09
12:25:35.843750,36.01
12:25:35.859375,34.09
12:25:35.875000,31.01
12:25:35.890625,26.46
12:25:35.906250,20.28
12:25:35.921875,12.52
12:25:35.937500,3.43
12:25:35.953125,-6.49
12:25:35.968750,-16.63
12:25:35.984375,-26.28
12:25:36,-34.80
12:25:36.015625,-41.77
12:25:36.031250,-47.11
12:25:36.046875,-51.15
12:25:36.062500,-54.54
12:25:36.078125,-57.98
12:25:36.093750,-61.99
12:25:36.109375,-66.74
12:25:36.125000,-72.08
12:25:36.140625,-77.67
12:25:36.156250,-83.18
12:25:36.171875,-88.40
12:25:36.187500,-93.27
12:25:36.203125,-97.86
12:25:36.218750,-102.29
12:25:36.234375,-106.71
12:25:36.250000,-111.19
12:25:36.265625,-115.63
12:25:36.281250,-119.66
12:25:36.296875,-122.63
12:25:36.312500,-123.66
12:25:36.328125,-121.88
12:25:36.343750,-116.57
12:25:36.359375,-107.43
12:25:36.375000,-94.58
12:25:36.390625,-78.71
12:25:36.406250,-60.87
12:25:36.421875,-42.45
12:25:36.437500,-24.85
12:25:36.453125,-9.31
12:25:36.468750,3.33
12:25:36.484375,12.76
12:25:36.500000,19.15
12:25:36.515625,22.98
12:25:36.531250,24.88
12:25:36.546875,25.44
12:25:36.562500,25.15
12:25:36.578125,24.35
12:25:36.593750,23.35
12:25:36.609375,22.40
12:25:36.625000,21.79
12:25:36.640625,21.74
12:25:36.656250,22.40
12:25:36.671875,23.73
12:25:36.687500,25.54
12:25:36.703125,27.48
12:25:36.718750,29.14
12:25:36.734375,30.16
12:25:36.750000,30.34
12:25:36.765625,29.65
12:25:36.781250,28.27
12:25:36.796875,26.41
12:25:36.812500,24.26
12:25:36.828125,21.92
12:25:36.843750,19.31
12:25:36.859375,16.31
12:25:36.875000,12.85
12:25:36.890625,8.99
12:25:36.906250,4.92
12:25:36.921875,0.91
12:25:36.937500,-2.89
12:25:36.953125,-6.47
12:25:36.968750,-10.01
12:25:36.984375,-13.69
12:25:37,-17.62
12:25:37.015625,-21.81
12:25:37.031250,-26.15
12:25:37.046875,-30.54
12:25:37.062500,-34.96
12:25:37.078125,-39.38
12:25:37.093750,-43.84
12:25:37.109375,-48.39
12:25:37.125000,-53.16
12:25:37.140625,-58.35
12:25:37.156250,-64.17
12:25:37.171875,-70.54
12:25:37.187500,-77.01
12:25:37.203125,-82.61
12:25:37.218750,-86.06
12:25:37.234375,-86.16
12:25:37.250000,-82.10
12:25:37.265625,-73.72
12:25:37.281250,-61.51
12:25:37.296875,-46.40
12:25:37.312500,-29.60
12:25:37.328125,-12.40
12:25:37.343750,3.92
12:25:37.359375,18.22
12:25:37.375000,29.67
12:25:37.390625,37.85
12:25:37.406250,42.79
12:25:37.421875,44.91
12:25:37.437500,44.85
12:25:37.453125,43.31
12:25:37.468750,40.98
12:25:37.484375,38.48
12:25:37.500000,36.34
12:25:37.515625,34.91
12:25:37.531250,34.33
12:25:37.546875,34.48
12:25:37.562500,35.05
12:25:37.578125,35.70
12:25:37.593750,36.17
12:25:37.609375,36.37
12:25:37.625000,36.39
12:25:37.640625,36.30
12:25:37.656250,36.12
12:25:37.671875,35.75
12:25:37.687500,35.00
12:25:37.703125,33.65
12:25:37.718750,31.59
12:25:37.734375,28.82
12:25:37.750000,25.43
12:25:37.765625,21.60
12:25:37.781250,17.53
12:25:37.796875,13.38
12:25:37.812500,9.27
12:25:37.828125,5.19
12:25:37.843750,1.05
12:25:37.859375,-3.33
12:25:37.875000,-8.12
12:25:37.890625,-13.40
12:25:37.906250,-19.05
12:25:37.921875,-24.82
12:25:37.937500,-30.38
12:25:37.953125,-35.46
12:25:37.968750,-39.94
12:25:37.984375,-43.97
12:25:38,-47.89
12:25:38.015625,-52.16
12:25:38.031250,-57.11
12:25:38.046875,-62.87
12:25:38.062500,-69.18
12:25:38.078125,-75.37
12:25:38.093750,-80.46
12:25:38.109375,-83.31
12:25:38.125000,-82.90
12:25:38.140625,-78.57
12:25:38.156250,-70.22
12:25:38.171875,-58.41
12:25:38.187500,-44.13
12:25:38.203125,-28.63
12:25:38.218750,-13.13
12:25:38.234375,1.36
12:25:38.250000,14.05
12:25:38.265625,24.35
12:25:38.281250,31.90
12:25:38.296875,36.56
12:25:38.312500,38.51
12:25:38.328125,38.21
12:25:38.343750,36.34
12:25:38.359375,33.70
12:25:38.375000,31.05
12:25:38.390625,28.91
12:25:38.406250,27.59
12:25:38.421875,27.16
12:25:38.437500,27.49
12:25:38.453125,28.31
12:25:38.468750,29.31
12:25:38.484375,30.19
12:25:38.500000,30.80
12:25:38.515625,31.05
12:25:38.531250,30.96
12:25:38.546875,30.54
12:25:38.562500,29.72
12:25:38.578125,28.38
12:25:38.593750,26.43
12:25:38.609375,23.86
12:25:38.625000,20.79
12:25:38.640625,17.38
12:25:38.656250,13.78
12:25:38.671875,10.07
12:25:38.687500,6.26
12:25:38.703125,2.34
12:25:38.718750,-1.67
12:25:38.734375,-5.73
12:25:38.750000,-9.81
12:25:38.765625,-13.92
12:25:38.781250,-18.15
12:25:38.796875,-22.56
12:25:38.812500,-27.18
12:25:38.828125,-31.91
12:25:38.843750,-36.66
12:25:38.859375,-41.31
12:25:38.875000,-45.84
12:25:38.890625,-50.37
12:25:38.906250,-55.14
12:25:38.921875,-60.39
12:25:38.937500,-66.19
12:25:38.953125,-72.30
12:25:38.968750,-78.05
12:25:38.984375,-82.44
12:25:39,-84.25
12:25:39.015625,-82.47
12:25:39.031250,-76.49
12:25:39.046875,-66.34
12:25:39.062500,-52.66
12:25:39.078125,-36.54
12:25:39.093750,-19.20
12:25:39.109375,-1.83
12:25:39.125000,14.53
12:25:39.140625,29.00
12:25:39.156250,40.90
12:25:39.171875,49.80
12:25:39.187500,55.68
12:25:39.203125,58.90
12:25:39.218750,60.15
12:25:39.234375,60.24
12:25:39.250000,59.87
12:25:39.265625,59.51
12:25:39.281250,59.40
12:25:39.296875,59.75
12:25:39.312500,60.82
12:25:39.328125,63.01
12:25:39.343750,66.64
12:25:39.359375,71.72
12:25:39.375000,77.80
12:25:39.390625,83.99
12:25:39.406250,89.25
12:25:39.421875,92.82
12:25:39.437500,94.61
12:25:39.453125,95.30
12:25:39.468750,96.07
12:25:39.484375,98.10
12:25:39.500000,102.03
12:25:39.515625,107.59
12:25:39.531250,113.62
12:25:39.546875,118.59
12:25:39.562500,121.19
12:25:39.578125,120.97
12:25:39.593750,118.65
12:25:39.609375,115.86
12:25:39.625000,114.70
12:25:39.640625,116.83
12:25:39.656250,122.76
12:25:39.671875,131.24
12:25:39.687500,139.26
12:25:39.703125,142.67
12:25:39.718750,137.45
12:25:39.734375,121.05
12:25:39.750000,93.18
12:25:39.765625,56.01
12:25:39.781250,13.13
12:25:39.796875,-31.92
12:25:39.812500,-76.82
12:25:39.828125,-121.29
12:25:39.843750,-166.94
12:25:39.859375,-216.51
12:25:39.875000,-272.52
12:25:39.890625,-335.54
12:25:39.906250,-402.95
12:25:39.921875,-468.60
12:25:39.937500,-524.08
12:25:39.953125,-561.21
12:25:39.968750,-575.00
12:25:39.984375,-565.46
12:25:40,-537.54
12:25:40.015625,-498.81
12:25:40.031250,-456.42
12:25:40.046875,-414.69
12:25:40.062500,-374.62
12:25:40.078125,-335.20
12:25:40.093750,-295.36
12:25:40.109375,-255.30
12:25:40.125000,-216.21
12:25:40.140625,-179.26
12:25:40.156250,-144.35
12:25:40.171875,-109.85
12:25:40.187500,-73.43
12:25:40.203125,-33.23
12:25:40.218750,11.35
12:25:40.234375,59.72
12:25:40.250000,110.53
12:25:40.265625,162.32
12:25:40.281250,213.60
12:25:40.296875,262.52
12:25:40.312500,306.57
12:25:40.328125,342.72
12:25:40.343750,368.22
12:25:40.359375,381.54
12:25:40.375000,382.93
12:25:40.390625,374.33
12:25:40.406250,358.57
12:25:40.421875,338.46
12:25:40.437500,316.24
12:25:40.453125,293.54
12:25:40.468750,271.61
12:25:40.484375,251.53
12:25:40.500000,233.99
12:25:40.515625,218.98
12:25:40.531250,205.68
12:25:40.546875,192.64
12:25:40.562500,178.49
12:25:40.578125,162.53
12:25:40.593750,145.03
12:25:40.609375,126.94
12:25:40.625000,109.53
12:25:40.640625,93.73
12:25:40.656250,79.93
12:25:40.671875,67.93
12:25:40.687500,57.14
12:25:40.703125,46.83
12:25:40.718750,36.36
12:25:40.734375,25.44
12:25:40.750000,14.20
12:25:40.765625,3.24
12:25:40.781250,-6.57
12:25:40.796875,-14.32
12:25:40.812500,-19.42
12:25:40.828125,-21.82
12:25:40.843750,-21.98
12:25:40.859375,-20.61
12:25:40.875000,-18.44
12:25:40.890625,-15.92
12:25:40.906250,-13.21
12:25:40.921875,-10.32
12:25:40.937500,-7.26
12:25:40.953125,-4.21
12:25:40.968750,-1.45
12:25:40.984375,0.73
12:25:41,2.10
12:25:41.015625,2.68
12:25:41.031250,2.60
12:25:41.046875,2.10
12:25:41.062500,1.41
12:25:41.078125,0.66
12:25:41.093750,-0.13
12:25:41.109375,-0.95
12:25:41.125000,-1.70
12:25:41.140625,-2.27
12:25:41.156250,-2.42
12:25:41.171875,-2.04
12:25:41.187500,-1.14
12:25:41.203125,0.08
12:25:41.218750,1.36
12:25:41.234375,2.48
12:25:41.250000,3.32
12:25:41.265625,3.94
12:25:41.281250,4.44
12:25:41.296875,4.90
12:25:41.312500,5.33
12:25:41.328125,5.68
12:25:41.343750,5.87
12:25:41.359375,5.88
12:25:41.375000,5.70
12:25:41.390625,5.28
12:25:41.406250,4.54
12:25:41.421875,3.36
12:25:41.437500,1.67
12:25:41.453125,-0.50
12:25:41.468750,-3.03
12:25:41.484375,-5.72
12:25:41.500000,-8.37
12:25:41.515625,-10.87
12:25:41.531250,-13.16
12:25:41.546875,-15.27
12:25:41.562500,-17.26
12:25:41.578125,-19.25
12:25:41.593750,-21.43
12:25:41.609375,-23.98
12:25:41.625000,-27.05
12:25:41.640625,-30.64
12:25:41.656250,-34.53
12:25:41.671875,-38.23
12:25:41.687500,-41.08
12:25:41.703125,-42.45
12:25:41.718750,-41.87
12:25:41.734375,-39.19
12:25:41.750000,-34.60
12:25:41.765625,-28.60
12:25:41.781250,-21.84
12:25:41.796875,-14.98
12:25:41.812500,-8.57
12:25:41.828125,-3.00
12:25:41.843750,1.56
12:25:41.859375,5.10
12:25:41.875000,7.73
12:25:41.890625,9.60
12:25:41.906250,10.84
12:25:41.921875,11.55
12:25:41.937500,11.81
12:25:41.953125,11.68
12:25:41.968750,11.22
12:25:41.984375,10.47
12:25:42,9.50
12:25:42.015625,8.41
12:25:42.031250,7.32
12:25:42.046875,6.43
12:25:42.062500,5.89
12:25:42.078125,5.77
12:25:42.093750,5.94
12:25:42.109375,6.14
12:25:42.125000,6.11
12:25:42.140625,5.66
12:25:42.156250,4.75
12:25:42.171875,3.43
12:25:42.187500,1.80
12:25:42.203125,-0.09
12:25:42.218750,-2.25
12:25:42.234375,-4.60
12:25:42.250000,-7.06
12:25:42.265625,-9.51
12:25:42.281250,-11.99
12:25:42.296875,-14.70
12:25:42.312500,-17.96
12:25:42.328125,-21.99
12:25:42.343750,-26.67
12:25:42.359375,-31.58
12:25:42.375000,-36.10
12:25:42.390625,-39.76
12:25:42.406250,-42.45
12:25:42.421875,-44.46
12:25:42.437500,-46.33
12:25:42.453125,-48.55
12:25:42.468750,-51.37
12:25:42.484375,-54.62
12:25:42.500000,-57.86
12:25:42.515625,-60.45
12:25:42.531250,-61.80
12:25:42.546875,-61.47
12:25:42.562500,-59.32
12:25:42.578125,-55.45
12:25:42.593750,-50.21
12:25:42.609375,-44.06
12:25:42.625000,-37.43
12:25:42.640625,-30.69
12:25:42.656250,-24.14
12:25:42.671875,-18.00
12:25:42.687500,-12.46
12:25:42.703125,-7.66
12:25:42.718750,-3.62
12:25:42.734375,-0.31
12:25:42.750000,2.39
12:25:42.765625,4.56
12:25:42.781250,6.30
12:25:42.796875,7.67
12:25:42.812500,8.77
12:25:42.828125,9.75
12:25:42.843750,10.79
12:25:42.859375,11.99
12:25:42.875000,13.40
12:25:42.890625,14.96
12:25:42.906250,16.59
12:25:42.921875,18.22
12:25:42.937500,19.73
12:25:42.953125,21.00
12:25:42.968750,21.81
12:25:42.984375,21.97
12:25:43,21.39
12:25:43.015625,20.13
12:25:43.031250,18.41
12:25:43.046875,16.50
12:25:43.062500,14.62
12:25:43.078125,12.81
12:25:43.093750,11.03
12:25:43.109375,9.15
12:25:43.125000,7.08
12:25:43.140625,4.79
12:25:43.156250,2.27
12:25:43.171875,-0.50
12:25:43.187500,-3.55
12:25:43.203125,-6.89
12:25:43.218750,-10.46
12:25:43.234375,-14.16
12:25:43.250000,-17.83
12:25:43.265625,-21.35
12:25:43.281250,-24.68
12:25:43.296875,-27.88
12:25:43.312500,-31.14
12:25:43.328125,-34.69
12:25:43.343750,-38.72
12:25:43.359375,-43.22
12:25:43.375000,-47.90
12:25:43.390625,-52.19
12:25:43.406250,-55.32
12:25:43.421875,-56.59
12:25:43.437500,-55.60
12:25:43.453125,-52.38
12:25:43.468750,-47.28
12:25:43.484375,-40.84
12:25:43.500000,-33.58
12:25:43.515625,-25.87
12:25:43.531250,-18.02
12:25:43.546875,-10.34
12:25:43.562500,-3.15
12:25:43.578125,3.22
12:25:43.593750,8.57
12:25:43.609375,12.94
12:25:43.625000,16.52
12:25:43.640625,19.58
12:25:43.656250,22.27
12:25:43.671875,24.62
12:25:43.687500,26.52
12:25:43.703125,27.94
12:25:43.718750,28.97
12:25:43.734375,29.80
12:25:43.750000,30.72
12:25:43.765625,31.89
12:25:43.781250,33.28
12:25:43.796875,34.80
12:25:43.812500,36.25
12:25:43.828125,37.45
12:25:43.843750,38.29
12:25:43.859375,38.68
12:25:43.875000,38.54
12:25:43.890625,37.85
12:25:43.906250,36.59
12:25:43.921875,34.84
12:25:43.937500,32.76
12:25:43.953125,30.54
12:25:43.968750,28.33
12:25:43.984375,26.23
12:25:44,24.24
12:25:44.015625,22.29
12:25:44.031250,20.26
12:25:44.046875,17.98
12:25:44.062500,15.33
12:25:44.078125,12.27
12:25:44.093750,8.90
12:25:44.109375,5.43
12:25:44.125000,2.08
12:25:44.140625,-1.01
12:25:44.156250,-3.87
12:25:44.171875,-6.65
12:25:44.187500,-9.58
12:25:44.203125,-12.82
12:25:44.218750,-16.48
12:25:44.234375,-20.61
12:25:44.250000,-25.18
12:25:44.265625,-30.08
12:25:44.281250,-34.95
12:25:44.296875,-39.22
12:25:44.312500,-42.13
12:25:44.328125,-43.00
12:25:44.343750,-41.44
12:25:44.359375,-37.55
12:25:44.375000,-31.85
12:25:44.390625,-25.01
12:25:44.406250,-17.69
12:25:44.421875,-10.32
12:25:44.437500,-3.16
12:25:44.453125,3.55
12:25:44.468750,9.53
12:25:44.484375,14.46
12:25:44.500000,18.09
12:25:44.515625,20.43
12:25:44.531250,21.72
12:25:44.546875,22.37
12:25:44.562500,22.77
12:25:44.578125,23.13
12:25:44.593750,23.56
12:25:44.609375,24.01
12:25:44.625000,24.46
12:25:44.640625,24.91
12:25:44.656250,25.36
12:25:44.671875,25.80
12:25:44.687500,26.21
12:25:44.703125,26.54
12:25:44.718750,26.78
12:25:44.734375,26.95
12:25:44.750000,27.03
12:25:44.765625,26.99
12:25:44.781250,26.72
12:25:44.796875,26.08
12:25:44.812500,24.93
12:25:44.828125,23.23
12:25:44.843750,20.98
12:25:44.859375,18.33
12:25:44.875000,15.49
12:25:44.890625,12.68
12:25:44.906250,10.10
12:25:44.921875,7.82
12:25:44.937500,5.79
12:25:44.953125,3.88
12:25:44.968750,1.90
12:25:44.984375,-0.24
12:25:45,-2.56
12:25:45.015625,-5.03
12:25:45.031250,-7.63
12:25:45.046875,-10.39
12:25:45.062500,-13.37
12:25:45.078125,-16.58
12:25:45.093750,-19.88
12:25:45.109375,-23.06
12:25:45.125000,-25.92
12:25:45.140625,-28.44
12:25:45.156250,-30.84
12:25:45.171875,-33.52
12:25:45.187500,-36.86
12:25:45.203125,-40.93
12:25:45.218750,-45.43
12:25:45.234375,-49.56
12:25:45.250000,-52.30
12:25:45.265625,-52.67
12:25:45.281250,-50.11
12:25:45.296875,-44.66
12:25:45.312500,-36.98
12:25:45.328125,-28.20
12:25:45.343750,-19.55
12:25:45.359375,-12.05
12:25:45.375000,-6.15
12:25:45.390625,-1.72
12:25:45.406250,1.81
12:25:45.421875,5.12
12:25:45.437500,8.69
12:25:45.453125,12.57
12:25:45.468750,16.37
12:25:45.484375,19.51
12:25:45.500000,21.54
12:25:45.515625,22.46
12:25:45.531250,22.79
12:25:45.546875,23.31
12:25:45.562500,24.76
12:25:45.578125,27.47
12:25:45.593750,31.19
12:25:45.609375,35.38
12:25:45.625000,39.51
12:25:45.640625,43.38
12:25:45.656250,47.23
12:25:45.671875,51.42
12:25:45.687500,56.06
12:25:45.703125,60.68
12:25:45.718750,64.68
12:25:45.734375,68.03
12:25:45.750000,71.76
12:25:45.765625,77.55
12:25:45.781250,86.51
12:25:45.796875,98.00
12:25:45.812500,109.21
12:25:45.828125,116.36
12:25:45.843750,116.45
12:25:45.859375,108.84
12:25:45.875000,95.12
12:25:45.890625,77.56
12:25:45.906250,57.17
12:25:45.921875,32.90
12:25:45.937500,2.71
12:25:45.953125,-34.27
12:25:45.968750,-75.91
12:25:45.984375,-117.18
12:25:46,-152.16
12:25:46.015625,-176.82
12:25:46.031250,-190.83
12:25:46.046875,-197.34
12:25:46.062500,-201.07
12:25:46.078125,-205.96
12:25:46.093750,-213.94
12:25:46.109375,-224.80
12:25:46.125000,-237.14
12:25:46.140625,-249.44
12:25:46.156250,-260.47
12:25:46.171875,-269.17
12:25:46.187500,-274.22
12:25:46.203125,-273.93
12:25:46.218750,-266.58
12:25:46.234375,-251.04
12:25:46.250000,-227.34
12:25:46.265625,-196.92
12:25:46.281250,-162.35
12:25:46.296875,-126.67
12:25:46.312500,-92.74
12:25:46.328125,-62.61
12:25:46.343750,-37.36
12:25:46.359375,-17.14
12:25:46.375000,-1.42
12:25:46.390625,10.67
12:25:46.406250,20.15
12:25:46.421875,27.97
12:25:46.437500,34.96
12:25:46.453125,41.70
12:25:46.468750,48.47
12:25:46.484375,55.27
12:25:46.500000,61.96
12:25:46.515625,68.34
12:25:46.531250,74.36
12:25:46.546875,80.06
12:25:46.562500,85.48
12:25:46.578125,90.51
12:25:46.593750,94.84
12:25:46.609375,98.00
12:25:46.625000,99.52
12:25:46.640625,99.20
12:25:46.656250,97.13
12:25:46.671875,93.68
12:25:46.687500,89.37
12:25:46.703125,84.64
12:25:46.718750,79.77
12:25:46.734375,74.78
12:25:46.750000,69.50
12:25:46.765625,63.67
12:25:46.781250,57.04
12:25:46.796875,49.49
12:25:46.812500,41.13
12:25:46.828125,32.28
12:25:46.843750,23.35
12:25:46.859375,14.81
12:25:46.875000,6.91
12:25:46.890625,-0.33
12:25:46.906250,-7.19
12:25:46.921875,-14.16
12:25:46.937500,-21.83
12:25:46.953125,-30.64
12:25:46.968750,-40.61
12:25:46.984375,-51.07
12:25:47,-60.61
12:25:47.015625,-67.30
12:25:47.031250,-69.22
12:25:47.046875,-65.11
12:25:47.062500,-54.79
12:25:47.078125,-39.24
12:25:47.093750,-20.28
12:25:47.109375,0.07
12:25:47.125000,20.11
12:25:47.140625,38.70
12:25:47.156250,55.18
12:25:47.171875,69.15
12:25:47.187500,80.27
12:25:47.203125,88.20
12:25:47.218750,92.77
12:25:47.234375,94.16
12:25:47.250000,92.97
12:25:47.265625,90.09
12:25:47.281250,86.51
12:25:47.296875,83.01
12:25:47.312500,80.12
12:25:47.328125,78.00
12:25:47.343750,76.61
12:25:47.359375,75.77
12:25:47.375000,75.28
12:25:47.390625,74.98
12:25:47.406250,74.77
12:25:47.421875,74.56
12:25:47.437500,74.28
12:25:47.453125,73.74
12:25:47.468750,72.69
12:25:47.484375,70.72
12:25:47.500000,67.50
12:25:47.515625,62.88
12:25:47.531250,57.01
12:25:47.546875,50.33
12:25:47.562500,43.42
12:25:47.578125,36.81
12:25:47.593750,30.76
12:25:47.609375,25.21
12:25:47.625000,19.90
12:25:47.640625,14.45
12:25:47.656250,8.59
12:25:47.671875,2.21
12:25:47.687500,-4.61
12:25:47.703125,-11.59
12:25:47.718750,-18.38
12:25:47.734375,-24.63
12:25:47.750000,-30.17
12:25:47.765625,-35.11
12:25:47.781250,-39.82
12:25:47.796875,-44.91
12:25:47.812500,-50.97
12:25:47.828125,-58.36
12:25:47.843750,-66.93
12:25:47.859375,-75.90
12:25:47.875000,-83.90
12:25:47.890625,-89.13
12:25:47.906250,-89.85
12:25:47.921875,-84.75
12:25:47.937500,-73.46
12:25:47.953125,-56.63
12:25:47.968750,-35.87
12:25:47.984375,-13.32
12:25:48,8.80
12:25:48.015625,28.71
12:25:48.031250,45.24
12:25:48.046875,57.88
12:25:48.062500,66.66
12:25:48.078125,71.90
12:25:48.093750,74.16
12:25:48.109375,74.15
12:25:48.125000,72.62
12:25:48.140625,70.35
12:25:48.156250,68.01
12:25:48.171875,66.08
12:25:48.187500,64.75
12:25:48.203125,63.94
12:25:48.218750,63.39
12:25:48.234375,62.75
12:25:48.250000,61.74
12:25:48.265625,60.18
12:25:48.281250,58.02
12:25:48.296875,55.35
12:25:48.312500,52.33
12:25:48.328125,49.16
12:25:48.343750,45.98
12:25:48.359375,42.74
12:25:48.375000,39.22
12:25:48.390625,35.14
12:25:48.406250,30.26
12:25:48.421875,24.62
12:25:48.437500,18.51
12:25:48.453125,12.46
12:25:48.468750,6.95
12:25:48.484375,2.23
12:25:48.500000,-1.79
12:25:48.515625,-5.51
12:25:48.531250,-9.39
12:25:48.546875,-13.72
12:25:48.562500,-18.48
12:25:48.578125,-23.36
12:25:48.593750,-27.90
12:25:48.609375,-31.70
12:25:48.625000,-34.53
12:25:48.640625,-36.40
12:25:48.656250,-37.46
12:25:48.671875,-37.96
12:25:48.687500,-38.16
12:25:48.703125,-38.34
12:25:48.718750,-38.88
12:25:48.734375,-40.27
12:25:48.750000,-42.91
12:25:48.765625,-46.96
12:25:48.781250,-51.95
12:25:48.796875,-56.76
12:25:48.812500,-59.67
12:25:48.828125,-58.94
12:25:48.843750,-53.36
12:25:48.859375,-42.73
12:25:48.875000,-27.98
12:25:48.890625,-10.88
12:25:48.906250,6.56
12:25:48.921875,22.64
12:25:48.937500,36.36
12:25:48.953125,47.33
12:25:48.968750,55.62
12:25:48.984375,61.39
12:25:49,64.80
12:25:49.015625,65.97
12:25:49.031250,65.18
12:25:49.046875,62.94
12:25:49.062500,59.90
12:25:49.078125,56.69
12:25:49.093750,53.75
12:25:49.109375,51.16
12:25:49.125000,48.80
12:25:49.140625,46.42
12:25:49.156250,43.82
12:25:49.171875,40.97
12:25:49.187500,37.99
12:25:49.203125,35.07
12:25:49.218750,32.33
12:25:49.234375,29.76
12:25:49.250000,27.17
12:25:49.265625,24.25
12:25:49.281250,20.74
12:25:49.296875,16.45
12:25:49.312500,11.47
12:25:49.328125,6.11
12:25:49.343750,0.78
12:25:49.359375,-4.14
12:25:49.375000,-8.45
12:25:49.390625,-12.16
12:25:49.406250,-15.45
12:25:49.421875,-18.52
12:25:49.437500,-21.55
12:25:49.453125,-24.67
12:25:49.468750,-27.95
12:25:49.484375,-31.44
12:25:49.500000,-35.14
12:25:49.515625,-38.92
12:25:49.531250,-42.58
12:25:49.546875,-45.94
12:25:49.562500,-48.94
12:25:49.578125,-51.79
12:25:49.593750,-54.96
12:25:49.609375,-58.95
12:25:49.625000,-64.06
12:25:49.640625,-70.05
12:25:49.656250,-76.05
12:25:49.671875,-80.62
12:25:49.687500,-82.19
12:25:49.703125,-79.45
12:25:49.718750,-71.79
12:25:49.734375,-59.49
12:25:49.750000,-43.60
12:25:49.765625,-25.69
12:25:49.781250,-7.43
12:25:49.796875,9.72
12:25:49.812500,24.67
12:25:49.828125,36.70
12:25:49.843750,45.46
12:25:49.859375,50.80
12:25:49.875000,52.86
12:25:49.890625,52.07
12:25:49.906250,49.12
12:25:49.921875,44.92
12:25:49.937500,40.44
12:25:49.953125,36.44
12:25:49.968750,33.38
12:25:49.984375,31.35
12:25:50,30.16
12:25:50.015625,29.51
12:25:50.031250,29.20
12:25:50.046875,29.09
12:25:50.062500,29.14
12:25:50.078125,29.24
12:25:50.093750,29.13
12:25:50.109375,28.50
12:25:50.125000,27.04
12:25:50.140625,24.62
12:25:50.156250,21.35
12:25:50.171875,17.56
12:25:50.187500,13.60
12:25:50.203125,9.72
12:25:50.218750,5.98
12:25:50.234375,2.22
12:25:50.250000,-1.77
12:25:50.265625,-6.11
12:25:50.281250,-10.73
12:25:50.296875,-15.40
12:25:50.312500,-19.81
12:25:50.328125,-23.77
12:25:50.343750,-27.21
12:25:50.359375,-30.24
12:25:50.375000,-33.15
12:25:50.390625,-36.23
12:25:50.406250,-39.75
12:25:50.421875,-43.80
12:25:50.437500,-48.06
12:25:50.453125,-51.81
12:25:50.468750,-53.94
12:25:50.484375,-53.27
12:25:50.500000,-48.94
12:25:50.515625,-40.80
12:25:50.531250,-29.56
12:25:50.546875,-16.57
12:25:50.562500,-3.40
12:25:50.578125,8.66
12:25:50.593750,18.83
12:25:50.609375,26.91
12:25:50.625000,33.05
12:25:50.640625,37.48
12:25:50.656250,40.42
12:25:50.671875,42.00
12:25:50.687500,42.36
12:25:50.703125,41.64
12:25:50.718750,39.98
12:25:50.734375,37.55
12:25:50.750000,34.52
12:25:50.765625,31.13
12:25:50.781250,27.76
12:25:50.796875,24.88
12:25:50.812500,22.95
12:25:50.828125,22.32
12:25:50.843750,23.01
12:25:50.859375,24.71
12:25:50.875000,26.85
12:25:50.890625,28.78
12:25:50.906250,30.02
12:25:50.921875,30.30
12:25:50.937500,29.60
12:25:50.953125,28.08
12:25:50.968750,25.90
12:25:50.984375,23.15
12:25:51,19.89
12:25:51.015625,16.11
12:25:51.031250,11.85
12:25:51.046875,7.17
12:25:51.062500,2.23
12:25:51.078125,-2.76
12:25:51.093750,-7.52
12:25:51.109375,-11.70
12:25:51.125000,-15.07
12:25:51.140625,-17.53
12:25:51.156250,-19.26
12:25:51.171875,-20.76
12:25:51.187500,-22.62
12:25:51.203125,-25.46
12:25:51.218750,-29.63
12:25:51.234375,-35.07
12:25:51.250000,-41.31
12:25:51.265625,-47.40
12:25:51.281250,-52.16
12:25:51.296875,-54.36
12:25:51.312500,-53.07
12:25:51.328125,-47.87
12:25:51.343750,-39.04
12:25:51.359375,-27.40
12:25:51.375000,-14.01
12:25:51.390625,0.18
12:25:51.406250,14.60
12:25:51.421875,28.99
12:25:51.437500,43.25
12:25:51.453125,57.02
12:25:51.468750,69.65
12:25:51.484375,80.24
12:25:51.500000,88.09
12:25:51.515625,93.00
12:25:51.531250,95.47
12:25:51.546875,96.55
12:25:51.562500,97.37
12:25:51.578125,98.69
12:25:51.593750,100.57
12:25:51.609375,102.43
12:25:51.625000,103.27
12:25:51.640625,102.07
12:25:51.656250,98.14
12:25:51.671875,91.23
12:25:51.687500,81.50
12:25:51.703125,69.39
12:25:51.718750,55.60
12:25:51.734375,41.10
12:25:51.750000,27.14
12:25:51.765625,15.13
12:25:51.781250,6.24
12:25:51.796875,1.01
12:25:51.812500,-1.05
12:25:51.828125,-1.60
12:25:51.843750,-3.27
12:25:51.859375,-9.45
12:25:51.875000,-23.91
12:25:51.890625,-50.08
12:25:51.906250,-89.70
12:25:51.921875,-141.46
12:25:51.937500,-199.77
12:25:51.953125,-255.20
12:25:51.968750,-296.52
12:25:51.984375,-314.05
12:25:52,-302.57
12:25:52.015625,-262.57
12:25:52.031250,-199.46
12:25:52.046875,-121.51
12:25:52.062500,-38.01
12:25:52.078125,41.79
12:25:52.093750,108.92
12:25:52.109375,155.21
12:25:52.125000,174.93
12:25:52.140625,167.14
12:25:52.156250,137.41
12:25:52.171875,97.28
12:25:52.187500,60.76
12:25:52.203125,39.26
12:25:52.218750,37.34
12:25:52.234375,51.80
12:25:52.250000,74.32
12:25:52.265625,95.97
12:25:52.281250,111.18
12:25:52.296875,119.01
12:25:52.312500,121.69
12:25:52.328125,122.03
12:25:52.343750,121.63
12:25:52.359375,121.08
12:25:52.375000,121.47
12:25:52.390625,125.45
12:25:52.406250,136.76
12:25:52.421875,157.90
12:25:52.437500,187.40
12:25:52.453125,219.00
12:25:52.468750,243.41
12:25:52.484375,252.00
12:25:52.500000,240.40
12:25:52.515625,209.91
12:25:52.531250,166.26
12:25:52.546875,116.54
12:25:52.562500,66.25
12:25:52.578125,17.96
12:25:52.593750,-28.17
12:25:52.609375,-72.77
12:25:52.625000,-115.81
12:25:52.640625,-156.22
12:25:52.656250,-192.46
12:25:52.671875,-223.60
12:25:52.687500,-249.87
12:25:52.703125,-272.33
12:25:52.718750,-291.88
12:25:52.734375,-308.23
12:25:52.750000,-319.34
12:25:52.765625,-322.03
12:25:52.781250,-313.18
12:25:52.796875,-291.10
12:25:52.812500,-256.42
12:25:52.828125,-212.12
12:25:52.843750,-162.88
12:25:52.859375,-114.03
12:25:52.875000,-70.61
12:25:52.890625,-36.74
12:25:52.906250,-15.27
12:25:52.921875,-7.57
12:25:52.937500,-13.24
12:25:52.953125,-29.75
12:25:52.968750,-52.46
12:25:52.984375,-75.19
12:25:53,-91.56
12:25:53.015625,-96.76
12:25:53.031250,-88.91
12:25:53.046875,-69.49
12:25:53.062500,-42.34
12:25:53.078125,-11.96
12:25:53.093750,18.22
12:25:53.109375,46.59
12:25:53.125000,73.03
12:25:53.140625,97.76
12:25:53.156250,120.52
12:25:53.171875,140.27
12:25:53.187500,155.76
12:25:53.203125,166.22
12:25:53.218750,171.73
12:25:53.234375,172.81
12:25:53.250000,169.82
12:25:53.265625,162.65
12:25:53.281250,150.97
12:25:53.296875,135.05
12:25:53.312500,116.32
12:25:53.328125,97.38
12:25:53.343750,81.13
12:25:53.359375,69.67
12:25:53.375000,63.44
12:25:53.390625,61.07
12:25:53.406250,60.11
12:25:53.421875,58.03
12:25:53.437500,53.22
12:25:53.453125,45.48
12:25:53.468750,35.91
12:25:53.484375,26.37
12:25:53.500000,18.77
12:25:53.515625,14.48
12:25:53.531250,14.01
12:25:53.546875,16.96
12:25:53.562500,22.20
12:25:53.578125,28.01
12:25:53.593750,32.55
12:25:53.609375,34.15
12:25:53.625000,31.70
12:25:53.640625,24.95
12:25:53.656250,14.63
12:25:53.671875,2.39
12:25:53.687500,-9.34
12:25:53.703125,-17.82
12:25:53.718750,-20.48
12:25:53.734375,-15.48
12:25:53.750000,-2.25
12:25:53.765625,18.39
12:25:53.781250,44.46
12:25:53.796875,73.29
12:25:53.812500,102.25
12:25:53.828125,129.33
12:25:53.843750,153.45
12:25:53.859375,174.42
12:25:53.875000,192.76
12:25:53.890625,209.35
12:25:53.906250,225.11
12:25:53.921875,240.60
12:25:53.937500,255.67
12:25:53.953125,269.25
12:25:53.968750,279.41
12:25:53.984375,283.95
12:25:54,281.23
12:25:54.015625,270.86
12:25:54.031250,253.99
12:25:54.046875,232.94
12:25:54.062500,210.45
12:25:54.078125,188.88
12:25:54.093750,169.76
12:25:54.109375,153.86
12:25:54.125000,141.48
12:25:54.140625,132.71
12:25:54.156250,127.47
12:25:54.171875,125.35
12:25:54.187500,125.36
12:25:54.203125,126.02
12:25:54.218750,125.69
12:25:54.234375,123.07
12:25:54.250000,117.57
12:25:54.265625,109.39
12:25:54.281250,99.20
12:25:54.296875,87.65
12:25:54.312500,74.88
12:25:54.328125,60.37
12:25:54.343750,43.19
12:25:54.359375,22.52
12:25:54.375000,-1.82
12:25:54.390625,-29.05
12:25:54.406250,-57.61
12:25:54.421875,-85.72
12:25:54.437500,-112.15
12:25:54.453125,-136.77
12:25:54.468750,-160.63
12:25:54.484375,-185.47
12:25:54.500000,-212.94
12:25:54.515625,-243.79
12:25:54.531250,-277.50
12:25:54.546875,-312.70
12:25:54.562500,-347.66
12:25:54.578125,-381.28
12:25:54.593750,-413.48
12:25:54.609375,-445.23
12:25:54.625000,-478.17
12:25:54.640625,-514.33
12:25:54.656250,-555.85
12:25:54.671875,-604.45
12:25:54.687500,-660.45
12:25:54.703125,-721.50
12:25:54.718750,-781.82
12:25:54.734375,-832.87
12:25:54.750000,-865.56
12:25:54.765625,-873.42
12:25:54.781250,-855.05
12:25:54.796875,-814.65
12:25:54.812500,-760.21
12:25:54.828125,-700.29
12:25:54.843750,-641.21
12:25:54.859375,-585.85
12:25:54.875000,-534.44
12:25:54.890625,-486.27
12:25:54.906250,-441.11
12:25:54.921875,-399.43
12:25:54.937500,-361.69
12:25:54.953125,-327.44
12:25:54.968750,-295.19
12:25:54.984375,-263.07
12:25:55,-229.89
12:25:55.015625,-195.79
12:25:55.031250,-161.99
12:25:55.046875,-130.32
12:25:55.062500,-101.93
12:25:55.078125,-76.75
12:25:55.093750,-53.51
12:25:55.109375,-30.32
12:25:55.125000,-5.69
12:25:55.140625,20.83
12:25:55.156250,48.39
12:25:55.171875,75.42
12:25:55.187500,100.41
12:25:55.203125,122.83
12:25:55.218750,143.37
12:25:55.234375,163.60
12:25:55.250000,185.14
12:25:55.265625,208.82
12:25:55.281250,234.24
12:25:55.296875,260.08
12:25:55.312500,284.81
12:25:55.328125,307.57
12:25:55.343750,328.65
12:25:55.359375,349.33
12:25:55.375000,371.32
12:25:55.390625,396.14
12:25:55.406250,424.72
12:25:55.421875,457.22
12:25:55.437500,492.74
12:25:55.453125,529.12
12:25:55.468750,562.77
12:25:55.484375,589.00
12:25:55.500000,602.89
12:25:55.515625,600.69
12:25:55.531250,580.78
12:25:55.546875,544.05
12:25:55.562500,493.25
12:25:55.578125,431.76
12:25:55.593750,362.45
12:25:55.609375,287.23
12:25:55.625000,207.60
12:25:55.640625,125.71
12:25:55.656250,45.05
12:25:55.671875,-29.65
12:25:55.687500,-93.56
12:25:55.703125,-143.28
12:25:55.718750,-177.72
12:25:55.734375,-197.80
12:25:55.750000,-205.25
12:25:55.765625,-201.16
12:25:55.781250,-185.27
12:25:55.796875,-156.41
12:25:55.812500,-114.22
12:25:55.828125,-60.82
12:25:55.843750,-1.59
12:25:55.859375,55.60
12:25:55.875000,102.62
12:25:55.890625,133.78
12:25:55.906250,147.87
12:25:55.921875,148.55
12:25:55.937500,142.76
12:25:55.953125,137.91
12:25:55.968750,138.98
12:25:55.984375,146.86
12:25:56,158.56
12:25:56.015625,169.37
12:25:56.031250,175.67
12:25:56.046875,176.80
12:25:56.062500,175.30
12:25:56.078125,175.17
12:25:56.093750,179.47
12:25:56.109375,188.49
12:25:56.125000,199.44
12:25:56.140625,207.39
12:25:56.156250,207.04
12:25:56.171875,194.37
12:25:56.187500,168.08
12:25:56.203125,130.54
12:25:56.218750,88.01
12:25:56.234375,49.66
12:25:56.250000,25.06
12:25:56.265625,20.69
12:25:56.281250,36.93
12:25:56.296875,67.31
12:25:56.312500,100.49
12:25:56.328125,124.42
12:25:56.343750,130.74
12:25:56.359375,117.04
12:25:56.375000,86.33
12:25:56.390625,44.27
12:25:56.406250,-3.96
12:25:56.421875,-55.55
12:25:56.437500,-109.82
12:25:56.453125,-166.38
12:25:56.468750,-223.33
12:25:56.484375,-276.88
12:25:56.500000,-323.12
12:25:56.515625,-360.29
12:25:56.531250,-390.08
12:25:56.546875,-416.68
12:25:56.562500,-443.91
12:25:56.578125,-471.90
12:25:56.593750,-495.73
12:25:56.609375,-507.18
12:25:56.625000,-498.51
12:25:56.640625,-466.60
12:25:56.656250,-414.64
12:25:56.671875,-350.74
12:25:56.687500,-284.11
12:25:56.703125,-221.20
12:25:56.718750,-163.51
12:25:56.734375,-108.15
12:25:56.750000,-50.23
12:25:56.765625,14.09
12:25:56.781250,85.30
12:25:56.796875,159.83
12:25:56.812500,230.82
12:25:56.828125,290.00
12:25:56.843750,330.31
12:25:56.859375,348.08
12:25:56.875000,343.89
12:25:56.890625,321.80
12:25:56.906250,287.56
12:25:56.921875,246.66
12:25:56.937500,203.32
12:25:56.953125,160.49
12:25:56.968750,120.69
12:25:56.984375,86.41
12:25:57,59.83
12:25:57.015625,41.93
12:25:57.031250,32.14
12:25:57.046875,28.57
12:25:57.062500,29.01
12:25:57.078125,31.70
12:25:57.093750,35.24
12:25:57.109375,37.81
12:25:57.125000,36.42
12:25:57.140625,26.87
12:25:57.156250,4.49
12:25:57.171875,-34.23
12:25:57.187500,-90.01
12:25:57.203125,-159.66
12:25:57.218750,-236.06
12:25:57.234375,-309.30
12:25:57.250000,-368.81
12:25:57.265625,-405.85
12:25:57.281250,-415.76
12:25:57.296875,-399.03
12:25:57.312500,-360.76
12:25:57.328125,-308.71
12:25:57.343750,-250.87
12:25:57.359375,-193.17
12:25:57.375000,-138.72
12:25:57.390625,-88.14
12:25:57.406250,-40.73
12:25:57.421875,4.62
12:25:57.437500,49.09
12:25:57.453125,94.23
12:25:57.468750,142.19
12:25:57.484375,195.37
12:25:57.500000,255.20
12:25:57.515625,320.70
12:25:57.531250,387.72
12:25:57.546875,449.44
12:25:57.562500,498.15
12:25:57.578125,528.01
12:25:57.593750,537.02
12:25:57.609375,527.63
12:25:57.625000,505.44
12:25:57.640625,476.80
12:25:57.656250,446.53
12:25:57.671875,416.99
12:25:57.687500,388.59
12:25:57.703125,361.30
12:25:57.718750,335.84
12:25:57.734375,313.77
12:25:57.750000,296.64
12:25:57.765625,284.80
12:25:57.781250,276.79
12:25:57.796875,269.83
12:25:57.812500,261.08
12:25:57.828125,248.98
12:25:57.843750,233.85
12:25:57.859375,217.80
12:25:57.875000,203.49
12:25:57.890625,192.97
12:25:57.906250,186.71
12:25:57.921875,183.40
12:25:57.937500,180.54
12:25:57.953125,175.38
12:25:57.968750,165.80
12:25:57.984375,150.89
12:25:58,131.06
12:25:58.015625,107.54
12:25:58.031250,81.84
12:25:58.046875,55.16
12:25:58.062500,28.16
12:25:58.078125,0.90
12:25:58.093750,-26.92
12:25:58.109375,-55.65
12:25:58.125000,-85.32
12:25:58.140625,-115.54
12:25:58.156250,-145.56
12:25:58.171875,-174.45
12:25:58.187500,-201.29
12:25:58.203125,-225.21
12:25:58.218750,-245.41
12:25:58.234375,-261.10
12:25:58.250000,-271.64
12:25:58.265625,-276.76
12:25:58.281250,-276.75
12:25:58.296875,-272.58
12:25:58.312500,-265.62
12:25:58.328125,-257.27
12:25:58.343750,-248.56
12:25:58.359375,-240.02
12:25:58.375000,-231.79
12:25:58.390625,-223.86
12:25:58.406250,-216.17
12:25:58.421875,-208.59
12:25:58.437500,-200.68
12:25:58.453125,-191.48
12:25:58.468750,-179.73
12:25:58.484375,-164.39
12:25:58.500000,-145.24
12:25:58.515625,-123.26
12:25:58.531250,-100.52
12:25:58.546875,-79.42
12:25:58.562500,-61.76
12:25:58.578125,-47.93
12:25:58.593750,-36.85
12:25:58.609375,-26.53
12:25:58.625000,-15.26
12:25:58.640625,-2.58
12:25:58.656250,10.34
12:25:58.671875,21.33
12:25:58.687500,28.40
12:25:58.703125,30.53
12:25:58.718750,27.71
12:25:58.734375,20.41
12:25:58.750000,8.57
12:25:58.765625,-8.39
12:25:58.781250,-31.08
12:25:58.796875,-59.12
12:25:58.812500,-90.59
12:25:58.828125,-122.71
12:25:58.843750,-153.49
12:25:58.859375,-183.39
12:25:58.875000,-215.59
12:25:58.890625,-254.19
12:25:58.906250,-301.19
12:25:58.921875,-353.87
12:25:58.937500,-404.43
12:25:58.953125,-442.28
12:25:58.968750,-458.02
12:25:58.984375,-446.98
12:25:59,-410.42
12:25:59.015625,-354.06
12:25:59.031250,-285.20
12:25:59.046875,-210.12
12:25:59.062500,-133.58
12:25:59.078125,-60.16
12:25:59.093750,3.98
12:25:59.109375,51.01
12:25:59.125000,73.53
12:25:59.140625,68.31
12:25:59.156250,39.27
12:25:59.171875,-2.43
12:25:59.187500,-41.89
12:25:59.203125,-66.49
12:25:59.218750,-71.38
12:25:59.234375,-61.38
12:25:59.250000,-48.41
12:25:59.265625,-45.29
12:25:59.281250,-59.30
12:25:59.296875,-88.92
12:25:59.312500,-125.09
12:25:59.328125,-156.10
12:25:59.343750,-173.16
12:25:59.359375,-173.69
12:25:59.375000,-161.04
12:25:59.390625,-141.55
12:25:59.406250,-120.85
12:25:59.421875,-101.88
12:25:59.437500,-84.94
12:25:59.453125,-69.37
12:25:59.468750,-55.20
12:25:59.484375,-43.58
12:25:59.500000,-36.09
12:25:59.515625,-33.42
12:25:59.531250,-34.55
12:25:59.546875,-36.81
12:25:59.562500,-36.86
12:25:59.578125,-32.13
12:25:59.593750,-22.06
12:25:59.609375,-8.54
12:25:59.625000,4.83
12:25:59.640625,14.10
12:25:59.656250,16.73
12:25:59.671875,12.64
12:25:59.687500,4.24
12:25:59.703125,-4.64
12:25:59.718750,-10.25
12:25:59.734375,-10.15
12:25:59.750000,-3.60
12:25:59.765625,8.86
12:25:59.781250,26.12
12:25:59.796875,47.10
12:25:59.812500,70.81
12:25:59.828125,96.19
12:25:59.843750,121.82
12:25:59.859375,146.01
12:25:59.875000,167.13
12:25:59.890625,184.00
12:25:59.906250,196.22
12:25:59.921875,204.10
12:25:59.937500,208.33
12:25:59.953125,209.77
12:25:59.968750,209.22
12:25:59.984375,207.42
12:26:00,205.18
12:26:00.015625,203.25
12:26:00.031250,202.23
12:26:00.046875,202.26
12:26:00.062500,202.82
12:26:00.078125,202.81
12:26:00.093750,200.86
12:26:00.109375,195.80
12:26:00.125000,187.16
12:26:00.140625,175.40
12:26:00.156250,161.78
12:26:00.171875,147.87
12:26:00.187500,135.05
12:26:00.203125,123.98
12:26:00.218750,114.52
12:26:00.234375,105.83
12:26:00.250000,96.79
12:26:00.265625,86.46
12:26:00.281250,74.30
12:26:00.296875,60.31
12:26:00.312500,44.93
12:26:00.328125,28.88
12:26:00.343750,12.92
12:26:00.359375,-2.30
12:26:00.375000,-16.53
12:26:00.390625,-29.96
12:26:00.406250,-43.19
12:26:00.421875,-56.79
12:26:00.437500,-70.83
12:26:00.453125,-84.41
12:26:00.468750,-95.68
12:26:00.484375,-102.14
12:26:00.500000,-101.39
12:26:00.515625,-91.78
12:26:00.531250,-72.82
12:26:00.546875,-45.23
12:26:00.562500,-10.90
12:26:00.578125,27.38
12:26:00.593750,66.16
12:26:00.609375,101.74
12:26:00.625000,130.66
12:26:00.640625,150.35
12:26:00.656250,159.63
12:26:00.671875,158.82
12:26:00.687500,149.71
12:26:00.703125,135.02
12:26:00.718750,117.89
12:26:00.734375,101.27
12:26:00.750000,87.42
12:26:00.765625,77.54
12:26:00.781250,71.58
12:26:00.796875,68.31
12:26:00.812500,65.73
12:26:00.828125,61.78
12:26:00.843750,54.97
12:26:00.859375,44.90
12:26:00.875000,32.18
12:26:00.890625,18.07
12:26:00.906250,3.96
12:26:00.921875,-9.12
12:26:00.937500,-20.61
12:26:00.953125,-30.34
12:26:00.968750,-38.35
12:26:00.984375,-44.61
12:26:01,-48.97
12:26:01.015625,-51.23
12:26:01.031250,-51.36
12:26:01.046875,-49.57
12:26:01.062500,-46.45
12:26:01.078125,-42.70
12:26:01.093750,-38.97
12:26:01.109375,-35.63
12:26:01.125000,-32.86
12:26:01.140625,-30.67
12:26:01.156250,-29.17
12:26:01.171875,-28.55
12:26:01.187500,-29.04
12:26:01.203125,-30.77
12:26:01.218750,-33.58
12:26:01.234375,-37.05
12:26:01.250000,-40.69
12:26:01.265625,-44.17
12:26:01.281250,-47.56
12:26:01.296875,-51.32
12:26:01.312500,-56.19
12:26:01.328125,-63.01
12:26:01.343750,-72.56
12:26:01.359375,-85.45
12:26:01.375000,-101.85
12:26:01.390625,-121.22
12:26:01.406250,-142.06
12:26:01.421875,-161.94
12:26:01.437500,-177.94
12:26:01.453125,-187.39
12:26:01.468750,-188.60
12:26:01.484375,-181.31
12:26:01.500000,-166.51
12:26:01.515625,-145.93
12:26:01.531250,-121.41
12:26:01.546875,-94.58
12:26:01.562500,-66.85
12:26:01.578125,-39.56
12:26:01.593750,-14.03
12:26:01.609375,8.68
12:26:01.625000,27.99
12:26:01.640625,44.05
12:26:01.656250,57.59
12:26:01.671875,69.57
12:26:01.687500,80.70
12:26:01.703125,91.14
12:26:01.718750,100.44
12:26:01.734375,107.78
12:26:01.750000,112.30
12:26:01.765625,113.59
12:26:01.781250,111.93
12:26:01.796875,108.36
12:26:01.812500,104.44
12:26:01.828125,101.75
12:26:01.843750,101.27
12:26:01.859375,103.11
12:26:01.875000,106.50
12:26:01.890625,110.19
12:26:01.906250,113.00
12:26:01.921875,114.25
12:26:01.937500,113.81
12:26:01.953125,111.89
12:26:01.968750,108.75
12:26:01.984375,104.45
12:26:02,98.93
12:26:02.015625,92.19
12:26:02.031250,84.46
12:26:02.046875,76.19
12:26:02.062500,67.94
12:26:02.078125,60.14
12:26:02.093750,52.80
12:26:02.109375,45.66
12:26:02.125000,38.27
12:26:02.140625,30.41
12:26:02.156250,22.19
12:26:02.171875,14.15
12:26:02.187500,6.91
12:26:02.203125,0.87
12:26:02.218750,-4.17
12:26:02.234375,-9.03
12:26:02.250000,-14.85
12:26:02.265625,-22.65
12:26:02.281250,-32.79
12:26:02.296875,-44.71
12:26:02.312500,-57.00
12:26:02.328125,-67.73
12:26:02.343750,-75.02
12:26:02.359375,-77.43
12:26:02.375000,-74.32
12:26:02.390625,-65.79
12:26:02.406250,-52.56
12:26:02.421875,-35.73
12:26:02.437500,-16.51
12:26:02.453125,3.83
12:26:02.468750,24.13
12:26:02.484375,43.36
12:26:02.500000,60.68
12:26:02.515625,75.51
12:26:02.531250,87.51
12:26:02.546875,96.57
12:26:02.562500,102.68
12:26:02.578125,105.86
12:26:02.593750,106.05
12:26:02.609375,103.22
12:26:02.625000,97.51
12:26:02.640625,89.43
12:26:02.656250,79.89
12:26:02.671875,70.12
12:26:02.687500,61.23
12:26:02.703125,53.85
12:26:02.718750,47.75
12:26:02.734375,42.02
12:26:02.750000,35.47
12:26:02.765625,27.29
12:26:02.781250,17.39
12:26:02.796875,6.24
12:26:02.812500,-5.69
12:26:02.828125,-18.48
12:26:02.843750,-32.75
12:26:02.859375,-49.14
12:26:02.875000,-67.41
12:26:02.890625,-86.07
12:26:02.906250,-102.68
12:26:02.921875,-114.95
12:26:02.937500,-121.83
12:26:02.953125,-124.01
12:26:02.968750,-123.54
12:26:02.984375,-122.70
12:26:03,-122.96
12:26:03.015625,-124.44
12:26:03.031250,-126.28
12:26:03.046875,-127.38
12:26:03.062500,-127.10
12:26:03.078125,-125.72
12:26:03.093750,-124.28
12:26:03.109375,-124.25
12:26:03.125000,-127.04
12:26:03.140625,-133.64
12:26:03.156250,-144.52
12:26:03.171875,-159.54
12:26:03.187500,-177.91
12:26:03.203125,-198.00
12:26:03.218750,-217.09
12:26:03.234375,-231.31
12:26:03.250000,-236.11
12:26:03.265625,-227.23
12:26:03.281250,-202.10
12:26:03.296875,-160.87
12:26:03.312500,-106.91
12:26:03.328125,-46.05
12:26:03.343750,14.89
12:26:03.359375,69.82
12:26:03.375000,114.71
12:26:03.390625,148.16
12:26:03.406250,171.10
12:26:03.421875,185.85
12:26:03.437500,194.93
12:26:03.453125,199.86
12:26:03.468750,200.44
12:26:03.484375,194.83
12:26:03.500000,180.65
12:26:03.515625,156.74
12:26:03.531250,124.86
12:26:03.546875,90.41
12:26:03.562500,61.12
12:26:03.578125,44.32
12:26:03.593750,43.81
12:26:03.609375,57.80
12:26:03.625000,79.48
12:26:03.640625,100.02
12:26:03.656250,112.67
12:26:03.671875,115.76
12:26:03.687500,112.98
12:26:03.703125,110.68
12:26:03.718750,113.94
12:26:03.734375,123.55
12:26:03.750000,135.48
12:26:03.765625,143.29
12:26:03.781250,141.80
12:26:03.796875,129.90
12:26:03.812500,110.74
12:26:03.828125,89.50
12:26:03.843750,70.14
12:26:03.859375,53.12
12:26:03.875000,35.54
12:26:03.890625,13.51
12:26:03.906250,-15.16
12:26:03.921875,-49.36
12:26:03.937500,-85.23
12:26:03.953125,-117.98
12:26:03.968750,-143.91
12:26:03.984375,-161.38
12:26:04,-170.47
12:26:04.015625,-172.01
12:26:04.031250,-166.89
12:26:04.046875,-155.88
12:26:04.062500,-140.17
12:26:04.078125,-121.59
12:26:04.093750,-102.39
12:26:04.109375,-84.50
12:26:04.125000,-68.88
12:26:04.140625,-55.39
12:26:04.156250,-43.26
12:26:04.171875,-31.77
12:26:04.187500,-20.67
12:26:04.203125,-10.04
12:26:04.218750,-0.05
12:26:04.234375,9.38
12:26:04.250000,18.38
12:26:04.265625,26.83
12:26:04.281250,34.24
12:26:04.296875,39.67
12:26:04.312500,42.13
12:26:04.328125,40.91
12:26:04.343750,36.02
12:26:04.359375,28.24
12:26:04.375000,18.78
12:26:04.390625,8.74
12:26:04.406250,-1.49
12:26:04.421875,-12.43
12:26:04.437500,-25.30
12:26:04.453125,-41.26
12:26:04.468750,-60.64
12:26:04.484375,-82.45
12:26:04.500000,-104.52
12:26:04.515625,-124.11
12:26:04.531250,-138.76
12:26:04.546875,-146.83
12:26:04.562500,-147.73
12:26:04.578125,-141.90
12:26:04.593750,-130.51
12:26:04.609375,-115.20
12:26:04.625000,-97.90
12:26:04.640625,-80.47
12:26:04.656250,-64.44
12:26:04.671875,-50.70
12:26:04.687500,-39.41
12:26:04.703125,-30.13
12:26:04.718750,-22.13
12:26:04.734375,-14.55
12:26:04.750000,-6.45
12:26:04.765625,3.19
12:26:04.781250,15.41
12:26:04.796875,30.82
12:26:04.812500,49.14
12:26:04.828125,68.99
12:26:04.843750,88.20
12:26:04.859375,104.67
12:26:04.875000,117.41
12:26:04.890625,127.01
12:26:04.906250,135.40
12:26:04.921875,144.74
12:26:04.937500,156.29
12:26:04.953125,169.61
12:26:04.968750,182.73
12:26:04.984375,193.07
12:26:05,198.56
12:26:05.015625,198.50
12:26:05.031250,193.64
12:26:05.046875,185.72
12:26:05.062500,176.75
12:26:05.078125,168.51
12:26:05.093750,162.26
12:26:05.109375,158.87
12:26:05.125000,158.87
12:26:05.140625,162.35
12:26:05.156250,168.80
12:26:05.171875,177.03
12:26:05.187500,185.52
12:26:05.203125,192.92
12:26:05.218750,198.64
12:26:05.234375,202.96
12:26:05.250000,206.69
12:26:05.265625,210.23
12:26:05.281250,212.75
12:26:05.296875,211.98
12:26:05.312500,204.57
12:26:05.328125,187.24
12:26:05.343750,157.97
12:26:05.359375,116.92
12:26:05.375000,66.47
12:26:05.390625,10.54
12:26:05.406250,-46.44
12:26:05.421875,-100.56
12:26:05.437500,-148.90
12:26:05.453125,-189.53
12:26:05.468750,-221.38
12:26:05.484375,-243.98
12:26:05.500000,-257.63
12:26:05.515625,-263.52
12:26:05.531250,-263.83
12:26:05.546875,-261.40
12:26:05.562500,-259.00
12:26:05.578125,-258.50
12:26:05.593750,-260.43
12:26:05.609375,-263.96
12:26:05.625000,-267.52
12:26:05.640625,-269.56
12:26:05.656250,-269.21
12:26:05.671875,-266.41
12:26:05.687500,-261.59
12:26:05.703125,-255.29
12:26:05.718750,-247.85
12:26:05.734375,-239.37
12:26:05.750000,-229.91
12:26:05.765625,-219.73
12:26:05.781250,-209.31
12:26:05.796875,-199.15
12:26:05.812500,-189.45
12:26:05.828125,-179.81
12:26:05.843750,-169.26
12:26:05.859375,-156.46
12:26:05.875000,-140.07
12:26:05.890625,-119.11
12:26:05.906250,-93.11
12:26:05.921875,-62.06
12:26:05.937500,-26.37
12:26:05.953125,12.95
12:26:05.968750,53.91
12:26:05.984375,93.24
12:26:06,126.51
12:26:06.015625,148.90
12:26:06.031250,156.64
12:26:06.046875,148.25
12:26:06.062500,125.01
12:26:06.078125,90.35
12:26:06.093750,48.60
12:26:06.109375,3.97
12:26:06.125000,-39.69
12:26:06.140625,-78.49
12:26:06.156250,-108.03
12:26:06.171875,-123.74
12:26:06.187500,-122.03
12:26:06.203125,-101.72
12:26:06.218750,-64.65
12:26:06.234375,-15.10
12:26:06.250000,41.86
12:26:06.265625,101.79
12:26:06.281250,161.45
12:26:06.296875,218.32
12:26:06.312500,269.88
12:26:06.328125,313.46
12:26:06.343750,346.93
12:26:06.359375,369.70
12:26:06.375000,383.05
12:26:06.390625,389.47
12:26:06.406250,391.20
12:26:06.421875,389.00
12:26:06.437500,381.96
12:26:06.453125,368.36
12:26:06.468750,346.89
12:26:06.484375,317.61
12:26:06.500000,282.00
12:26:06.515625,242.22
12:26:06.531250,200.15
12:26:06.546875,156.73
12:26:06.562500,111.90
12:26:06.578125,64.83
12:26:06.593750,14.54
12:26:06.609375,-39.67
12:26:06.625000,-97.51
12:26:06.640625,-157.30
12:26:06.656250,-215.71
12:26:06.671875,-268.21
12:26:06.687500,-309.96
12:26:06.703125,-337.06
12:26:06.718750,-347.63
12:26:06.734375,-342.07
12:26:06.750000,-322.35
12:26:06.765625,-290.81
12:26:06.781250,-248.90
12:26:06.796875,-196.54
12:26:06.812500,-132.30
12:26:06.828125,-54.55
12:26:06.843750,36.75
12:26:06.859375,138.39
12:26:06.875000,243.17
12:26:06.890625,340.90
12:26:06.906250,420.93
12:26:06.921875,475.41
12:26:06.937500,501.88
12:26:06.953125,503.85
12:26:06.968750,489.00
12:26:06.984375,465.82
12:26:07,440.35
12:26:07.015625,414.76
12:26:07.031250,388.13
12:26:07.046875,358.73
12:26:07.062500,326.24
12:26:07.078125,292.55
12:26:07.093750,260.87
12:26:07.109375,233.76
12:26:07.125000,211.72
12:26:07.140625,193.00
12:26:07.156250,174.61
12:26:07.171875,153.93
12:26:07.187500,129.77
12:26:07.203125,102.31
12:26:07.218750,72.30
12:26:07.234375,40.47
12:26:07.250000,8.02
12:26:07.265625,-22.14
12:26:07.281250,-44.83
12:26:07.296875,-53.69
12:26:07.312500,-44.13
12:26:07.328125,-16.46
12:26:07.343750,22.73
12:26:07.359375,62.36
12:26:07.375000,91.08
12:26:07.390625,101.92
12:26:07.406250,94.54
12:26:07.421875,74.20
12:26:07.437500,48.21
12:26:07.453125,22.24
12:26:07.468750,-1.63
12:26:07.484375,-24.13
12:26:07.500000,-46.79
12:26:07.515625,-70.14
12:26:07.531250,-93.31
12:26:07.546875,-114.89
12:26:07.562500,-134.41
12:26:07.578125,-152.58
12:26:07.593750,-170.97
12:26:07.609375,-191.10
12:26:07.625000,-213.55
12:26:07.640625,-237.83
12:26:07.656250,-263.22
12:26:07.671875,-289.87
12:26:07.687500,-318.96
12:26:07.703125,-351.98
12:26:07.718750,-388.72
12:26:07.734375,-425.66
12:26:07.750000,-455.71
12:26:07.765625,-469.85
12:26:07.781250,-460.03
12:26:07.796875,-421.85
12:26:07.812500,-356.10
12:26:07.828125,-268.63
12:26:07.843750,-169.18
12:26:07.859375,-69.70
12:26:07.875000,17.41
12:26:07.890625,81.26
12:26:07.906250,114.54
12:26:07.921875,115.22
12:26:07.937500,87.20
12:26:07.953125,39.18
12:26:07.968750,-18.24
12:26:07.984375,-75.84
12:26:08,-128.13
12:26:08.015625,-173.97
12:26:08.031250,-215.26
12:26:08.046875,-255.03
12:26:08.062500,-296.48
12:26:08.078125,-342.46
12:26:08.093750,-395.51
12:26:08.109375,-457.02
12:26:08.125000,-525.86
12:26:08.140625,-597.04
12:26:08.156250,-661.97
12:26:08.171875,-710.62
12:26:08.187500,-734.85
12:26:08.203125,-731.69
12:26:08.218750,-704.34
12:26:08.234375,-660.71
12:26:08.250000,-610.02
12:26:08.265625,-559.45
12:26:08.281250,-512.31
12:26:08.296875,-468.60
12:26:08.312500,-426.83
12:26:08.328125,-386.00
12:26:08.343750,-346.45
12:26:08.359375,-309.23
12:26:08.375000,-274.97
12:26:08.390625,-243.05
12:26:08.406250,-211.82
12:26:08.421875,-179.52
12:26:08.437500,-145.25
12:26:08.453125,-109.52
12:26:08.468750,-74.02
12:26:08.484375,-40.77
12:26:08.500000,-11.09
12:26:08.515625,15.09
12:26:08.531250,39.18
12:26:08.546875,63.33
12:26:08.562500,89.43
12:26:08.578125,118.31
12:26:08.593750,149.37
12:26:08.609375,181.06
12:26:08.625000,211.54
12:26:08.640625,239.67
12:26:08.656250,265.43
12:26:08.671875,289.90
12:26:08.687500,314.75
12:26:08.703125,341.74
12:26:08.718750,372.35
12:26:08.734375,407.45
12:26:08.750000,446.92
12:26:08.765625,489.11
12:26:08.781250,530.46
12:26:08.796875,565.96
12:26:08.812500,590.38
12:26:08.828125,600.08
12:26:08.843750,594.40
12:26:08.859375,575.93
12:26:08.875000,549.36
12:26:08.890625,519.59
12:26:08.906250,489.99
12:26:08.921875,461.76
12:26:08.937500,434.54
12:26:08.953125,407.66
12:26:08.968750,381.21
12:26:08.984375,356.27
12:26:09,334.38
12:26:09.015625,316.60
12:26:09.031250,302.83
12:26:09.046875,291.91
12:26:09.062500,282.22
12:26:09.078125,272.51
12:26:09.093750,262.34
12:26:09.109375,252.05
12:26:09.125000,242.17
12:26:09.140625,232.78
12:26:09.156250,223.32
12:26:09.171875,212.80
12:26:09.187500,200.34
12:26:09.203125,185.58
12:26:09.218750,168.52
12:26:09.234375,149.16
12:26:09.250000,126.98
12:26:09.265625,100.96
12:26:09.281250,70.04
12:26:09.296875,33.72
12:26:09.312500,-7.48
12:26:09.328125,-51.97
12:26:09.343750,-97.39
12:26:09.359375,-141.02
12:26:09.375000,-180.12
12:26:09.390625,-212.24
12:26:09.406250,-235.59
12:26:09.421875,-249.46
12:26:09.437500,-254.41
12:26:09.453125,-252.26
12:26:09.468750,-245.58
12:26:09.484375,-237.05
12:26:09.500000,-228.90
12:26:09.515625,-222.57
12:26:09.531250,-218.63
12:26:09.546875,-216.79
12:26:09.562500,-215.97
12:26:09.578125,-214.61
12:26:09.593750,-211.10
12:26:09.609375,-204.26
12:26:09.625000,-193.81
12:26:09.640625,-180.32
12:26:09.656250,-164.79
12:26:09.671875,-147.99
12:26:09.687500,-130.09
12:26:09.703125,-110.59
12:26:09.718750,-88.87
12:26:09.734375,-64.85
12:26:09.750000,-39.47
12:26:09.765625,-14.71
12:26:09.781250,6.93
12:26:09.796875,23.28
12:26:09.812500,33.28
12:26:09.828125,37.43
12:26:09.843750,37.62
12:26:09.859375,36.52
12:26:09.875000,36.64
12:26:09.890625,39.42
12:26:09.906250,44.76
12:26:09.921875,51.24
12:26:09.937500,56.84
12:26:09.953125,60.07
12:26:09.968750,60.83
12:26:09.984375,60.68
12:26:10,62.18
12:26:10.015625,67.69
12:26:10.031250,78.11
12:26:10.046875,92.23
12:26:10.062500,107.00
12:26:10.078125,118.71
12:26:10.093750,124.37
12:26:10.109375,122.86
12:26:10.125000,115.17
12:26:10.140625,103.87
12:26:10.156250,92.14
12:26:10.171875,82.55
12:26:10.187500,76.25
12:26:10.203125,72.32
12:26:10.218750,67.83
12:26:10.234375,58.48
12:26:10.250000,40.25
12:26:10.265625,11.29
12:26:10.281250,-26.61
12:26:10.296875,-67.92
12:26:10.312500,-104.87
12:26:10.328125,-130.22
12:26:10.343750,-139.82
12:26:10.359375,-133.92
12:26:10.375000,-116.83
12:26:10.390625,-95.16
12:26:10.406250,-75.86
12:26:10.421875,-64.70
12:26:10.437500,-65.47
12:26:10.453125,-79.73
12:26:10.468750,-106.44
12:26:10.484375,-141.70
12:26:10.500000,-178.97
12:26:10.515625,-210.20
12:26:10.531250,-227.86
12:26:10.546875,-227.27
12:26:10.562500,-208.18
12:26:10.578125,-174.81
12:26:10.593750,-134.49
12:26:10.609375,-95.41
12:26:10.625000,-64.41
12:26:10.640625,-45.49
12:26:10.656250,-39.35
12:26:10.671875,-43.88
12:26:10.687500,-55.23
12:26:10.703125,-68.92
12:26:10.718750,-80.78
12:26:10.734375,-87.66
12:26:10.750000,-87.71
12:26:10.765625,-80.44
12:26:10.781250,-66.64
12:26:10.796875,-48.01
12:26:10.812500,-26.66
12:26:10.828125,-4.66
12:26:10.843750,16.32
12:26:10.859375,35.16
12:26:10.875000,51.16
12:26:10.890625,63.92
12:26:10.906250,73.23
12:26:10.921875,79.03
12:26:10.937500,81.53
12:26:10.953125,81.17
12:26:10.968750,78.58
12:26:10.984375,74.43
12:26:11,69.25
12:26:11.015625,63.45
12:26:11.031250,57.29
12:26:11.046875,50.95
12:26:11.062500,44.52
12:26:11.078125,37.95
12:26:11.093750,30.96
12:26:11.109375,23.20
12:26:11.125000,14.36
12:26:11.140625,4.34
12:26:11.156250,-6.73
12:26:11.171875,-18.62
12:26:11.187500,-31.22
12:26:11.203125,-44.57
12:26:11.218750,-58.88
12:26:11.234375,-74.34
12:26:11.250000,-90.90
12:26:11.265625,-108.20
12:26:11.281250,-125.61
12:26:11.296875,-142.40
12:26:11.312500,-158.14
12:26:11.328125,-172.88
12:26:11.343750,-187.34
12:26:11.359375,-202.63
12:26:11.375000,-219.78
12:26:11.390625,-239.04
12:26:11.406250,-259.34
12:26:11.421875,-278.30
12:26:11.437500,-292.84
12:26:11.453125,-300.45
12:26:11.468750,-300.31
12:26:11.484375,-293.85
12:26:11.500000,-284.02
12:26:11.515625,-273.93
12:26:11.531250,-265.19
12:26:11.546875,-257.14
12:26:11.562500,-247.23
12:26:11.578125,-232.24
12:26:11.593750,-209.56
12:26:11.609375,-178.02
12:26:11.625000,-138.21
12:26:11.640625,-92.78
12:26:11.656250,-46.75
12:26:11.671875,-7.46
12:26:11.687500,16.63
12:26:11.703125,18.52
12:26:11.718750,-4.18
12:26:11.734375,-47.16
12:26:11.750000,-99.84
12:26:11.765625,-148.75
12:26:11.781250,-182.35
12:26:11.796875,-194.99
12:26:11.812500,-187.84
12:26:11.828125,-166.74
12:26:11.843750,-138.36
12:26:11.859375,-106.95
12:26:11.875000,-73.34
12:26:11.890625,-36.20
12:26:11.906250,5.61
12:26:11.921875,51.23
12:26:11.937500,97.84
12:26:11.953125,141.92
12:26:11.968750,181.11
12:26:11.984375,215.39
12:26:12,247.16
12:26:12.015625,280.02
12:26:12.031250,317.21
12:26:12.046875,360.50
12:26:12.062500,409.72
12:26:12.078125,462.89
12:26:12.093750,516.54
12:26:12.109375,565.85
12:26:12.125000,604.85
12:26:12.140625,627.22
12:26:12.156250,628.09
12:26:12.171875,606.48
12:26:12.187500,567.05
12:26:12.203125,519.86
12:26:12.218750,477.46
12:26:12.234375,450.32
12:26:12.250000,442.75
12:26:12.265625,451.39
12:26:12.281250,466.94
12:26:12.296875,478.27
12:26:12.312500,476.75
12:26:12.328125,458.91
12:26:12.343750,426.32
12:26:12.359375,383.57
12:26:12.375000,335.34
12:26:12.390625,284.60
12:26:12.406250,232.13
12:26:12.421875,177.37
12:26:12.437500,119.79
12:26:12.453125,59.55
12:26:12.468750,-2.69
12:26:12.484375,-66.54
12:26:12.500000,-132.50
12:26:12.515625,-201.42
12:26:12.531250,-273.22
12:26:12.546875,-345.34
12:26:12.562500,-412.21
12:26:12.578125,-466.48
12:26:12.593750,-501.51
12:26:12.609375,-513.82
12:26:12.625000,-504.21
12:26:12.640625,-476.86
12:26:12.656250,-437.35
12:26:12.671875,-390.65
12:26:12.687500,-340.36
12:26:12.703125,-288.91
12:26:12.718750,-238.21
12:26:12.734375,-190.12
12:26:12.750000,-146.12
12:26:12.765625,-106.86
12:26:12.781250,-72.09
12:26:12.796875,-41.09
12:26:12.812500,-13.46
12:26:12.828125,10.55
12:26:12.843750,30.23
12:26:12.859375,45.05
12:26:12.875000,55.02
12:26:12.890625,60.63
12:26:12.906250,62.44
12:26:12.921875,60.70
12:26:12.937500,55.47
12:26:12.953125,47.30
12:26:12.968750,37.70
12:26:12.984375,29.10
12:26:13,23.61
12:26:13.015625,21.47
12:26:13.031250,19.85
12:26:13.046875,13.01
12:26:13.062500,-5.73
12:26:13.078125,-40.91
12:26:13.093750,-92.13
12:26:13.109375,-153.06
12:26:13.125000,-213.04
12:26:13.140625,-260.45
12:26:13.156250,-286.56
12:26:13.171875,-287.84
12:26:13.187500,-265.96
12:26:13.203125,-225.89
12:26:13.218750,-173.41
12:26:13.234375,-113.60
12:26:13.250000,-50.58
12:26:13.265625,11.62
12:26:13.281250,68.34
12:26:13.296875,114.57
12:26:13.312500,146.26
12:26:13.328125,162.14
12:26:13.343750,164.72
12:26:13.359375,159.70
12:26:13.375000,153.90
12:26:13.390625,152.57
12:26:13.406250,157.70
12:26:13.421875,167.76
12:26:13.437500,179.20
12:26:13.453125,188.58
12:26:13.468750,194.27
12:26:13.484375,196.83
12:26:13.500000,198.15
12:26:13.515625,199.97
12:26:13.531250,202.76
12:26:13.546875,205.56
12:26:13.562500,206.65
12:26:13.578125,204.70
12:26:13.593750,199.60
12:26:13.609375,192.54
12:26:13.625000,185.18
12:26:13.640625,178.82
12:26:13.656250,173.59
12:26:13.671875,168.56
12:26:13.687500,162.33
12:26:13.703125,153.57
12:26:13.718750,141.53
12:26:13.734375,125.78
12:26:13.750000,105.71
12:26:13.765625,80.17
12:26:13.781250,47.56
12:26:13.796875,6.23
12:26:13.812500,-44.89
12:26:13.828125,-105.81
12:26:13.843750,-175.00
12:26:13.859375,-249.27
12:26:13.875000,-323.73
12:26:13.890625,-392.21
12:26:13.906250,-448.38
12:26:13.921875,-487.23
12:26:13.937500,-506.67
12:26:13.953125,-508.24
12:26:13.968750,-496.43
12:26:13.984375,-476.73
12:26:14,-453.40
12:26:14.015625,-427.99
12:26:14.031250,-399.49
12:26:14.046875,-365.81
12:26:14.062500,-325.55
12:26:14.078125,-279.11
12:26:14.093750,-228.63
12:26:14.109375,-177.11
12:26:14.125000,-127.47
12:26:14.140625,-81.89
12:26:14.156250,-41.63
12:26:14.171875,-7.09
12:26:14.187500,22.17
12:26:14.203125,47.06
12:26:14.218750,68.61
12:26:14.234375,87.36
12:26:14.250000,103.07
12:26:14.265625,114.73
12:26:14.281250,120.94
12:26:14.296875,120.78
12:26:14.312500,113.98
12:26:14.328125,100.85
12:26:14.343750,81.94
12:26:14.359375,57.93
12:26:14.375000,29.77
12:26:14.390625,-0.95
12:26:14.406250,-31.74
12:26:14.421875,-59.46
12:26:14.437500,-80.74
12:26:14.453125,-92.59
12:26:14.468750,-92.50
12:26:14.484375,-78.54
12:26:14.500000,-49.48
12:26:14.515625,-5.42
12:26:14.531250,51.39
12:26:14.546875,115.98
12:26:14.562500,181.18
12:26:14.578125,239.29
12:26:14.593750,284.37
12:26:14.609375,314.27
12:26:14.625000,331.10
12:26:14.640625,340.13
12:26:14.656250,347.17
12:26:14.671875,355.91
12:26:14.687500,366.22
12:26:14.703125,374.30
12:26:14.718750,374.18
12:26:14.734375,360.38
12:26:14.750000,330.41
12:26:14.765625,286.47
12:26:14.781250,235.70
12:26:14.796875,188.72
12:26:14.812500,156.40
12:26:14.828125,145.95
12:26:14.843750,157.93
12:26:14.859375,185.81
12:26:14.875000,218.05
12:26:14.890625,242.66
12:26:14.906250,251.38
12:26:14.921875,241.43
12:26:14.937500,214.59
12:26:14.953125,174.70
12:26:14.968750,125.71
12:26:14.984375,71.42
12:26:15,16.30
12:26:15.015625,-33.98
12:26:15.031250,-73.25
12:26:15.046875,-97.15
12:26:15.062500,-104.99
12:26:15.078125,-100.14
12:26:15.093750,-88.64
12:26:15.109375,-76.86
12:26:15.125000,-69.90
12:26:15.140625,-70.99
12:26:15.156250,-81.81
12:26:15.171875,-102.44
12:26:15.187500,-130.73
12:26:15.203125,-162.01
12:26:15.218750,-189.78
12:26:15.234375,-207.96
12:26:15.250000,-213.69
12:26:15.265625,-208.97
12:26:15.281250,-199.73
12:26:15.296875,-192.84
12:26:15.312500,-192.61
12:26:15.328125,-198.82
12:26:15.343750,-207.00
12:26:15.359375,-210.20
12:26:15.375000,-202.08
12:26:15.390625,-178.95
12:26:15.406250,-140.61
12:26:15.421875,-89.94
12:26:15.437500,-31.66
12:26:15.453125,28.93
12:26:15.468750,86.77
12:26:15.484375,137.43
12:26:15.500000,176.96
12:26:15.515625,201.99
12:26:15.531250,210.21
12:26:15.546875,201.15
12:26:15.562500,177.02
12:26:15.578125,142.87
12:26:15.593750,105.54
12:26:15.609375,71.46
12:26:15.625000,44.18
12:26:15.640625,22.89
12:26:15.656250,2.93
12:26:15.671875,-21.77
12:26:15.687500,-55.25
12:26:15.703125,-97.17
12:26:15.718750,-142.47
12:26:15.734375,-183.41
12:26:15.750000,-212.77
12:26:15.765625,-226.50
12:26:15.781250,-224.70
12:26:15.796875,-210.43
12:26:15.812500,-187.62
12:26:15.828125,-159.24
12:26:15.843750,-126.77
12:26:15.859375,-91.03
12:26:15.875000,-53.44
12:26:15.890625,-16.61
12:26:15.906250,16.37
12:26:15.921875,43.20
12:26:15.937500,63.75
12:26:15.953125,80.12
12:26:15.968750,95.60
12:26:15.984375,112.96
12:26:16,133.27
12:26:16.015625,155.70
12:26:16.031250,178.82
12:26:16.046875,202.02
12:26:16.062500,226.36
12:26:16.078125,254.12
12:26:16.093750,287.04
12:26:16.109375,324.35
12:26:16.125000,361.81
12:26:16.140625,392.67
12:26:16.156250,409.74
12:26:16.171875,408.17
12:26:16.187500,387.00
12:26:16.203125,348.74
12:26:16.218750,298.00
12:26:16.234375,239.61
12:26:16.250000,177.82
12:26:16.265625,116.78
12:26:16.281250,61.27
12:26:16.296875,16.44
12:26:16.312500,-13.84
12:26:16.328125,-29.05
12:26:16.343750,-33.55
12:26:16.359375,-34.71
12:26:16.375000,-39.98
12:26:16.390625,-53.77
12:26:16.406250,-76.21
12:26:16.421875,-104.51
12:26:16.437500,-135.82
12:26:16.453125,-169.36
12:26:16.468750,-207.17
12:26:16.484375,-252.58
12:26:16.500000,-306.78
12:26:16.515625,-367.10
12:26:16.531250,-426.98
12:26:16.546875,-477.91
12:26:16.562500,-511.93
12:26:16.578125,-523.91
12:26:16.593750,-512.23
12:26:16.609375,-479.48
12:26:16.625000,-430.88
12:26:16.640625,-371.46
12:26:16.656250,-304.69
12:26:16.671875,-231.76
12:26:16.687500,-152.22
12:26:16.703125,-65.48
12:26:16.718750,27.00
12:26:16.734375,116.95
12:26:16.750000,198.07
12:26:16.765625,259.85
12:26:16.781250,293.30
12:26:16.796875,293.87
12:26:16.812500,263.96
12:26:16.828125,213.46
12:26:16.843750,158.10
12:26:16.859375,114.52
12:26:16.875000,95.45
12:26:16.890625,102.62
12:26:16.906250,128.28
12:26:16.921875,158.93
12:26:16.937500,181.55
12:26:16.953125,189.09
12:26:16.968750,182.15
12:26:16.984375,166.98
12:26:17,143.52
12:26:17.015625,122.85
12:26:17.031250,99.60
12:26:17.046875,65.95
12:26:17.062500,16.88
12:26:17.078125,-45.67
12:26:17.093750,-109.48
12:26:17.109375,-159.82
12:26:17.125000,-182.87
12:26:17.140625,-171.40
12:26:17.156250,-125.95
12:26:17.171875,-56.83
12:26:17.187500,22.64
12:26:17.203125,99.72
12:26:17.218750,165.28
12:26:17.234375,214.47
12:26:17.250000,245.62
12:26:17.265625,259.61
12:26:17.281250,258.37
12:26:17.296875,245.05
12:26:17.312500,221.05
12:26:17.328125,187.97
12:26:17.343750,146.84
12:26:17.359375,98.54
12:26:17.375000,44.92
12:26:17.390625,-10.34
12:26:17.406250,-60.42
12:26:17.421875,-96.95
12:26:17.437500,-111.68
12:26:17.453125,-100.99
12:26:17.468750,-65.66
12:26:17.484375,-11.14
12:26:17.500000,54.00
12:26:17.515625,119.78
12:26:17.531250,175.39
12:26:17.546875,212.84
12:26:17.562500,228.51
12:26:17.578125,223.93
12:26:17.593750,203.50
12:26:17.609375,173.13
12:26:17.625000,137.78
12:26:17.640625,100.74
12:26:17.656250,63.32
12:26:17.671875,23.62
12:26:17.687500,-19.02
12:26:17.703125,-62.76
12:26:17.718750,-103.99
12:26:17.734375,-140.56
12:26:17.750000,-173.41
12:26:17.765625,-206.13
12:26:17.781250,-242.22
12:26:17.796875,-284.15
12:26:17.812500,-335.27
12:26:17.828125,-394.23
12:26:17.843750,-454.03
12:26:17.859375,-503.28
12:26:17.875000,-530.89
12:26:17.890625,-531.52
12:26:17.906250,-507.88
12:26:17.921875,-469.09
12:26:17.937500,-429.13
12:26:17.953125,-405.69
12:26:17.968750,-409.16
12:26:17.984375,-438.79
12:26:18,-484.09
12:26:18.015625,-531.51
12:26:18.031250,-571.82
12:26:18.046875,-602.09
12:26:18.062500,-622.63
12:26:18.078125,-601.86
12:26:18.093750,-521.71
12:26:18.109375,-385.71
12:26:18.125000,-220.28
12:26:18.140625,-57.43
12:26:18.156250,81.44
12:26:18.171875,187.34
12:26:18.187500,252.60
12:26:18.203125,286.14
12:26:18.218750,295.04
12:26:18.234375,281.01
12:26:18.250000,248.41
12:26:18.265625,206.12
12:26:18.281250,166.24
12:26:18.296875,143.40
12:26:18.312500,143.76
12:26:18.328125,165.22
12:26:18.343750,201.97
12:26:18.359375,246.15
12:26:18.375000,288.09
12:26:18.390625,320.46
12:26:18.406250,337.60
12:26:18.421875,335.62
12:26:18.437500,312.33
12:26:18.453125,267.69
12:26:18.468750,206.93
12:26:18.484375,141.99
12:26:18.500000,86.30
12:26:18.515625,49.80
12:26:18.531250,37.13
12:26:18.546875,42.36
12:26:18.562500,52.43
12:26:18.578125,56.26
12:26:18.593750,50.14
12:26:18.609375,37.52
12:26:18.625000,24.67
12:26:18.640625,15.29
12:26:18.656250,8.79
12:26:18.671875,2.59
12:26:18.687500,-5.42
12:26:18.703125,-14.84
12:26:18.718750,-23.35
12:26:18.734375,-28.92
12:26:18.750000,-30.92
12:26:18.765625,-29.66
12:26:18.781250,-26.29
12:26:18.796875,-21.83
12:26:18.812500,-17.13
12:26:18.828125,-12.77
12:26:18.843750,-8.43
12:26:18.859375,-2.90
12:26:18.875000,4.54
12:26:18.890625,13.14
12:26:18.906250,20.37
12:26:18.921875,22.89
12:26:18.937500,18.14
12:26:18.953125,6.04
12:26:18.968750,-10.11
12:26:18.984375,-24.20
12:26:19,-29.85
12:26:19.015625,-23.77
12:26:19.031250,-7.55
12:26:19.046875,11.56
12:26:19.062500,25.86
12:26:19.078125,30.46
12:26:19.093750,25.90
12:26:19.109375,17.89
12:26:19.125000,14.33
12:26:19.140625,21.43
12:26:19.156250,41.01
12:26:19.171875,70.22
12:26:19.187500,104.08
12:26:19.203125,138.76
12:26:19.218750,172.76
12:26:19.234375,206.90
12:26:19.250000,243.30
12:26:19.265625,284.11
12:26:19.281250,329.96
12:26:19.296875,379.31
12:26:19.312500,427.12
12:26:19.328125,465.85
12:26:19.343750,487.63
12:26:19.359375,486.02
12:26:19.375000,458.25
12:26:19.390625,406.20
12:26:19.406250,335.21
12:26:19.421875,251.81
12:26:19.437500,162.56
12:26:19.453125,72.98
12:26:19.468750,-10.41
12:26:19.484375,-79.01
12:26:19.500000,-124.37
12:26:19.515625,-141.83
12:26:19.531250,-133.50
12:26:19.546875,-108.82
12:26:19.562500,-81.45
12:26:19.578125,-63.32
12:26:19.593750,-61.11
12:26:19.609375,-73.48
12:26:19.625000,-89.28
12:26:19.640625,-95.18
12:26:19.656250,-82.37
12:26:19.671875,-51.00
12:26:19.687500,-8.97
12:26:19.703125,29.44
12:26:19.718750,57.96
12:26:19.734375,73.32
12:26:19.750000,73.23
12:26:19.765625,55.73
12:26:19.781250,22.17
12:26:19.796875,-23.89
12:26:19.812500,-74.51
12:26:19.828125,-117.24
12:26:19.843750,-138.25
12:26:19.859375,-127.25
12:26:19.875000,-83.76
12:26:19.890625,-18.01
12:26:19.906250,52.35
12:26:19.921875,108.25
12:26:19.937500,135.85
12:26:19.953125,131.33
12:26:19.968750,100.78
12:26:19.984375,55.87
12:26:20,8.20
12:26:20.015625,-36.07
12:26:20.031250,-76.27
12:26:20.046875,-114.57
12:26:20.062500,-152.94
12:26:20.078125,-191.40
12:26:20.093750,-227.67
12:26:20.109375,-258.62
12:26:20.125000,-282.12
12:26:20.140625,-298.28
12:26:20.156250,-309.76
12:26:20.171875,-320.02
12:26:20.187500,-331.98
12:26:20.203125,-347.56
12:26:20.218750,-368.21
12:26:20.234375,-395.33
12:26:20.250000,-429.37
12:26:20.265625,-469.12
12:26:20.281250,-510.64
12:26:20.296875,-547.68
12:26:20.312500,-572.90
12:26:20.328125,-580.25
12:26:20.343750,-567.26
12:26:20.359375,-536.24
12:26:20.375000,-493.17
12:26:20.390625,-444.04
12:26:20.406250,-393.05
12:26:20.421875,-341.99
12:26:20.437500,-291.48
12:26:20.453125,-242.44
12:26:20.468750,-196.66
12:26:20.484375,-156.15
12:26:20.500000,-122.15
12:26:20.515625,-94.31
12:26:20.531250,-68.78
12:26:20.546875,-40.51
12:26:20.562500,-5.50
12:26:20.578125,37.00
12:26:20.593750,84.24
12:26:20.609375,131.63
12:26:20.625000,175.31
12:26:20.640625,213.70
12:26:20.656250,247.51
12:26:20.671875,281.55
12:26:20.687500,321.59
12:26:20.703125,372.07
12:26:20.718750,434.39
12:26:20.734375,507.20
12:26:20.750000,588.15
12:26:20.765625,675.07
12:26:20.781250,765.48
12:26:20.796875,838.69
12:26:20.812500,870.47
12:26:20.828125,841.53
12:26:20.843750,749.83
12:26:20.859375,613.15
12:26:20.875000,459.51
12:26:20.890625,315.00
12:26:20.906250,196.24
12:26:20.921875,109.24
12:26:20.937500,50.71
12:26:20.953125,14.76
12:26:20.968750,-4.83
12:26:20.984375,-13.29
12:26:21,-15.84
12:26:21.015625,-18.56
12:26:21.031250,-27.14
12:26:21.046875,-44.57
12:26:21.062500,-68.67
12:26:21.078125,-94.03
12:26:21.093750,-111.09
12:26:21.109375,-110.88
12:26:21.125000,-89.42
12:26:21.140625,-51.17
12:26:21.156250,-8.50
12:26:21.171875,22.81
12:26:21.187500,28.48
12:26:21.203125,2.91
12:26:21.218750,-48.96
12:26:21.234375,-113.02
12:26:21.250000,-173.18
12:26:21.265625,-217.71
12:26:21.281250,-242.69
12:26:21.296875,-251.04
12:26:21.312500,-248.72
12:26:21.328125,-244.34
12:26:21.343750,-238.47
12:26:21.359375,-230.21
12:26:21.375000,-218.69
12:26:21.390625,-204.42
12:26:21.406250,-189.71
12:26:21.421875,-177.92
12:26:21.437500,-172.33
12:26:21.453125,-174.71
12:26:21.468750,-184.16
12:26:21.484375,-196.00
12:26:21.500000,-203.63
12:26:21.515625,-199.93
12:26:21.531250,-179.91
12:26:21.546875,-142.70
12:26:21.562500,-91.86
12:26:21.578125,-33.75
12:26:21.593750,25.46
12:26:21.609375,82.12
12:26:21.625000,133.85
12:26:21.640625,179.25
12:26:21.656250,217.13
12:26:21.671875,245.47
12:26:21.687500,261.68
12:26:21.703125,264.25
12:26:21.718750,254.24
12:26:21.734375,235.81
12:26:21.750000,214.82
12:26:21.765625,196.70
12:26:21.781250,184.19
12:26:21.796875,176.77
12:26:21.812500,171.86
12:26:21.828125,166.66
12:26:21.843750,159.77
12:26:21.859375,151.41
12:26:21.875000,142.32
12:26:21.890625,132.56
12:26:21.906250,121.25
12:26:21.921875,107.39
12:26:21.937500,91.14
12:26:21.953125,74.58
12:26:21.968750,61.24
12:26:21.984375,54.57
12:26:22,56.02
12:26:22.015625,64.02
12:26:22.031250,74.11
12:26:22.046875,80.37
12:26:22.062500,77.55
12:26:22.078125,62.89
12:26:22.093750,37.40
12:26:22.109375,5.86
12:26:22.125000,-24.52
12:26:22.140625,-46.51
12:26:22.156250,-55.62
12:26:22.171875,-51.76
12:26:22.187500,-39.08
12:26:22.203125,-23.66
12:26:22.218750,-10.78
12:26:22.234375,-2.79
12:26:22.250000,1.13
12:26:22.265625,3.39
12:26:22.281250,5.80
12:26:22.296875,8.51
12:26:22.312500,10.48
12:26:22.328125,11.09
12:26:22.343750,11.31
12:26:22.359375,13.53
12:26:22.375000,19.82
12:26:22.390625,30.04
12:26:22.406250,41.07
12:26:22.421875,48.11
12:26:22.437500,47.23
12:26:22.453125,37.64
12:26:22.468750,22.42
12:26:22.484375,7.00
12:26:22.500000,-3.52
12:26:22.515625,-7.27
12:26:22.531250,-6.88
12:26:22.546875,-8.41
12:26:22.562500,-18.45
12:26:22.578125,-41.19
12:26:22.593750,-76.89
12:26:22.609375,-122.64
12:26:22.625000,-174.66
12:26:22.640625,-230.34
12:26:22.656250,-289.79
12:26:22.671875,-355.04
12:26:22.687500,-427.43
12:26:22.703125,-504.61
12:26:22.718750,-579.31
12:26:22.734375,-640.93
12:26:22.750000,-679.36
12:26:22.765625,-689.08
12:26:22.781250,-669.78
12:26:22.796875,-626.80
12:26:22.812500,-568.73
12:26:22.828125,-504.60
12:26:22.843750,-441.84
12:26:22.859375,-385.33
12:26:22.875000,-338.00
12:26:22.890625,-301.39
12:26:22.906250,-275.63
12:26:22.921875,-256.25
12:26:22.937500,-236.92
12:26:22.953125,-211.86
12:26:22.968750,-178.54
12:26:22.984375,-138.57
12:26:23,-95.87
12:26:23.015625,-54.71
12:26:23.031250,-18.33
12:26:23.046875,11.85
12:26:23.062500,40.38
12:26:23.078125,72.51
12:26:23.093750,111.35
12:26:23.109375,156.19
12:26:23.125000,203.55
12:26:23.140625,250.86
12:26:23.156250,297.54
12:26:23.171875,344.41
12:26:23.187500,392.67
12:26:23.203125,448.61
12:26:23.218750,517.20
12:26:23.234375,599.68
12:26:23.250000,692.25
12:26:23.265625,787.77
12:26:23.281250,881.09
12:26:23.296875,970.48
12:26:23.312500,1056.75
12:26:23.328125,1106.61
12:26:23.343750,1093.35
12:26:23.359375,1007.03
12:26:23.375000,863.38
12:26:23.390625,693.64
12:26:23.406250,525.48
12:26:23.421875,375.61
12:26:23.437500,250.47
12:26:23.453125,149.83
12:26:23.468750,71.05
12:26:23.484375,16.05
12:26:23.500000,-14.20
12:26:23.515625,-22.32
12:26:23.531250,-11.43
12:26:23.546875,4.44
12:26:23.562500,13.00
12:26:23.578125,6.21
12:26:23.593750,-20.38
12:26:23.609375,-64.81
12:26:23.625000,-114.17
12:26:23.640625,-151.15
12:26:23.656250,-161.12
12:26:23.671875,-139.24
12:26:23.687500,-93.14
12:26:23.703125,-37.42
12:26:23.718750,11.75
12:26:23.734375,37.74
12:26:23.750000,31.43
12:26:23.765625,-3.23
12:26:23.781250,-54.01
12:26:23.796875,-107.69
12:26:23.812500,-157.07
12:26:23.828125,-202.77
12:26:23.843750,-248.45
12:26:23.859375,-297.06
12:26:23.875000,-352.14
12:26:23.890625,-413.40
12:26:23.906250,-476.42
12:26:23.921875,-536.16
12:26:23.937500,-590.35
12:26:23.953125,-641.19
12:26:23.968750,-693.37
12:26:23.984375,-750.19
12:26:24,-788.70
12:26:24.015625,-792.32
12:26:24.031250,-757.00
12:26:24.046875,-692.65
12:26:24.062500,-614.40
12:26:24.078125,-532.51
12:26:24.093750,-450.13
12:26:24.109375,-366.24
12:26:24.125000,-280.07
12:26:24.140625,-193.54
12:26:24.156250,-115.60
12:26:24.171875,-55.23
12:26:24.187500,-16.86
12:26:24.203125,0.95
12:26:24.218750,6.11
12:26:24.234375,5.70
12:26:24.250000,4.42
12:26:24.265625,4.41
12:26:24.281250,6.97
12:26:24.296875,9.92
12:26:24.312500,11.70
12:26:24.328125,12.64
12:26:24.343750,14.65
12:26:24.359375,19.90
12:26:24.375000,29.98
12:26:24.390625,46.72
12:26:24.406250,67.89
12:26:24.421875,92.95
12:26:24.437500,119.77
12:26:24.453125,146.31
12:26:24.468750,171.70
12:26:24.484375,195.77
12:26:24.500000,218.44
12:26:24.515625,239.91
12:26:24.531250,260.89
12:26:24.546875,282.01
12:26:24.562500,304.57
12:26:24.578125,328.95
12:26:24.593750,355.37
12:26:24.609375,384.43
12:26:24.625000,414.88
12:26:24.640625,441.76
12:26:24.656250,458.76
12:26:24.671875,460.35
12:26:24.687500,443.24
12:26:24.703125,408.70
12:26:24.718750,361.66
12:26:24.734375,309.40
12:26:24.750000,260.38
12:26:24.765625,220.11
12:26:24.781250,188.63
12:26:24.796875,164.96
12:26:24.812500,149.01
12:26:24.828125,141.06
12:26:24.843750,141.90
12:26:24.859375,151.11
12:26:24.875000,165.38
12:26:24.890625,179.67
12:26:24.906250,185.60
12:26:24.921875,172.40
12:26:24.937500,135.41
12:26:24.953125,79.08
12:26:24.968750,14.60
12:26:24.984375,-43.86
12:26:25,-85.10
12:26:25.015625,-116.97
12:26:25.031250,-147.43
12:26:25.046875,-169.92
12:26:25.062500,-189.49
12:26:25.078125,-216.03
12:26:25.093750,-250.49
12:26:25.109375,-288.71
12:26:25.125000,-324.39
12:26:25.140625,-351.53
12:26:25.156250,-365.15
12:26:25.171875,-359.64
12:26:25.187500,-332.41
12:26:25.203125,-287.84
12:26:25.218750,-233.88
12:26:25.234375,-180.60
12:26:25.250000,-138.11
12:26:25.265625,-111.71
12:26:25.281250,-99.07
12:26:25.296875,-91.23
12:26:25.312500,-75.95
12:26:25.328125,-45.42
12:26:25.343750,-1.17
12:26:25.359375,50.52
12:26:25.375000,102.78
12:26:25.390625,150.90
12:26:25.406250,193.60
12:26:25.421875,231.33
12:26:25.437500,263.41
12:26:25.453125,287.47
12:26:25.468750,299.72
12:26:25.484375,297.38
12:26:25.500000,283.59
12:26:25.515625,266.94
12:26:25.531250,256.74
12:26:25.546875,258.00
12:26:25.562500,268.22
12:26:25.578125,278.20
12:26:25.593750,276.35
12:26:25.609375,253.13
12:26:25.625000,204.05
12:26:25.640625,131.58
12:26:25.656250,43.78
12:26:25.671875,-48.67
12:26:25.687500,-135.13
12:26:25.703125,-206.82
12:26:25.718750,-257.96
12:26:25.734375,-286.32
12:26:25.750000,-293.22
12:26:25.765625,-282.76
12:26:25.781250,-259.72
12:26:25.796875,-228.04
12:26:25.812500,-190.63
12:26:25.828125,-150.51
12:26:25.843750,-112.50
12:26:25.859375,-83.66
12:26:25.875000,-71.64
12:26:25.890625,-81.06
12:26:25.906250,-110.21
12:26:25.921875,-149.93
12:26:25.937500,-185.81
12:26:25.953125,-203.04
12:26:25.968750,-192.04
12:26:25.984375,-151.94
12:26:26,-90.89
12:26:26.015625,-23.58
12:26:26.031250,33.43
12:26:26.046875,66.43
12:26:26.062500,68.13
12:26:26.078125,39.72
12:26:26.093750,-9.37
12:26:26.109375,-64.10
12:26:26.125000,-108.09
12:26:26.140625,-128.40
12:26:26.156250,-119.40
12:26:26.171875,-83.87
12:26:26.187500,-31.29
12:26:26.203125,26.38
12:26:26.218750,79.05
12:26:26.234375,121.37
12:26:26.250000,152.59
12:26:26.265625,175.08
12:26:26.281250,192.55
12:26:26.296875,209.05
12:26:26.312500,228.68
12:26:26.328125,255.53
12:26:26.343750,292.69
12:26:26.359375,340.59
12:26:26.375000,395.21
12:26:26.390625,447.40
12:26:26.406250,485.12
12:26:26.421875,497.78
12:26:26.437500,480.34
12:26:26.453125,435.05
12:26:26.468750,369.89
12:26:26.484375,295.15
12:26:26.500000,219.84
12:26:26.515625,149.46
12:26:26.531250,85.17
12:26:26.546875,25.33
12:26:26.562500,-31.89
12:26:26.578125,-86.83
12:26:26.593750,-138.28
12:26:26.609375,-184.42
12:26:26.625000,-223.77
12:26:26.640625,-255.54
12:26:26.656250,-275.51
12:26:26.671875,-278.92
12:26:26.687500,-264.02
12:26:26.703125,-234.23
12:26:26.718750,-196.51
12:26:26.734375,-157.82
12:26:26.750000,-122.85
12:26:26.765625,-93.89
12:26:26.781250,-71.32
12:26:26.796875,-55.67
12:26:26.812500,-45.61
12:26:26.828125,-40.16
12:26:26.843750,-38.36
12:26:26.859375,-39.08
12:26:26.875000,-41.35
12:26:26.890625,-44.89
12:26:26.906250,-50.60
12:26:26.921875,-60.65
12:26:26.937500,-74.93
12:26:26.953125,-94.42
12:26:26.968750,-119.70
12:26:26.984375,-149.50
12:26:27,-180.29
12:26:27.015625,-207.11
12:26:27.031250,-225.53
12:26:27.046875,-233.17
12:26:27.062500,-230.34
12:26:27.078125,-219.55
12:26:27.093750,-204.75
12:26:27.109375,-189.56
12:26:27.125000,-175.84
12:26:27.140625,-163.37
12:26:27.156250,-150.73
12:26:27.171875,-136.50
12:26:27.187500,-120.10
12:26:27.203125,-101.86
12:26:27.218750,-82.64
12:26:27.234375,-63.95
12:26:27.250000,-47.47
12:26:27.265625,-34.78
12:26:27.281250,-27.12
12:26:27.296875,-25.11
12:26:27.312500,-28.43
12:26:27.328125,-35.72
12:26:27.343750,-44.44
12:26:27.359375,-51.16
12:26:27.375000,-52.53
12:26:27.390625,-45.84
12:26:27.406250,-29.83
12:26:27.421875,-5.37
12:26:27.437500,24.46
12:26:27.453125,54.87
12:26:27.468750,80.86
12:26:27.484375,98.85
12:26:27.500000,108.01
12:26:27.515625,110.19
12:26:27.531250,108.67
12:26:27.546875,106.37
12:26:27.562500,104.61
12:26:27.578125,103.24
12:26:27.593750,101.85
12:26:27.609375,100.97
12:26:27.625000,102.15
12:26:27.640625,106.71
12:26:27.656250,114.12
12:26:27.671875,121.44
12:26:27.687500,124.50
12:26:27.703125,120.21
12:26:27.718750,108.70
12:26:27.734375,93.54
12:26:27.750000,79.89
12:26:27.765625,71.48
12:26:27.781250,68.41
12:26:27.796875,66.75
12:26:27.812500,60.68
12:26:27.828125,45.20
12:26:27.843750,18.31
12:26:27.859375,-18.66
12:26:27.875000,-62.64
12:26:27.890625,-110.88
12:26:27.906250,-162.22
12:26:27.921875,-216.49
12:26:27.937500,-272.63
12:26:27.953125,-326.84
12:26:27.968750,-372.41
12:26:27.984375,-401.35
12:26:28,-407.23
12:26:28.015625,-387.77
12:26:28.031250,-345.68
12:26:28.046875,-287.68
12:26:28.062500,-222.16
12:26:28.078125,-157.25
12:26:28.093750,-99.42
12:26:28.109375,-53.55
12:26:28.125000,-22.66
12:26:28.140625,-7.18
12:26:28.156250,-4.17
12:26:28.171875,-7.45
12:26:28.187500,-9.22
12:26:28.203125,-2.66
12:26:28.218750,15.19
12:26:28.234375,42.87
12:26:28.250000,74.33
12:26:28.265625,101.26
12:26:28.281250,116.31
12:26:28.296875,115.54
12:26:28.312500,99.47
12:26:28.328125,72.49
12:26:28.343750,41.88
12:26:28.359375,15.51
12:26:28.375000,1.14
12:26:28.390625,2.78
12:26:28.406250,19.76
12:26:28.421875,47.02
12:26:28.437500,77.14
12:26:28.453125,103.08
12:26:28.468750,119.95
12:26:28.484375,127.25
12:26:28.500000,127.88
12:26:28.515625,128.74
12:26:28.531250,135.76
12:26:28.546875,152.42
12:26:28.562500,179.64
12:26:28.578125,216.95
12:26:28.593750,263.35
12:26:28.609375,316.42
12:26:28.625000,373.03
12:26:28.640625,427.24
12:26:28.656250,473.03
12:26:28.671875,502.14
12:26:28.687500,507.30
12:26:28.703125,485.54
12:26:28.718750,440.72
12:26:28.734375,382.71
12:26:28.750000,323.05
12:26:28.765625,272.91
12:26:28.781250,220.98
12:26:28.796875,162.02
12:26:28.812500,95.18
12:26:28.828125,23.71
12:26:28.843750,-48.77
12:26:28.859375,-120.18
12:26:28.875000,-183.47
