15:20:42,-0.00
15:20:42.015625,-0.00
15:20:42.031250,-0.00
15:20:42.046875,-0.00
15:20:42.062500,-0.00
15:20:42.078125,-0.00
15:20:42.093750,-0.00
15:20:42.109375,-0.00
15:20:42.125000,-0.00
15:20:42.140625,-0.00
15:20:42.156250,0.00
15:20:42.171875,0.01
15:20:42.187500,0.01
15:20:42.203125,-0.00
15:20:42.218750,-0.03
15:20:42.234375,-0.05
15:20:42.250000,-0.05
15:20:42.265625,0.00
15:20:42.281250,0.13
15:20:42.296875,0.36
15:20:42.312500,0.66
15:20:42.328125,1.01
15:20:42.343750,1.37
15:20:42.359375,1.72
15:20:42.375000,2.06
15:20:42.390625,2.40
15:20:42.406250,2.79
15:20:42.421875,3.24
15:20:42.437500,3.80
15:20:42.453125,4.42
15:20:42.468750,5.06
15:20:42.484375,5.66
15:20:42.500000,6.20
15:20:42.515625,6.68
15:20:42.531250,7.15
15:20:42.546875,7.68
15:20:42.562500,8.31
15:20:42.578125,9.14
15:20:42.593750,10.09
15:20:42.609375,11.04
15:20:42.625000,11.89
15:20:42.640625,12.57
15:20:42.656250,13.14
15:20:42.671875,13.76
15:20:42.687500,14.65
15:20:42.703125,15.95
15:20:42.718750,17.91
15:20:42.734375,20.34
15:20:42.750000,22.95
15:20:42.765625,25.44
15:20:42.781250,27.62
15:20:42.796875,29.55
15:20:42.812500,31.52
15:20:42.828125,33.98
15:20:42.843750,37.29
15:20:42.859375,41.85
15:20:42.875000,47.34
15:20:42.890625,53.24
15:20:42.906250,58.94
15:20:42.921875,64.06
15:20:42.937500,68.60
15:20:42.953125,73.05
15:20:42.968750,78.08
15:20:42.984375,84.27
15:20:43,92.19
15:20:43.015625,101.37
15:20:43.031250,111.01
15:20:43.046875,120.17
15:20:43.062500,128.20
15:20:43.078125,135.05
15:20:43.093750,141.32
15:20:43.109375,148.36
15:20:43.125000,154.96
15:20:43.140625,163.50
15:20:43.156250,174.66
15:20:43.171875,188.54
15:20:43.187500,203.80
15:20:43.203125,217.33
15:20:43.218750,224.61
15:20:43.234375,220.91
15:20:43.250000,202.94
15:20:43.265625,170.07
15:20:43.281250,124.99
15:20:43.296875,71.74
15:20:43.312500,14.67
15:20:43.328125,-43.25
15:20:43.343750,-100.90
15:20:43.359375,-158.42
15:20:43.375000,-216.10
15:20:43.390625,-273.50
15:20:43.406250,-329.30
15:20:43.421875,-381.45
15:20:43.437500,-428.57
15:20:43.453125,-469.95
15:20:43.468750,-505.40
15:20:43.484375,-534.78
15:20:43.500000,-557.38
15:20:43.515625,-571.76
15:20:43.531250,-575.91
15:20:43.546875,-568.05
15:20:43.562500,-547.08
15:20:43.578125,-513.55
15:20:43.593750,-469.46
15:20:43.609375,-417.84
15:20:43.625000,-362.07
15:20:43.640625,-305.25
15:20:43.656250,-249.85
15:20:43.671875,-197.70
15:20:43.687500,-149.92
15:20:43.703125,-106.60
15:20:43.718750,-66.75
15:20:43.734375,-28.24
15:20:43.750000,11.53
15:20:43.765625,54.47
15:20:43.781250,100.67
15:20:43.796875,147.94
15:20:43.812500,192.45
15:20:43.828125,230.16
15:20:43.843750,258.36
15:20:43.859375,276.34
15:20:43.875000,285.29
15:20:43.890625,287.21
15:20:43.906250,283.94
15:20:43.921875,276.65
15:20:43.937500,266.02
15:20:43.953125,252.69
15:20:43.968750,237.62
15:20:43.984375,221.97
15:20:44,206.73
15:20:44.015625,192.37
15:20:44.031250,178.82
15:20:44.046875,165.63
15:20:44.062500,152.27
15:20:44.078125,138.49
15:20:44.093750,124.41
15:20:44.109375,110.49
15:20:44.125000,97.38
15:20:44.140625,85.64
15:20:44.156250,75.59
15:20:44.171875,67.13
15:20:44.187500,59.74
15:20:44.203125,52.77
15:20:44.218750,45.65
15:20:44.234375,38.25
15:20:44.250000,30.88
15:20:44.265625,24.29
15:20:44.281250,18.96
15:20:44.296875,15.03
15:20:44.312500,12.16
15:20:44.328125,9.73
15:20:44.343750,7.13
15:20:44.359375,4.04
15:20:44.375000,0.62
15:20:44.390625,-2.65
15:20:44.406250,-5.19
15:20:44.421875,-6.51
15:20:44.437500,-6.45
15:20:44.453125,-5.21
15:20:44.468750,-3.31
15:20:44.484375,-1.42
15:20:44.500000,-0.15
15:20:44.515625,0.11
15:20:44.531250,-0.64
15:20:44.546875,-2.18
15:20:44.562500,-4.07
15:20:44.578125,-5.91
15:20:44.593750,-7.44
15:20:44.609375,-8.57
15:20:44.625000,-9.29
15:20:44.640625,-9.63
15:20:44.656250,-9.58
15:20:44.671875,-9.09
15:20:44.687500,-8.22
15:20:44.703125,-7.09
15:20:44.718750,-5.91
15:20:44.734375,-4.87
15:20:44.750000,-4.07
15:20:44.765625,-3.45
15:20:44.781250,-2.93
15:20:44.796875,-2.42
15:20:44.812500,-1.93
15:20:44.828125,-1.61
15:20:44.843750,-1.59
15:20:44.859375,-1.94
15:20:44.875000,-2.57
15:20:44.890625,-3.33
15:20:44.906250,-3.98
15:20:44.921875,-4.40
15:20:44.937500,-4.56
15:20:44.953125,-4.54
15:20:44.968750,-4.46
15:20:44.984375,-4.42
15:20:45,-4.44
15:20:45.015625,-4.47
15:20:45.031250,-4.40
15:20:45.046875,-4.16
15:20:45.062500,-3.75
15:20:45.078125,-3.27
15:20:45.093750,-2.87
15:20:45.109375,-2.71
15:20:45.125000,-2.82
15:20:45.140625,-3.13
15:20:45.156250,-3.49
15:20:45.171875,-3.75
15:20:45.187500,-3.77
15:20:45.203125,-3.44
15:20:45.218750,-2.69
15:20:45.234375,-1.44
15:20:45.250000,0.30
15:20:45.265625,2.36
15:20:45.281250,4.44
15:20:45.296875,6.13
15:20:45.312500,7.06
15:20:45.328125,7.08
15:20:45.343750,6.26
15:20:45.359375,4.87
15:20:45.375000,3.23
15:20:45.390625,1.61
15:20:45.406250,0.16
15:20:45.421875,-1.02
15:20:45.437500,-1.89
15:20:45.453125,-2.40
15:20:45.468750,-2.49
15:20:45.484375,-2.14
15:20:45.500000,-1.42
15:20:45.515625,-0.46
15:20:45.531250,0.56
15:20:45.546875,1.51
15:20:45.562500,2.33
15:20:45.578125,3.01
15:20:45.593750,3.62
15:20:45.609375,4.23
15:20:45.625000,4.84
15:20:45.640625,5.36
15:20:45.656250,5.65
15:20:45.671875,5.54
15:20:45.687500,4.96
15:20:45.703125,3.98
15:20:45.718750,2.79
15:20:45.734375,1.64
15:20:45.750000,0.64
15:20:45.765625,-0.21
15:20:45.781250,-1.03
15:20:45.796875,-1.99
15:20:45.812500,-3.15
15:20:45.828125,-4.46
15:20:45.843750,-5.74
15:20:45.859375,-6.78
15:20:45.875000,-7.48
15:20:45.890625,-7.83
15:20:45.906250,-7.92
15:20:45.921875,-7.85
15:20:45.937500,-7.70
15:20:45.953125,-7.52
15:20:45.968750,-7.33
15:20:45.984375,-7.16
15:20:46,-7.08
15:20:46.015625,-7.03
15:20:46.031250,-6.88
15:20:46.046875,-6.37
15:20:46.062500,-5.25
15:20:46.078125,-3.43
15:20:46.093750,-1.06
15:20:46.109375,1.45
15:20:46.125000,3.58
15:20:46.140625,4.90
15:20:46.156250,5.21
15:20:46.171875,4.61
15:20:46.187500,3.44
15:20:46.203125,2.07
15:20:46.218750,0.80
15:20:46.234375,-0.24
15:20:46.250000,-1.00
15:20:46.265625,-1.54
15:20:46.281250,-1.88
15:20:46.296875,-2.02
15:20:46.312500,-1.94
15:20:46.328125,-1.66
15:20:46.343750,-1.22
15:20:46.359375,-0.74
15:20:46.375000,-0.33
15:20:46.390625,-0.08
15:20:46.406250,0.01
15:20:46.421875,-0.02
15:20:46.437500,-0.09
15:20:46.453125,-0.15
15:20:46.468750,-0.19
15:20:46.484375,-0.26
15:20:46.500000,-0.41
15:20:46.515625,-0.68
15:20:46.531250,-1.06
15:20:46.546875,-1.50
15:20:46.562500,-1.95
15:20:46.578125,-2.36
15:20:46.593750,-2.68
15:20:46.609375,-2.90
15:20:46.625000,-3.05
15:20:46.640625,-3.17
15:20:46.656250,-3.32
15:20:46.671875,-3.57
15:20:46.687500,-3.96
15:20:46.703125,-4.51
15:20:46.718750,-5.19
15:20:46.734375,-5.85
15:20:46.750000,-6.42
15:20:46.765625,-6.83
15:20:46.781250,-7.07
15:20:46.796875,-7.19
15:20:46.812500,-7.30
15:20:46.828125,-7.59
15:20:46.843750,-8.27
15:20:46.859375,-9.48
15:20:46.875000,-11.16
15:20:46.890625,-12.94
15:20:46.906250,-14.22
15:20:46.921875,-14.29
15:20:46.937500,-12.63
15:20:46.953125,-9.16
15:20:46.968750,-4.28
15:20:46.984375,1.26
15:20:47,6.58
15:20:47.015625,10.98
15:20:47.031250,14.07
15:20:47.046875,15.84
15:20:47.062500,16.49
15:20:47.078125,16.33
15:20:47.093750,15.65
15:20:47.109375,14.61
15:20:47.125000,13.32
15:20:47.140625,11.83
15:20:47.156250,10.25
15:20:47.171875,8.76
15:20:47.187500,7.59
15:20:47.203125,6.95
15:20:47.218750,6.91
15:20:47.234375,7.38
15:20:47.250000,8.11
15:20:47.265625,8.79
15:20:47.281250,9.17
15:20:47.296875,9.19
15:20:47.312500,8.92
15:20:47.328125,8.48
15:20:47.343750,7.93
15:20:47.359375,7.29
15:20:47.375000,6.51
15:20:47.390625,5.53
15:20:47.406250,4.37
15:20:47.421875,3.08
15:20:47.437500,1.72
15:20:47.453125,0.37
15:20:47.468750,-0.89
15:20:47.484375,-2.00
15:20:47.500000,-2.92
15:20:47.515625,-3.66
15:20:47.531250,-4.30
15:20:47.546875,-4.97
15:20:47.562500,-5.80
15:20:47.578125,-6.82
15:20:47.593750,-7.95
15:20:47.609375,-9.06
15:20:47.625000,-10.01
15:20:47.640625,-10.73
15:20:47.656250,-11.21
15:20:47.671875,-11.55
15:20:47.687500,-11.89
15:20:47.703125,-12.44
15:20:47.718750,-13.36
15:20:47.734375,-14.72
15:20:47.750000,-16.36
15:20:47.765625,-17.90
15:20:47.781250,-18.78
15:20:47.796875,-18.44
15:20:47.812500,-16.55
15:20:47.828125,-13.13
15:20:47.843750,-8.54
15:20:47.859375,-3.39
15:20:47.875000,1.67
15:20:47.890625,6.10
15:20:47.906250,9.58
15:20:47.921875,11.93
15:20:47.937500,13.15
15:20:47.953125,13.30
15:20:47.968750,12.56
15:20:47.984375,11.19
15:20:48,9.49
15:20:48.015625,7.78
15:20:48.031250,6.35
15:20:48.046875,5.41
15:20:48.062500,5.04
15:20:48.078125,5.20
15:20:48.093750,5.77
15:20:48.109375,6.54
15:20:48.125000,7.28
15:20:48.140625,7.81
15:20:48.156250,8.06
15:20:48.171875,8.06
15:20:48.187500,7.95
15:20:48.203125,7.81
15:20:48.218750,7.64
15:20:48.234375,7.35
15:20:48.250000,6.76
15:20:48.265625,5.77
15:20:48.281250,4.41
15:20:48.296875,2.86
15:20:48.312500,1.36
15:20:48.328125,0.09
15:20:48.343750,-0.92
15:20:48.359375,-1.80
15:20:48.375000,-2.70
15:20:48.390625,-3.72
15:20:48.406250,-4.85
15:20:48.421875,-5.97
15:20:48.437500,-6.89
15:20:48.453125,-7.52
15:20:48.468750,-7.84
15:20:48.484375,-7.98
15:20:48.500000,-8.14
15:20:48.515625,-8.57
15:20:48.531250,-9.48
15:20:48.546875,-10.96
15:20:48.562500,-12.94
15:20:48.578125,-15.06
15:20:48.593750,-16.80
15:20:48.609375,-17.52
15:20:48.625000,-16.74
15:20:48.640625,-14.27
15:20:48.656250,-10.33
15:20:48.671875,-5.53
15:20:48.687500,-0.61
15:20:48.703125,3.77
15:20:48.718750,7.21
15:20:48.734375,9.66
15:20:48.750000,11.25
15:20:48.765625,12.20
15:20:48.781250,12.63
15:20:48.796875,12.54
15:20:48.812500,11.90
15:20:48.828125,10.77
15:20:48.843750,9.33
15:20:48.859375,7.94
15:20:48.875000,6.93
15:20:48.890625,6.53
15:20:48.906250,6.77
15:20:48.921875,7.43
15:20:48.937500,8.22
15:20:48.953125,8.83
15:20:48.968750,9.11
15:20:48.984375,9.07
15:20:49,8.85
15:20:49.015625,8.59
15:20:49.031250,8.40
15:20:49.046875,8.27
15:20:49.062500,8.10
15:20:49.078125,7.74
15:20:49.093750,7.01
15:20:49.109375,5.86
15:20:49.125000,4.35
15:20:49.140625,2.68
15:20:49.156250,1.14
15:20:49.171875,0.03
15:20:49.187500,-0.50
15:20:49.203125,-0.53
15:20:49.218750,-0.32
15:20:49.234375,-0.21
15:20:49.250000,-0.43
15:20:49.265625,-1.02
15:20:49.281250,-1.78
15:20:49.296875,-2.47
15:20:49.312500,-2.91
15:20:49.328125,-3.12
15:20:49.343750,-3.24
15:20:49.359375,-3.51
15:20:49.375000,-4.05
15:20:49.390625,-4.86
15:20:49.406250,-5.83
15:20:49.421875,-6.83
15:20:49.437500,-7.71
15:20:49.453125,-8.30
15:20:49.468750,-8.35
15:20:49.484375,-7.49
15:20:49.500000,-5.30
15:20:49.515625,-1.55
15:20:49.531250,3.66
15:20:49.546875,9.83
15:20:49.562500,16.13
15:20:49.578125,21.71
15:20:49.593750,25.91
15:20:49.609375,28.44
15:20:49.625000,29.38
15:20:49.640625,29.01
15:20:49.656250,27.60
15:20:49.671875,25.28
15:20:49.687500,22.06
15:20:49.703125,17.94
15:20:49.718750,13.13
15:20:49.734375,8.00
15:20:49.750000,3.09
15:20:49.765625,-1.13
15:20:49.781250,-4.42
15:20:49.796875,-6.80
15:20:49.812500,-8.46
15:20:49.828125,-9.62
15:20:49.843750,-10.36
15:20:49.859375,-10.65
15:20:49.875000,-10.44
15:20:49.890625,-9.77
15:20:49.906250,-8.86
15:20:49.921875,-8.05
15:20:49.937500,-7.61
15:20:49.953125,-7.63
15:20:49.968750,-7.96
15:20:49.984375,-8.34
15:20:50,-8.50
15:20:50.015625,-8.38
15:20:50.031250,-8.08
15:20:50.046875,-7.80
15:20:50.062500,-7.75
15:20:50.078125,-7.98
15:20:50.093750,-8.45
15:20:50.109375,-9.00
15:20:50.125000,-9.49
15:20:50.140625,-9.89
15:20:50.156250,-10.20
15:20:50.171875,-10.50
15:20:50.187500,-10.84
15:20:50.203125,-11.23
15:20:50.218750,-11.65
15:20:50.234375,-12.07
15:20:50.250000,-12.52
15:20:50.265625,-13.05
15:20:50.281250,-13.75
15:20:50.296875,-14.66
15:20:50.312500,-15.78
15:20:50.328125,-17.10
15:20:50.343750,-18.60
15:20:50.359375,-20.21
15:20:50.375000,-21.81
15:20:50.390625,-23.08
15:20:50.406250,-23.56
15:20:50.421875,-22.74
15:20:50.437500,-20.25
15:20:50.453125,-16.08
15:20:50.468750,-10.64
15:20:50.484375,-4.64
15:20:50.500000,1.08
15:20:50.515625,5.86
15:20:50.531250,9.32
15:20:50.546875,11.48
15:20:50.562500,12.57
15:20:50.578125,12.91
15:20:50.593750,12.79
15:20:50.609375,12.40
15:20:50.625000,11.84
15:20:50.640625,11.17
15:20:50.656250,10.51
15:20:50.671875,10.01
15:20:50.687500,9.83
15:20:50.703125,10.02
15:20:50.718750,10.55
15:20:50.734375,11.20
15:20:50.750000,11.72
15:20:50.765625,11.91
15:20:50.781250,11.71
15:20:50.796875,11.23
15:20:50.812500,10.66
15:20:50.828125,10.17
15:20:50.843750,9.78
15:20:50.859375,9.40
15:20:50.875000,8.88
15:20:50.890625,8.12
15:20:50.906250,7.08
15:20:50.921875,5.88
15:20:50.937500,4.63
15:20:50.953125,3.44
15:20:50.968750,2.33
15:20:50.984375,1.30
15:20:51,0.32
15:20:51.015625,-0.63
15:20:51.031250,-1.54
15:20:51.046875,-2.38
15:20:51.062500,-3.17
15:20:51.078125,-3.94
15:20:51.093750,-4.73
15:20:51.109375,-5.59
15:20:51.125000,-6.47
15:20:51.140625,-7.30
15:20:51.156250,-8.00
15:20:51.171875,-8.53
15:20:51.187500,-8.93
15:20:51.203125,-9.32
15:20:51.218750,-9.83
15:20:51.234375,-10.62
15:20:51.250000,-11.81
15:20:51.265625,-13.45
15:20:51.281250,-15.48
15:20:51.296875,-17.63
15:20:51.312500,-19.41
15:20:51.328125,-20.18
15:20:51.343750,-19.34
15:20:51.359375,-16.58
15:20:51.375000,-12.09
15:20:51.390625,-6.53
15:20:51.406250,-0.85
15:20:51.421875,4.06
15:20:51.437500,7.66
15:20:51.453125,9.87
15:20:51.468750,10.96
15:20:51.484375,11.28
15:20:51.500000,11.11
15:20:51.515625,10.59
15:20:51.531250,9.76
15:20:51.546875,8.69
15:20:51.562500,7.61
15:20:51.578125,6.77
15:20:51.593750,6.38
15:20:51.609375,6.53
15:20:51.625000,7.12
15:20:51.640625,7.95
15:20:51.656250,8.79
15:20:51.671875,9.45
15:20:51.687500,9.87
15:20:51.703125,10.03
15:20:51.718750,9.97
15:20:51.734375,9.75
15:20:51.750000,9.39
15:20:51.765625,8.90
15:20:51.781250,8.28
15:20:51.796875,7.47
15:20:51.812500,6.48
15:20:51.828125,5.33
15:20:51.843750,4.14
15:20:51.859375,3.01
15:20:51.875000,2.04
15:20:51.890625,1.23
15:20:51.906250,0.47
15:20:51.921875,-0.40
15:20:51.937500,-1.49
15:20:51.953125,-2.81
15:20:51.968750,-4.21
15:20:51.984375,-5.48
15:20:52,-6.39
15:20:52.015625,-6.87
15:20:52.031250,-6.97
15:20:52.046875,-6.91
15:20:52.062500,-6.96
15:20:52.078125,-7.36
15:20:52.093750,-8.28
15:20:52.109375,-9.73
15:20:52.125000,-11.60
15:20:52.140625,-13.58
15:20:52.156250,-15.23
15:20:52.171875,-16.02
15:20:52.187500,-15.45
15:20:52.203125,-13.22
15:20:52.218750,-9.40
15:20:52.234375,-4.46
15:20:52.250000,0.84
15:20:52.265625,5.71
15:20:52.281250,9.51
15:20:52.296875,11.97
15:20:52.312500,13.19
15:20:52.328125,13.46
15:20:52.343750,13.14
15:20:52.359375,12.48
15:20:52.375000,11.62
15:20:52.390625,10.62
15:20:52.406250,9.56
15:20:52.421875,8.59
15:20:52.437500,7.89
15:20:52.453125,7.62
15:20:52.468750,7.80
15:20:52.484375,8.27
15:20:52.500000,8.79
15:20:52.515625,9.08
15:20:52.531250,8.98
15:20:52.546875,8.53
15:20:52.562500,7.88
15:20:52.578125,7.22
15:20:52.593750,6.63
15:20:52.609375,6.04
15:20:52.625000,5.25
15:20:52.640625,4.02
15:20:52.656250,2.26
15:20:52.671875,0.04
15:20:52.687500,-2.45
15:20:52.703125,-4.92
15:20:52.718750,-7.21
15:20:52.734375,-9.20
15:20:52.750000,-10.93
15:20:52.765625,-12.42
15:20:52.781250,-13.71
15:20:52.796875,-14.82
15:20:52.812500,-15.83
15:20:52.828125,-16.83
15:20:52.843750,-17.96
15:20:52.859375,-19.32
15:20:52.875000,-20.89
15:20:52.890625,-22.59
15:20:52.906250,-24.23
15:20:52.921875,-25.72
15:20:52.937500,-27.07
15:20:52.953125,-28.42
15:20:52.968750,-30.00
15:20:52.984375,-31.97
15:20:53,-34.36
15:20:53.015625,-37.01
15:20:53.031250,-39.51
15:20:53.046875,-41.37
15:20:53.062500,-42.09
15:20:53.078125,-41.27
15:20:53.093750,-38.76
15:20:53.109375,-34.73
15:20:53.125000,-29.63
15:20:53.140625,-24.14
15:20:53.156250,-19.00
15:20:53.171875,-14.84
15:20:53.187500,-12.02
15:20:53.203125,-10.59
15:20:53.218750,-10.33
15:20:53.234375,-10.93
15:20:53.250000,-12.04
15:20:53.265625,-13.45
15:20:53.281250,-15.03
15:20:53.296875,-16.69
15:20:53.312500,-18.32
15:20:53.328125,-19.73
15:20:53.343750,-20.75
15:20:53.359375,-21.26
15:20:53.375000,-21.26
15:20:53.390625,-20.82
15:20:53.406250,-20.03
15:20:53.421875,-18.97
15:20:53.437500,-17.60
15:20:53.453125,-15.90
15:20:53.468750,-13.81
15:20:53.484375,-11.32
15:20:53.500000,-8.40
15:20:53.515625,-5.05
15:20:53.531250,-1.20
15:20:53.546875,3.24
15:20:53.562500,8.29
15:20:53.578125,13.87
15:20:53.593750,19.75
15:20:53.609375,25.57
15:20:53.625000,30.97
15:20:53.640625,35.67
15:20:53.656250,39.59
15:20:53.671875,42.84
15:20:53.687500,45.67
15:20:53.703125,48.34
15:20:53.718750,51.00
15:20:53.734375,53.58
15:20:53.750000,55.85
15:20:53.765625,57.47
15:20:53.781250,58.14
15:20:53.796875,57.72
15:20:53.812500,56.28
15:20:53.828125,54.13
15:20:53.843750,51.69
15:20:53.859375,49.46
15:20:53.875000,47.74
15:20:53.890625,46.57
15:20:53.906250,45.60
15:20:53.921875,44.24
15:20:53.937500,41.93
15:20:53.953125,38.47
15:20:53.968750,34.21
15:20:53.984375,30.04
15:20:54,26.97
15:20:54.015625,25.75
15:20:54.031250,26.45
15:20:54.046875,28.45
15:20:54.062500,30.76
15:20:54.078125,32.48
15:20:54.093750,33.17
15:20:54.109375,32.94
15:20:54.125000,32.27
15:20:54.140625,31.60
15:20:54.156250,31.14
15:20:54.171875,30.78
15:20:54.187500,30.28
15:20:54.203125,29.45
15:20:54.218750,28.30
15:20:54.234375,27.00
15:20:54.250000,25.74
15:20:54.265625,24.53
15:20:54.281250,23.26
15:20:54.296875,21.65
15:20:54.312500,19.45
15:20:54.328125,16.53
15:20:54.343750,12.98
15:20:54.359375,9.00
15:20:54.375000,4.90
15:20:54.390625,0.99
15:20:54.406250,-2.51
15:20:54.421875,-5.56
15:20:54.437500,-8.29
15:20:54.453125,-10.98
15:20:54.468750,-13.92
15:20:54.484375,-17.29
15:20:54.500000,-21.03
15:20:54.515625,-24.84
15:20:54.531250,-28.34
15:20:54.546875,-31.23
15:20:54.562500,-33.42
15:20:54.578125,-35.07
15:20:54.593750,-36.50
15:20:54.609375,-38.00
15:20:54.625000,-39.66
15:20:54.640625,-41.40
15:20:54.656250,-42.97
15:20:54.671875,-44.15
15:20:54.687500,-44.81
15:20:54.703125,-44.96
15:20:54.718750,-44.71
15:20:54.734375,-44.21
15:20:54.750000,-43.64
15:20:54.765625,-43.20
15:20:54.781250,-43.07
15:20:54.796875,-43.40
15:20:54.812500,-44.14
15:20:54.828125,-44.96
15:20:54.843750,-45.28
15:20:54.859375,-44.39
15:20:54.875000,-41.69
15:20:54.890625,-36.96
15:20:54.906250,-30.50
15:20:54.921875,-23.04
15:20:54.937500,-15.51
15:20:54.953125,-8.74
15:20:54.968750,-3.19
15:20:54.984375,1.04
15:20:55,4.15
15:20:55.015625,6.38
15:20:55.031250,7.89
15:20:55.046875,8.77
15:20:55.062500,9.08
15:20:55.078125,8.98
15:20:55.093750,8.73
15:20:55.109375,8.64
15:20:55.125000,8.89
15:20:55.140625,9.49
15:20:55.156250,10.26
15:20:55.171875,11.01
15:20:55.187500,11.61
15:20:55.203125,12.07
15:20:55.218750,12.47
15:20:55.234375,12.89
15:20:55.250000,13.28
15:20:55.265625,13.49
15:20:55.281250,13.38
15:20:55.296875,12.83
15:20:55.312500,11.87
15:20:55.328125,10.59
15:20:55.343750,9.10
15:20:55.359375,7.50
15:20:55.375000,5.82
15:20:55.390625,4.11
15:20:55.406250,2.40
15:20:55.421875,0.80
15:20:55.437500,-0.64
15:20:55.453125,-1.90
15:20:55.468750,-3.01
15:20:55.484375,-4.08
15:20:55.500000,-5.20
15:20:55.515625,-6.42
15:20:55.531250,-7.77
15:20:55.546875,-9.27
15:20:55.562500,-10.93
15:20:55.578125,-12.70
15:20:55.593750,-14.37
15:20:55.609375,-15.59
15:20:55.625000,-15.83
15:20:55.640625,-14.58
15:20:55.656250,-11.53
15:20:55.671875,-6.80
15:20:55.687500,-0.93
15:20:55.703125,5.25
15:20:55.718750,10.89
15:20:55.734375,15.38
15:20:55.750000,18.49
15:20:55.765625,20.32
15:20:55.781250,21.14
15:20:55.796875,21.21
15:20:55.812500,20.65
15:20:55.828125,19.49
15:20:55.843750,17.73
15:20:55.859375,15.54
15:20:55.875000,13.19
15:20:55.890625,11.06
15:20:55.906250,9.47
15:20:55.921875,8.54
15:20:55.937500,8.16
15:20:55.953125,8.09
15:20:55.968750,8.06
15:20:55.984375,7.88
15:20:56,7.50
15:20:56.015625,6.95
15:20:56.031250,6.29
15:20:56.046875,5.55
15:20:56.062500,4.71
15:20:56.078125,3.78
15:20:56.093750,2.77
15:20:56.109375,1.74
15:20:56.125000,0.72
15:20:56.140625,-0.33
15:20:56.156250,-1.47
15:20:56.171875,-2.74
15:20:56.187500,-4.12
15:20:56.203125,-5.51
15:20:56.218750,-6.79
15:20:56.234375,-7.85
15:20:56.250000,-8.70
15:20:56.265625,-9.47
15:20:56.281250,-10.31
15:20:56.296875,-11.33
15:20:56.312500,-12.57
15:20:56.328125,-14.00
15:20:56.343750,-15.57
15:20:56.359375,-17.17
15:20:56.375000,-18.62
15:20:56.390625,-19.63
15:20:56.406250,-19.81
15:20:56.421875,-18.77
15:20:56.437500,-16.26
15:20:56.453125,-12.35
15:20:56.468750,-7.43
15:20:56.484375,-2.13
15:20:56.500000,2.82
15:20:56.515625,6.88
15:20:56.531250,9.73
15:20:56.546875,11.39
15:20:56.562500,12.06
15:20:56.578125,12.05
15:20:56.593750,11.65
15:20:56.609375,11.05
15:20:56.625000,10.37
15:20:56.640625,9.69
15:20:56.656250,9.09
15:20:56.671875,8.66
15:20:56.687500,8.48
15:20:56.703125,8.60
15:20:56.718750,8.99
15:20:56.734375,9.52
15:20:56.750000,10.04
15:20:56.765625,10.45
15:20:56.781250,10.69
15:20:56.796875,10.77
15:20:56.812500,10.73
15:20:56.828125,10.55
15:20:56.843750,10.18
15:20:56.859375,9.53
15:20:56.875000,8.54
15:20:56.890625,7.21
15:20:56.906250,5.64
15:20:56.921875,3.99
15:20:56.937500,2.44
15:20:56.953125,1.13
15:20:56.968750,0.07
15:20:56.984375,-0.82
15:20:57,-1.73
15:20:57.015625,-2.84
15:20:57.031250,-4.22
15:20:57.046875,-5.78
15:20:57.062500,-7.28
15:20:57.078125,-8.46
15:20:57.093750,-9.17
15:20:57.109375,-9.44
15:20:57.125000,-9.56
15:20:57.140625,-9.89
15:20:57.156250,-10.79
15:20:57.171875,-12.43
15:20:57.187500,-14.75
15:20:57.203125,-17.40
15:20:57.218750,-19.81
15:20:57.234375,-21.29
15:20:57.250000,-21.22
15:20:57.265625,-19.22
15:20:57.281250,-15.33
15:20:57.296875,-10.05
15:20:57.312500,-4.16
15:20:57.328125,1.45
15:20:57.343750,6.12
15:20:57.359375,9.53
15:20:57.375000,11.76
15:20:57.390625,13.07
15:20:57.406250,13.78
15:20:57.421875,14.10
15:20:57.437500,14.16
15:20:57.453125,13.97
15:20:57.468750,13.57
15:20:57.484375,13.04
15:20:57.500000,12.50
15:20:57.515625,12.05
15:20:57.531250,11.78
15:20:57.546875,11.69
15:20:57.562500,11.73
15:20:57.578125,11.78
15:20:57.593750,11.79
15:20:57.609375,11.73
15:20:57.625000,11.64
15:20:57.640625,11.58
15:20:57.656250,11.54
15:20:57.671875,11.45
15:20:57.687500,11.19
15:20:57.703125,10.61
15:20:57.718750,9.63
15:20:57.734375,8.30
15:20:57.750000,6.76
15:20:57.765625,5.18
15:20:57.781250,3.71
15:20:57.796875,2.43
15:20:57.812500,1.35
15:20:57.828125,0.45
15:20:57.843750,-0.33
15:20:57.859375,-1.09
15:20:57.875000,-1.92
15:20:57.890625,-2.93
15:20:57.906250,-4.15
15:20:57.921875,-5.53
15:20:57.937500,-6.90
15:20:57.953125,-8.08
15:20:57.968750,-8.95
15:20:57.984375,-9.54
15:20:58,-9.98
15:20:58.015625,-10.49
15:20:58.031250,-11.27
15:20:58.046875,-12.44
15:20:58.062500,-14.01
15:20:58.078125,-15.92
15:20:58.093750,-18.01
15:20:58.109375,-19.98
15:20:58.125000,-21.43
15:20:58.140625,-21.82
15:20:58.156250,-20.66
15:20:58.171875,-17.73
15:20:58.187500,-13.17
15:20:58.203125,-7.56
15:20:58.218750,-1.68
15:20:58.234375,3.66
15:20:58.250000,7.91
15:20:58.265625,10.82
15:20:58.281250,12.46
15:20:58.296875,13.06
15:20:58.312500,12.91
15:20:58.328125,12.35
15:20:58.343750,11.65
15:20:58.359375,11.06
15:20:58.375000,10.70
15:20:58.390625,10.60
15:20:58.406250,10.65
15:20:58.421875,10.70
15:20:58.437500,10.63
15:20:58.453125,10.44
15:20:58.468750,10.25
15:20:58.484375,10.19
15:20:58.500000,10.37
15:20:58.515625,10.75
15:20:58.531250,11.20
15:20:58.546875,11.49
15:20:58.562500,11.47
15:20:58.578125,11.04
15:20:58.593750,10.22
15:20:58.609375,9.10
15:20:58.625000,7.83
15:20:58.640625,6.54
15:20:58.656250,5.34
15:20:58.671875,4.32
15:20:58.687500,3.51
15:20:58.703125,2.84
15:20:58.718750,2.21
15:20:58.734375,1.49
15:20:58.750000,0.59
15:20:58.765625,-0.48
15:20:58.781250,-1.67
15:20:58.796875,-2.89
15:20:58.812500,-4.07
15:20:58.828125,-5.23
15:20:58.843750,-6.37
15:20:58.859375,-7.49
15:20:58.875000,-8.51
15:20:58.890625,-9.28
15:20:58.906250,-9.72
15:20:58.921875,-9.81
15:20:58.937500,-9.72
15:20:58.953125,-9.72
15:20:58.968750,-10.06
15:20:58.984375,-10.95
15:20:59,-12.44
15:20:59.015625,-14.46
15:20:59.031250,-16.83
15:20:59.046875,-19.25
15:20:59.062500,-21.29
15:20:59.078125,-22.41
15:20:59.093750,-22.09
15:20:59.109375,-19.97
15:20:59.125000,-16.06
15:20:59.140625,-10.79
15:20:59.156250,-4.96
15:20:59.171875,0.57
15:20:59.187500,5.11
15:20:59.203125,8.32
15:20:59.218750,10.26
15:20:59.234375,11.22
15:20:59.250000,11.54
15:20:59.265625,11.46
15:20:59.281250,11.09
15:20:59.296875,10.49
15:20:59.312500,9.76
15:20:59.328125,9.05
15:20:59.343750,8.56
15:20:59.359375,8.40
15:20:59.375000,8.56
15:20:59.390625,8.89
15:20:59.406250,9.20
15:20:59.421875,9.40
15:20:59.437500,9.51
15:20:59.453125,9.64
15:20:59.468750,9.89
15:20:59.484375,10.26
15:20:59.500000,10.60
15:20:59.515625,10.69
15:20:59.531250,10.35
15:20:59.546875,9.54
15:20:59.562500,8.37
15:20:59.578125,7.03
15:20:59.593750,5.69
15:20:59.609375,4.50
15:20:59.625000,3.46
15:20:59.640625,2.54
15:20:59.656250,1.68
15:20:59.671875,0.81
15:20:59.687500,-0.09
15:20:59.703125,-1.08
15:20:59.718750,-2.14
15:20:59.734375,-3.19
15:20:59.750000,-4.11
15:20:59.765625,-4.78
15:20:59.781250,-5.16
15:20:59.796875,-5.35
15:20:59.812500,-5.56
15:20:59.828125,-6.01
15:20:59.843750,-6.82
15:20:59.859375,-7.95
15:20:59.875000,-9.15
15:20:59.890625,-10.17
15:20:59.906250,-10.83
15:20:59.921875,-11.18
15:20:59.937500,-11.44
15:20:59.953125,-11.91
15:20:59.968750,-12.82
15:20:59.984375,-14.25
15:21:00,-16.07
15:21:00.015625,-18.00
15:21:00.031250,-19.62
15:21:00.046875,-20.44
15:21:00.062500,-20.03
15:21:00.078125,-18.15
15:21:00.093750,-14.81
15:21:00.109375,-10.34
15:21:00.125000,-5.30
15:21:00.140625,-0.30
15:21:00.156250,4.11
15:21:00.171875,7.60
15:21:00.187500,10.02
15:21:00.203125,11.39
15:21:00.218750,11.81
15:21:00.234375,11.46
15:21:00.250000,10.57
15:21:00.265625,9.42
15:21:00.281250,8.32
15:21:00.296875,7.51
15:21:00.312500,7.12
15:21:00.328125,7.15
15:21:00.343750,7.48
15:21:00.359375,7.92
15:21:00.375000,8.30
15:21:00.390625,8.53
15:21:00.406250,8.60
15:21:00.421875,8.59
15:21:00.437500,8.58
15:21:00.453125,8.66
15:21:00.468750,8.78
15:21:00.484375,8.86
15:21:00.500000,8.76
15:21:00.515625,8.36
15:21:00.531250,7.63
15:21:00.546875,6.61
15:21:00.562500,5.43
15:21:00.578125,4.23
15:21:00.593750,3.12
15:21:00.609375,2.15
15:21:00.625000,1.32
15:21:00.640625,0.59
15:21:00.656250,-0.09
15:21:00.671875,-0.76
15:21:00.687500,-1.41
15:21:00.703125,-2.05
15:21:00.718750,-2.64
15:21:00.734375,-3.16
15:21:00.750000,-3.63
15:21:00.765625,-4.09
15:21:00.781250,-4.64
15:21:00.796875,-5.37
15:21:00.812500,-6.34
15:21:00.828125,-7.50
15:21:00.843750,-8.73
15:21:00.859375,-9.82
15:21:00.875000,-10.63
15:21:00.890625,-11.11
15:21:00.906250,-11.37
15:21:00.921875,-11.62
15:21:00.937500,-12.14
15:21:00.953125,-13.13
15:21:00.968750,-14.66
15:21:00.984375,-16.59
15:21:01,-18.59
15:21:01.015625,-20.17
15:21:01.031250,-20.82
15:21:01.046875,-20.07
15:21:01.062500,-17.74
15:21:01.078125,-13.94
15:21:01.093750,-9.13
15:21:01.109375,-3.96
15:21:01.125000,0.89
15:21:01.140625,4.89
15:21:01.156250,7.78
15:21:01.171875,9.61
15:21:01.187500,10.57
15:21:01.203125,10.93
15:21:01.218750,10.84
15:21:01.234375,10.38
15:21:01.250000,9.60
15:21:01.265625,8.56
15:21:01.281250,7.40
15:21:01.296875,6.36
15:21:01.312500,5.68
15:21:01.328125,5.52
15:21:01.343750,5.90
15:21:01.359375,6.70
15:21:01.375000,7.69
15:21:01.390625,8.62
15:21:01.406250,9.30
15:21:01.421875,9.66
15:21:01.437500,9.71
15:21:01.453125,9.53
15:21:01.468750,9.20
15:21:01.484375,8.73
15:21:01.500000,8.14
15:21:01.515625,7.39
15:21:01.531250,6.50
15:21:01.546875,5.52
15:21:01.562500,4.51
15:21:01.578125,3.53
15:21:01.593750,2.57
15:21:01.609375,1.60
15:21:01.625000,0.56
15:21:01.640625,-0.53
15:21:01.656250,-1.59
15:21:01.671875,-2.50
15:21:01.687500,-3.14
15:21:01.703125,-3.51
15:21:01.718750,-3.72
15:21:01.734375,-3.96
15:21:01.750000,-4.38
15:21:01.765625,-5.05
15:21:01.781250,-5.91
15:21:01.796875,-6.86
15:21:01.812500,-7.77
15:21:01.828125,-8.58
15:21:01.843750,-9.28
15:21:01.859375,-9.88
15:21:01.875000,-10.42
15:21:01.890625,-11.00
15:21:01.906250,-11.76
15:21:01.921875,-12.86
15:21:01.937500,-14.42
15:21:01.953125,-16.39
15:21:01.968750,-18.49
15:21:01.984375,-20.20
15:21:02,-20.90
15:21:02.015625,-20.13
15:21:02.031250,-17.68
15:21:02.046875,-13.77
15:21:02.062500,-8.93
15:21:02.078125,-3.86
15:21:02.093750,0.77
15:21:02.109375,4.46
15:21:02.125000,7.00
15:21:02.140625,8.44
15:21:02.156250,9.02
15:21:02.171875,9.00
15:21:02.187500,8.64
15:21:02.203125,8.07
15:21:02.218750,7.36
15:21:02.234375,6.55
15:21:02.250000,5.73
15:21:02.265625,5.03
15:21:02.281250,4.63
15:21:02.296875,4.62
15:21:02.312500,5.00
15:21:02.328125,5.62
15:21:02.343750,6.31
15:21:02.359375,6.91
15:21:02.375000,7.36
15:21:02.390625,7.71
15:21:02.406250,8.02
15:21:02.421875,8.31
15:21:02.437500,8.52
15:21:02.453125,8.50
15:21:02.468750,8.12
15:21:02.484375,7.33
15:21:02.500000,6.16
15:21:02.515625,4.76
15:21:02.531250,3.32
15:21:02.546875,2.01
15:21:02.562500,0.90
15:21:02.578125,-0.03
15:21:02.593750,-0.86
15:21:02.609375,-1.72
15:21:02.625000,-2.70
15:21:02.640625,-3.81
15:21:02.656250,-5.02
15:21:02.671875,-6.20
15:21:02.687500,-7.23
15:21:02.703125,-7.97
15:21:02.718750,-8.39
15:21:02.734375,-8.55
15:21:02.750000,-8.64
15:21:02.765625,-8.90
15:21:02.781250,-9.54
15:21:02.796875,-10.68
15:21:02.812500,-12.30
15:21:02.828125,-14.24
15:21:02.843750,-16.25
15:21:02.859375,-17.98
15:21:02.875000,-19.02
15:21:02.890625,-18.98
15:21:02.906250,-17.55
15:21:02.921875,-14.64
15:21:02.937500,-10.46
15:21:02.953125,-5.54
15:21:02.968750,-0.53
15:21:02.984375,3.96
15:21:03,7.51
15:21:03.015625,10.01
15:21:03.031250,11.54
15:21:03.046875,12.27
15:21:03.062500,12.36
15:21:03.078125,11.89
15:21:03.093750,10.95
15:21:03.109375,9.70
15:21:03.125000,8.35
15:21:03.140625,7.16
15:21:03.156250,6.40
15:21:03.171875,6.22
15:21:03.187500,6.63
15:21:03.203125,7.48
15:21:03.218750,8.48
15:21:03.234375,9.36
15:21:03.250000,9.93
15:21:03.265625,10.14
15:21:03.281250,10.09
15:21:03.296875,9.88
15:21:03.312500,9.58
15:21:03.328125,9.16
15:21:03.343750,8.52
15:21:03.359375,7.61
15:21:03.375000,6.48
15:21:03.390625,5.28
15:21:03.406250,4.19
15:21:03.421875,3.29
15:21:03.437500,2.56
15:21:03.453125,1.86
15:21:03.468750,1.02
15:21:03.484375,-0.03
15:21:03.500000,-1.24
15:21:03.515625,-2.52
15:21:03.531250,-3.73
15:21:03.546875,-4.79
15:21:03.562500,-5.69
15:21:03.578125,-6.46
15:21:03.593750,-7.09
15:21:03.609375,-7.61
15:21:03.625000,-8.05
15:21:03.640625,-8.48
15:21:03.656250,-9.02
15:21:03.671875,-9.79
15:21:03.687500,-10.90
15:21:03.703125,-12.38
15:21:03.718750,-14.20
15:21:03.734375,-16.25
15:21:03.750000,-18.35
15:21:03.765625,-20.16
15:21:03.781250,-21.24
15:21:03.796875,-21.09
15:21:03.812500,-19.33
15:21:03.828125,-15.84
15:21:03.843750,-10.92
15:21:03.859375,-5.20
15:21:03.875000,0.47
15:21:03.890625,5.35
15:21:03.906250,8.96
15:21:03.921875,11.19
15:21:03.937500,12.26
15:21:03.953125,12.53
15:21:03.968750,12.36
15:21:03.984375,11.99
15:21:04,11.54
15:21:04.015625,11.02
15:21:04.031250,10.46
15:21:04.046875,9.91
15:21:04.062500,9.51
15:21:04.078125,9.39
15:21:04.093750,9.63
15:21:04.109375,10.22
15:21:04.125000,11.02
15:21:04.140625,11.89
15:21:04.156250,12.68
15:21:04.171875,13.34
15:21:04.187500,13.85
15:21:04.203125,14.21
15:21:04.218750,14.34
15:21:04.234375,14.15
15:21:04.250000,13.52
15:21:04.265625,12.46
15:21:04.281250,11.07
15:21:04.296875,9.52
15:21:04.312500,7.98
15:21:04.328125,6.50
15:21:04.343750,5.08
15:21:04.359375,3.66
15:21:04.375000,2.24
15:21:04.390625,0.87
15:21:04.406250,-0.33
15:21:04.421875,-1.31
15:21:04.437500,-2.13
15:21:04.453125,-2.92
15:21:04.468750,-3.84
15:21:04.484375,-4.96
15:21:04.500000,-6.22
15:21:04.515625,-7.47
15:21:04.531250,-8.59
15:21:04.546875,-9.56
15:21:04.562500,-10.48
15:21:04.578125,-11.47
15:21:04.593750,-12.66
15:21:04.609375,-14.12
15:21:04.625000,-15.90
15:21:04.640625,-18.02
15:21:04.656250,-20.45
15:21:04.671875,-22.97
15:21:04.687500,-25.11
15:21:04.703125,-26.23
15:21:04.718750,-25.70
15:21:04.734375,-23.17
15:21:04.750000,-18.76
15:21:04.765625,-13.06
15:21:04.781250,-6.94
15:21:04.796875,-1.23
15:21:04.812500,3.50
15:21:04.828125,7.00
15:21:04.843750,9.31
15:21:04.859375,10.61
15:21:04.875000,11.12
15:21:04.890625,11.07
15:21:04.906250,10.66
15:21:04.921875,10.09
15:21:04.937500,9.53
15:21:04.953125,9.08
15:21:04.968750,8.81
15:21:04.984375,8.76
15:21:05,8.94
15:21:05.015625,9.35
15:21:05.031250,9.89
15:21:05.046875,10.39
15:21:05.062500,10.65
15:21:05.078125,10.59
15:21:05.093750,10.31
15:21:05.109375,10.07
15:21:05.125000,10.17
15:21:05.140625,10.76
15:21:05.156250,11.68
15:21:05.171875,12.52
15:21:05.187500,12.78
15:21:05.203125,12.11
15:21:05.218750,10.44
15:21:05.234375,8.02
15:21:05.250000,5.23
15:21:05.265625,2.44
15:21:05.281250,-0.15
15:21:05.296875,-2.50
15:21:05.312500,-4.67
15:21:05.328125,-6.71
15:21:05.343750,-8.59
15:21:05.359375,-10.24
15:21:05.375000,-11.53
15:21:05.390625,-12.38
15:21:05.406250,-12.80
15:21:05.421875,-12.88
15:21:05.437500,-12.78
15:21:05.453125,-12.67
15:21:05.468750,-12.70
15:21:05.484375,-12.98
15:21:05.500000,-13.53
15:21:05.515625,-14.36
15:21:05.531250,-15.48
15:21:05.546875,-16.88
15:21:05.562500,-18.50
15:21:05.578125,-20.08
15:21:05.593750,-21.19
15:21:05.609375,-21.24
15:21:05.625000,-19.71
15:21:05.640625,-16.40
15:21:05.656250,-11.53
15:21:05.671875,-5.76
15:21:05.687500,0.01
15:21:05.703125,5.01
15:21:05.718750,8.76
15:21:05.734375,11.18
15:21:05.750000,12.51
15:21:05.765625,13.07
15:21:05.781250,13.13
15:21:05.796875,12.80
15:21:05.812500,12.15
15:21:05.828125,11.21
15:21:05.843750,10.12
15:21:05.859375,9.10
15:21:05.875000,8.36
15:21:05.890625,8.04
15:21:05.906250,8.18
15:21:05.921875,8.67
15:21:05.937500,9.38
15:21:05.953125,10.15
15:21:05.968750,10.88
15:21:05.984375,11.51
15:21:06,11.97
15:21:06.015625,12.15
15:21:06.031250,11.95
15:21:06.046875,11.27
15:21:06.062500,10.11
15:21:06.078125,8.57
15:21:06.093750,6.83
15:21:06.109375,5.09
15:21:06.125000,3.51
15:21:06.140625,2.12
15:21:06.156250,0.91
15:21:06.171875,-0.20
15:21:06.187500,-1.27
15:21:06.203125,-2.30
15:21:06.218750,-3.28
15:21:06.234375,-4.20
15:21:06.250000,-5.05
15:21:06.265625,-5.83
15:21:06.281250,-6.56
15:21:06.296875,-7.27
15:21:06.312500,-8.04
15:21:06.328125,-8.99
15:21:06.343750,-10.25
15:21:06.359375,-11.86
15:21:06.375000,-13.72
15:21:06.390625,-15.48
15:21:06.406250,-16.63
15:21:06.421875,-16.66
15:21:06.437500,-15.24
15:21:06.453125,-12.34
15:21:06.468750,-8.30
15:21:06.484375,-3.66
15:21:06.500000,0.97
15:21:06.515625,5.12
15:21:06.531250,8.49
15:21:06.546875,10.96
15:21:06.562500,12.56
15:21:06.578125,13.41
15:21:06.593750,13.67
15:21:06.609375,13.49
15:21:06.625000,13.00
15:21:06.640625,12.31
15:21:06.656250,11.55
15:21:06.671875,10.83
15:21:06.687500,10.25
15:21:06.703125,9.91
15:21:06.718750,9.80
15:21:06.734375,9.86
15:21:06.750000,9.90
15:21:06.765625,9.79
15:21:06.781250,9.48
15:21:06.796875,9.03
15:21:06.812500,8.58
15:21:06.828125,8.22
15:21:06.843750,7.93
15:21:06.859375,7.54
15:21:06.875000,6.84
15:21:06.890625,5.71
15:21:06.906250,4.21
15:21:06.921875,2.56
15:21:06.937500,1.04
15:21:06.953125,-0.17
15:21:06.968750,-1.09
15:21:06.984375,-1.84
15:21:07,-2.65
15:21:07.015625,-3.61
15:21:07.031250,-4.74
15:21:07.046875,-5.91
15:21:07.062500,-7.01
15:21:07.078125,-7.95
15:21:07.093750,-8.76
15:21:07.109375,-9.48
15:21:07.125000,-10.16
15:21:07.140625,-10.81
15:21:07.156250,-11.47
15:21:07.171875,-12.22
15:21:07.187500,-13.25
15:21:07.203125,-14.73
15:21:07.218750,-16.67
15:21:07.234375,-18.79
15:21:07.250000,-20.53
15:21:07.265625,-21.19
15:21:07.281250,-20.17
15:21:07.296875,-17.31
15:21:07.312500,-12.91
15:21:07.328125,-7.70
15:21:07.343750,-2.49
15:21:07.359375,2.08
15:21:07.375000,5.69
15:21:07.390625,8.31
15:21:07.406250,10.04
15:21:07.421875,10.99
15:21:07.437500,11.24
15:21:07.453125,10.90
15:21:07.468750,10.21
15:21:07.484375,9.46
15:21:07.500000,9.00
15:21:07.515625,9.02
15:21:07.531250,9.52
15:21:07.546875,10.32
15:21:07.562500,11.15
15:21:07.578125,11.80
15:21:07.593750,12.13
15:21:07.609375,12.13
15:21:07.625000,11.85
15:21:07.640625,11.38
15:21:07.656250,10.81
15:21:07.671875,10.29
15:21:07.687500,9.94
15:21:07.703125,9.78
15:21:07.718750,9.74
15:21:07.734375,9.56
15:21:07.750000,9.00
15:21:07.765625,7.90
15:21:07.781250,6.33
15:21:07.796875,4.54
15:21:07.812500,2.88
15:21:07.828125,1.61
15:21:07.843750,0.76
15:21:07.859375,0.14
15:21:07.875000,-0.52
15:21:07.890625,-1.38
15:21:07.906250,-2.47
15:21:07.921875,-3.66
15:21:07.937500,-4.77
15:21:07.953125,-5.71
15:21:07.968750,-6.49
15:21:07.984375,-7.18
15:21:08,-7.84
15:21:08.015625,-8.49
15:21:08.031250,-9.12
15:21:08.046875,-9.80
15:21:08.062500,-10.68
15:21:08.078125,-11.97
15:21:08.093750,-13.79
15:21:08.109375,-16.05
15:21:08.125000,-18.32
15:21:08.140625,-19.92
15:21:08.156250,-20.13
15:21:08.171875,-18.46
15:21:08.187500,-14.89
15:21:08.203125,-9.89
15:21:08.218750,-4.28
15:21:08.234375,1.07
15:21:08.250000,5.49
15:21:08.265625,8.67
15:21:08.281250,10.60
15:21:08.296875,11.47
15:21:08.312500,11.55
15:21:08.328125,11.10
15:21:08.343750,10.36
15:21:08.359375,9.53
15:21:08.375000,8.84
15:21:08.390625,8.42
15:21:08.406250,8.30
15:21:08.421875,8.44
15:21:08.437500,8.72
15:21:08.453125,9.06
15:21:08.468750,9.41
15:21:08.484375,9.79
15:21:08.500000,10.18
15:21:08.515625,10.56
15:21:08.531250,10.85
15:21:08.546875,10.93
15:21:08.562500,10.72
15:21:08.578125,10.19
15:21:08.593750,9.36
15:21:08.609375,8.36
15:21:08.625000,7.30
15:21:08.640625,6.29
15:21:08.656250,5.34
15:21:08.671875,4.38
15:21:08.687500,3.38
15:21:08.703125,2.32
15:21:08.718750,1.26
15:21:08.734375,0.30
15:21:08.750000,-0.47
15:21:08.765625,-1.10
15:21:08.781250,-1.68
15:21:08.796875,-2.36
15:21:08.812500,-3.22
15:21:08.828125,-4.20
15:21:08.843750,-5.18
15:21:08.859375,-5.99
15:21:08.875000,-6.56
15:21:08.890625,-6.96
15:21:08.906250,-7.38
15:21:08.921875,-8.02
15:21:08.937500,-9.03
15:21:08.953125,-10.46
15:21:08.968750,-12.26
15:21:08.984375,-14.31
15:21:09,-16.46
15:21:09.015625,-18.48
15:21:09.031250,-20.04
15:21:09.046875,-20.73
15:21:09.062500,-20.13
15:21:09.078125,-17.94
15:21:09.093750,-14.22
15:21:09.109375,-9.38
15:21:09.125000,-4.14
15:21:09.140625,0.68
15:21:09.156250,4.46
15:21:09.171875,6.92
15:21:09.187500,8.21
15:21:09.203125,8.73
15:21:09.218750,8.90
15:21:09.234375,8.96
15:21:09.250000,8.94
15:21:09.265625,8.75
15:21:09.281250,8.32
15:21:09.296875,7.73
15:21:09.312500,7.17
15:21:09.328125,6.88
15:21:09.343750,6.98
15:21:09.359375,7.40
15:21:09.375000,7.95
15:21:09.390625,8.39
15:21:09.406250,8.60
15:21:09.421875,8.59
15:21:09.437500,8.43
15:21:09.453125,8.21
15:21:09.468750,7.94
15:21:09.484375,7.61
15:21:09.500000,7.16
15:21:09.515625,6.57
15:21:09.531250,5.81
15:21:09.546875,4.86
15:21:09.562500,3.72
15:21:09.578125,2.44
15:21:09.593750,1.13
15:21:09.609375,-0.01
15:21:09.625000,-0.85
15:21:09.640625,-1.38
15:21:09.656250,-1.75
15:21:09.671875,-2.22
15:21:09.687500,-3.01
15:21:09.703125,-4.19
15:21:09.718750,-5.65
15:21:09.734375,-7.11
15:21:09.750000,-8.31
15:21:09.765625,-9.10
15:21:09.781250,-9.52
15:21:09.796875,-9.76
15:21:09.812500,-10.11
15:21:09.828125,-10.80
15:21:09.843750,-12.00
15:21:09.859375,-13.65
15:21:09.875000,-15.49
15:21:09.890625,-17.03
15:21:09.906250,-17.75
15:21:09.921875,-17.18
15:21:09.937500,-15.12
15:21:09.953125,-11.76
15:21:09.968750,-7.55
15:21:09.984375,-3.11
15:21:10,1.00
15:21:10.015625,4.41
15:21:10.031250,6.99
15:21:10.046875,8.75
15:21:10.062500,9.77
15:21:10.078125,10.18
15:21:10.093750,10.06
15:21:10.109375,9.54
15:21:10.125000,8.79
15:21:10.140625,8.05
15:21:10.156250,7.53
15:21:10.171875,7.42
15:21:10.187500,7.76
15:21:10.203125,8.45
15:21:10.218750,9.27
15:21:10.234375,9.98
15:21:10.250000,10.41
15:21:10.265625,10.51
15:21:10.281250,10.35
15:21:10.296875,10.04
15:21:10.312500,9.70
15:21:10.328125,9.35
15:21:10.343750,8.98
15:21:10.359375,8.58
15:21:10.375000,8.15
15:21:10.390625,7.70
15:21:10.406250,7.24
15:21:10.421875,6.72
15:21:10.437500,6.08
15:21:10.453125,5.29
15:21:10.468750,4.37
15:21:10.484375,3.42
15:21:10.500000,2.56
15:21:10.515625,1.91
15:21:10.531250,1.52
15:21:10.546875,1.40
15:21:10.562500,1.45
15:21:10.578125,1.54
15:21:10.593750,1.48
15:21:10.609375,1.15
15:21:10.625000,0.55
15:21:10.640625,-0.19
15:21:10.656250,-0.80
15:21:10.671875,-1.05
15:21:10.687500,-0.88
15:21:10.703125,-0.43
15:21:10.718750,0.00
15:21:10.734375,0.08
15:21:10.750000,-0.43
15:21:10.765625,-1.50
15:21:10.781250,-2.84
15:21:10.796875,-4.03
15:21:10.812500,-4.54
15:21:10.828125,-3.94
15:21:10.843750,-1.94
15:21:10.859375,1.49
15:21:10.875000,6.10
15:21:10.890625,11.42
15:21:10.906250,16.85
15:21:10.921875,21.82
15:21:10.937500,25.94
15:21:10.953125,29.03
15:21:10.968750,31.07
15:21:10.984375,32.08
15:21:11,31.96
15:21:11.015625,30.48
15:21:11.031250,27.39
15:21:11.046875,22.59
15:21:11.062500,16.30
15:21:11.078125,9.06
15:21:11.093750,1.59
15:21:11.109375,-5.38
15:21:11.125000,-11.38
15:21:11.140625,-16.26
15:21:11.156250,-20.15
15:21:11.171875,-23.35
15:21:11.187500,-26.18
15:21:11.203125,-28.84
15:21:11.218750,-31.42
15:21:11.234375,-33.92
15:21:11.250000,-36.27
15:21:11.265625,-38.42
15:21:11.281250,-40.31
15:21:11.296875,-41.92
15:21:11.312500,-43.25
15:21:11.328125,-44.36
15:21:11.343750,-45.33
15:21:11.359375,-46.15
15:21:11.375000,-46.75
15:21:11.390625,-46.98
15:21:11.406250,-46.61
15:21:11.421875,-45.49
15:21:11.437500,-43.59
15:21:11.453125,-41.01
15:21:11.468750,-37.96
15:21:11.484375,-34.63
15:21:11.500000,-31.13
15:21:11.515625,-27.46
15:21:11.531250,-23.58
15:21:11.546875,-19.52
15:21:11.562500,-15.37
15:21:11.578125,-11.35
15:21:11.593750,-7.64
15:21:11.609375,-4.36
15:21:11.625000,-1.53
15:21:11.640625,0.89
15:21:11.656250,2.93
15:21:11.671875,4.56
15:21:11.687500,5.67
15:21:11.703125,6.14
15:21:11.718750,5.94
15:21:11.734375,5.20
15:21:11.750000,4.22
15:21:11.765625,3.46
15:21:11.781250,3.42
15:21:11.796875,4.49
15:21:11.812500,6.76
15:21:11.828125,10.02
15:21:11.843750,13.72
15:21:11.859375,17.21
15:21:11.875000,19.92
15:21:11.890625,21.54
15:21:11.906250,22.14
15:21:11.921875,22.05
15:21:11.937500,21.64
15:21:11.953125,21.16
15:21:11.968750,20.67
15:21:11.984375,20.02
15:21:12,19.06
15:21:12.015625,17.78
15:21:12.031250,16.31
15:21:12.046875,14.94
15:21:12.062500,13.89
15:21:12.078125,13.23
15:21:12.093750,12.87
15:21:12.109375,12.60
15:21:12.125000,12.23
15:21:12.140625,11.71
15:21:12.156250,11.10
15:21:12.171875,10.53
15:21:12.187500,10.07
15:21:12.203125,9.68
15:21:12.218750,9.20
15:21:12.234375,8.48
15:21:12.250000,7.46
15:21:12.265625,6.16
15:21:12.281250,4.78
15:21:12.296875,3.51
15:21:12.312500,2.52
15:21:12.328125,1.86
15:21:12.343750,1.48
15:21:12.359375,1.26
15:21:12.375000,1.08
15:21:12.390625,0.83
15:21:12.406250,0.42
15:21:12.421875,-0.19
15:21:12.437500,-0.99
15:21:12.453125,-1.90
15:21:12.468750,-2.77
15:21:12.484375,-3.47
15:21:12.500000,-3.93
15:21:12.515625,-4.22
15:21:12.531250,-4.48
15:21:12.546875,-4.93
15:21:12.562500,-5.73
15:21:12.578125,-6.92
15:21:12.593750,-8.42
15:21:12.609375,-10.03
15:21:12.625000,-11.48
15:21:12.640625,-12.44
15:21:12.656250,-12.60
15:21:12.671875,-11.74
15:21:12.687500,-9.79
15:21:12.703125,-6.89
15:21:12.718750,-3.38
15:21:12.734375,0.23
15:21:12.750000,3.50
15:21:12.765625,6.08
15:21:12.781250,7.84
15:21:12.796875,8.83
15:21:12.812500,9.21
15:21:12.828125,9.18
15:21:12.843750,8.87
15:21:12.859375,8.38
15:21:12.875000,7.80
15:21:12.890625,7.26
15:21:12.906250,6.90
15:21:12.921875,6.89
15:21:12.937500,7.29
15:21:12.953125,8.07
15:21:12.968750,9.03
15:21:12.984375,9.93
15:21:13,10.57
15:21:13.015625,10.84
15:21:13.031250,10.78
15:21:13.046875,10.48
15:21:13.062500,10.06
15:21:13.078125,9.56
15:21:13.093750,8.94
15:21:13.109375,8.14
15:21:13.125000,7.13
15:21:13.140625,5.95
15:21:13.156250,4.71
15:21:13.171875,3.56
15:21:13.187500,2.61
15:21:13.203125,1.92
15:21:13.218750,1.43
15:21:13.234375,1.04
15:21:13.250000,0.61
15:21:13.265625,0.02
15:21:13.281250,-0.82
15:21:13.296875,-1.93
15:21:13.312500,-3.26
15:21:13.328125,-4.69
15:21:13.343750,-6.03
15:21:13.359375,-7.08
15:21:13.375000,-7.72
15:21:13.390625,-7.92
15:21:13.406250,-7.85
15:21:13.421875,-7.76
15:21:13.437500,-7.95
15:21:13.453125,-8.65
15:21:13.468750,-9.93
15:21:13.484375,-11.64
15:21:13.500000,-13.45
15:21:13.515625,-14.88
15:21:13.531250,-15.45
15:21:13.546875,-14.76
15:21:13.562500,-12.67
15:21:13.578125,-9.32
15:21:13.593750,-5.16
15:21:13.609375,-0.80
15:21:13.625000,3.16
15:21:13.640625,6.28
15:21:13.656250,8.40
15:21:13.671875,9.61
15:21:13.687500,10.12
15:21:13.703125,10.17
15:21:13.718750,9.94
15:21:13.734375,9.47
15:21:13.750000,8.80
15:21:13.765625,7.98
15:21:13.781250,7.15
15:21:13.796875,6.48
15:21:13.812500,6.16
15:21:13.828125,6.21
15:21:13.843750,6.59
15:21:13.859375,7.11
15:21:13.875000,7.60
15:21:13.890625,7.91
15:21:13.906250,8.00
15:21:13.921875,7.92
15:21:13.937500,7.71
15:21:13.953125,7.41
15:21:13.968750,7.04
15:21:13.984375,6.57
15:21:14,5.98
15:21:14.015625,5.26
15:21:14.031250,4.44
15:21:14.046875,3.57
15:21:14.062500,2.70
15:21:14.078125,1.88
15:21:14.093750,1.12
15:21:14.109375,0.44
15:21:14.125000,-0.20
15:21:14.140625,-0.80
15:21:14.156250,-1.40
15:21:14.171875,-2.05
15:21:14.187500,-2.79
15:21:14.203125,-3.66
15:21:14.218750,-4.65
15:21:14.234375,-5.68
15:21:14.250000,-6.64
15:21:14.265625,-7.45
15:21:14.281250,-8.06
15:21:14.296875,-8.56
15:21:14.312500,-9.07
15:21:14.328125,-9.74
15:21:14.343750,-10.68
15:21:14.359375,-11.88
15:21:14.375000,-13.30
15:21:14.390625,-14.79
15:21:14.406250,-16.15
15:21:14.421875,-17.06
15:21:14.437500,-17.16
15:21:14.453125,-16.09
15:21:14.468750,-13.72
15:21:14.484375,-10.20
15:21:14.500000,-5.99
15:21:14.515625,-1.70
15:21:14.531250,2.09
15:21:14.546875,5.05
15:21:14.562500,7.11
15:21:14.578125,8.39
15:21:14.593750,9.07
15:21:14.609375,9.26
15:21:14.625000,9.01
15:21:14.640625,8.40
15:21:14.656250,7.55
15:21:14.671875,6.67
15:21:14.687500,5.97
15:21:14.703125,5.62
15:21:14.718750,5.63
15:21:14.734375,5.95
15:21:14.750000,6.43
15:21:14.765625,6.93
15:21:14.781250,7.35
15:21:14.796875,7.62
15:21:14.812500,7.68
15:21:14.828125,7.56
15:21:14.843750,7.28
15:21:14.859375,6.88
15:21:14.875000,6.40
15:21:14.890625,5.80
15:21:14.906250,5.01
15:21:14.921875,4.01
15:21:14.937500,2.80
15:21:14.953125,1.52
15:21:14.968750,0.33
15:21:14.984375,-0.63
15:21:15,-1.34
15:21:15.015625,-1.87
15:21:15.031250,-2.38
15:21:15.046875,-2.99
15:21:15.062500,-3.73
15:21:15.078125,-4.56
15:21:15.093750,-5.35
15:21:15.109375,-5.99
15:21:15.125000,-6.43
15:21:15.140625,-6.73
15:21:15.156250,-6.99
15:21:15.171875,-7.34
15:21:15.187500,-7.87
15:21:15.203125,-8.67
15:21:15.218750,-9.76
15:21:15.234375,-11.09
15:21:15.250000,-12.53
15:21:15.265625,-13.84
15:21:15.281250,-14.66
15:21:15.296875,-14.60
15:21:15.312500,-13.39
15:21:15.328125,-10.96
15:21:15.343750,-7.53
15:21:15.359375,-3.55
15:21:15.375000,0.39
15:21:15.390625,3.78
15:21:15.406250,6.30
15:21:15.421875,7.86
15:21:15.437500,8.59
15:21:15.453125,8.72
15:21:15.468750,8.46
15:21:15.484375,7.96
15:21:15.500000,7.34
15:21:15.515625,6.69
15:21:15.531250,6.11
15:21:15.546875,5.73
15:21:15.562500,5.65
15:21:15.578125,5.86
15:21:15.593750,6.27
15:21:15.609375,6.69
15:21:15.625000,6.94
15:21:15.640625,6.93
15:21:15.656250,6.71
15:21:15.671875,6.46
15:21:15.687500,6.36
15:21:15.703125,6.50
15:21:15.718750,6.81
15:21:15.734375,7.04
15:21:15.750000,6.94
15:21:15.765625,6.34
15:21:15.781250,5.24
15:21:15.796875,3.83
15:21:15.812500,2.40
15:21:15.828125,1.19
15:21:15.843750,0.30
15:21:15.859375,-0.31
15:21:15.875000,-0.80
15:21:15.890625,-1.34
15:21:15.906250,-2.06
15:21:15.921875,-2.97
15:21:15.937500,-4.00
15:21:15.953125,-5.04
15:21:15.968750,-6.00
15:21:15.984375,-6.80
15:21:16,-7.41
15:21:16.015625,-7.87
15:21:16.031250,-8.25
15:21:16.046875,-8.67
15:21:16.062500,-9.27
15:21:16.078125,-10.20
15:21:16.093750,-11.49
15:21:16.109375,-13.03
15:21:16.125000,-14.57
15:21:16.140625,-15.68
15:21:16.156250,-15.91
15:21:16.171875,-14.93
15:21:16.187500,-12.68
15:21:16.203125,-9.39
15:21:16.218750,-5.53
15:21:16.234375,-1.67
15:21:16.250000,1.70
15:21:16.265625,4.27
15:21:16.281250,6.01
15:21:16.296875,7.04
15:21:16.312500,7.60
15:21:16.328125,7.87
15:21:16.343750,7.94
15:21:16.359375,7.86
15:21:16.375000,7.64
15:21:16.390625,7.36
15:21:16.406250,7.12
15:21:16.421875,7.02
15:21:16.437500,7.13
15:21:16.453125,7.43
15:21:16.468750,7.79
15:21:16.484375,8.08
15:21:16.500000,8.20
15:21:16.515625,8.13
15:21:16.531250,7.93
15:21:16.546875,7.66
15:21:16.562500,7.37
15:21:16.578125,7.05
15:21:16.593750,6.67
15:21:16.609375,6.21
15:21:16.625000,5.66
15:21:16.640625,5.05
15:21:16.656250,4.37
15:21:16.671875,3.66
15:21:16.687500,2.91
15:21:16.703125,2.15
15:21:16.718750,1.40
15:21:16.734375,0.71
15:21:16.750000,0.07
15:21:16.765625,-0.50
15:21:16.781250,-1.06
15:21:16.796875,-1.66
15:21:16.812500,-2.35
15:21:16.828125,-3.17
15:21:16.843750,-4.10
15:21:16.859375,-5.11
15:21:16.875000,-6.11
15:21:16.890625,-7.01
15:21:16.906250,-7.70
15:21:16.921875,-8.15
15:21:16.937500,-8.44
15:21:16.953125,-8.75
15:21:16.968750,-9.32
15:21:16.984375,-10.34
15:21:17,-11.89
15:21:17.015625,-13.83
15:21:17.031250,-15.82
15:21:17.046875,-17.37
15:21:17.062500,-18.01
15:21:17.078125,-17.34
15:21:17.093750,-15.23
15:21:17.109375,-11.83
15:21:17.125000,-7.57
15:21:17.140625,-3.06
15:21:17.156250,1.08
15:21:17.171875,4.35
15:21:17.187500,6.55
15:21:17.203125,7.76
15:21:17.218750,8.30
15:21:17.234375,8.52
15:21:17.250000,8.70
15:21:17.265625,8.91
15:21:17.281250,9.10
15:21:17.296875,9.16
15:21:17.312500,9.05
15:21:17.328125,8.82
15:21:17.343750,8.57
15:21:17.359375,8.42
15:21:17.375000,8.43
15:21:17.390625,8.56
15:21:17.406250,8.75
15:21:17.421875,8.92
15:21:17.437500,9.00
15:21:17.453125,8.96
15:21:17.468750,8.76
15:21:17.484375,8.37
15:21:17.500000,7.79
15:21:17.515625,7.05
15:21:17.531250,6.22
15:21:17.546875,5.41
15:21:17.562500,4.70
15:21:17.578125,4.14
15:21:17.593750,3.70
15:21:17.609375,3.32
15:21:17.625000,2.88
15:21:17.640625,2.33
15:21:17.656250,1.71
15:21:17.671875,1.10
15:21:17.687500,0.60
15:21:17.703125,0.22
15:21:17.718750,-0.12
15:21:17.734375,-0.58
15:21:17.750000,-1.30
15:21:17.765625,-2.34
15:21:17.781250,-3.61
15:21:17.796875,-4.90
15:21:17.812500,-6.02
15:21:17.828125,-6.86
15:21:17.843750,-7.43
15:21:17.859375,-7.83
15:21:17.875000,-8.19
15:21:17.890625,-8.63
15:21:17.906250,-9.24
15:21:17.921875,-10.12
15:21:17.937500,-11.31
15:21:17.953125,-12.82
15:21:17.968750,-14.55
15:21:17.984375,-16.19
15:21:18,-17.33
15:21:18.015625,-17.49
15:21:18.031250,-16.32
15:21:18.046875,-13.74
15:21:18.062500,-10.03
15:21:18.078125,-5.73
15:21:18.093750,-1.47
15:21:18.109375,2.23
15:21:18.125000,5.05
15:21:18.140625,6.93
15:21:18.156250,7.95
15:21:18.171875,8.29
15:21:18.187500,8.15
15:21:18.203125,7.75
15:21:18.218750,7.31
15:21:18.234375,6.99
15:21:18.250000,6.93
15:21:18.265625,7.13
15:21:18.281250,7.51
15:21:18.296875,7.95
15:21:18.312500,8.35
15:21:18.328125,8.67
15:21:18.343750,8.89
15:21:18.359375,8.99
15:21:18.375000,8.97
15:21:18.390625,8.81
15:21:18.406250,8.54
15:21:18.421875,8.23
15:21:18.437500,7.95
15:21:18.453125,7.75
15:21:18.468750,7.56
15:21:18.484375,7.29
15:21:18.500000,6.85
15:21:18.515625,6.20
15:21:18.531250,5.39
15:21:18.546875,4.46
15:21:18.562500,3.47
15:21:18.578125,2.45
15:21:18.593750,1.42
15:21:18.609375,0.47
15:21:18.625000,-0.31
15:21:18.640625,-0.84
15:21:18.656250,-1.12
15:21:18.671875,-1.27
15:21:18.687500,-1.45
15:21:18.703125,-1.82
15:21:18.718750,-2.47
15:21:18.734375,-3.38
15:21:18.750000,-4.44
15:21:18.765625,-5.51
15:21:18.781250,-6.49
15:21:18.796875,-7.30
15:21:18.812500,-7.93
15:21:18.828125,-8.40
15:21:18.843750,-8.75
15:21:18.859375,-9.07
15:21:18.875000,-9.56
15:21:18.890625,-10.40
15:21:18.906250,-11.70
15:21:18.921875,-13.41
15:21:18.937500,-15.19
15:21:18.953125,-16.47
15:21:18.968750,-16.65
15:21:18.984375,-15.28
15:21:19,-12.33
15:21:19.015625,-8.18
15:21:19.031250,-3.56
15:21:19.046875,0.80
15:21:19.062500,4.30
15:21:19.078125,6.73
15:21:19.093750,8.14
15:21:19.109375,8.80
15:21:19.125000,8.97
15:21:19.140625,8.87
15:21:19.156250,8.58
15:21:19.171875,8.17
15:21:19.187500,7.68
15:21:19.203125,7.20
15:21:19.218750,6.85
15:21:19.234375,6.71
15:21:19.250000,6.80
15:21:19.265625,7.07
15:21:19.281250,7.40
15:21:19.296875,7.66
15:21:19.312500,7.82
15:21:19.328125,7.91
15:21:19.343750,8.03
15:21:19.359375,8.26
15:21:19.375000,8.57
15:21:19.390625,8.90
15:21:19.406250,9.04
15:21:19.421875,8.84
15:21:19.437500,8.17
15:21:19.453125,7.03
15:21:19.468750,5.53
15:21:19.484375,3.95
15:21:19.500000,2.57
15:21:19.515625,1.64
15:21:19.531250,1.22
15:21:19.546875,1.18
15:21:19.562500,1.25
15:21:19.578125,1.11
15:21:19.593750,0.58
15:21:19.609375,-0.33
15:21:19.625000,-1.42
15:21:19.640625,-2.40
15:21:19.656250,-2.99
15:21:19.671875,-3.05
15:21:19.687500,-2.63
15:21:19.703125,-1.95
15:21:19.718750,-1.37
15:21:19.734375,-1.23
15:21:19.750000,-1.72
15:21:19.765625,-2.86
15:21:19.781250,-4.55
15:21:19.796875,-6.52
15:21:19.812500,-8.39
15:21:19.828125,-9.73
15:21:19.843750,-10.15
15:21:19.859375,-9.43
15:21:19.875000,-7.66
15:21:19.890625,-5.23
15:21:19.906250,-2.77
15:21:19.921875,-0.98
15:21:19.937500,-0.32
15:21:19.953125,-0.77
15:21:19.968750,-1.95
15:21:19.984375,-3.34
15:21:20,-4.62
15:21:20.015625,-5.93
15:21:20.031250,-7.65
15:21:20.046875,-10.31
15:21:20.062500,-14.22
15:21:20.078125,-19.28
15:21:20.093750,-24.85
15:21:20.109375,-30.21
15:21:20.125000,-35.09
15:21:20.140625,-39.88
15:21:20.156250,-45.55
15:21:20.171875,-52.87
15:21:20.187500,-62.11
15:21:20.203125,-72.79
15:21:20.218750,-83.79
15:21:20.234375,-93.15
15:21:20.250000,-99.05
15:21:20.265625,-100.29
15:21:20.281250,-96.59
15:21:20.296875,-88.51
15:21:20.312500,-76.51
15:21:20.328125,-61.14
15:21:20.343750,-43.02
15:21:20.359375,-22.77
15:21:20.375000,-0.19
15:21:20.390625,24.87
15:21:20.406250,52.05
15:21:20.421875,80.06
15:21:20.437500,106.55
15:21:20.453125,129.64
15:21:20.468750,147.76
15:21:20.484375,159.91
15:21:20.500000,165.88
15:21:20.515625,167.18
15:21:20.531250,165.79
15:21:20.546875,163.39
15:21:20.562500,160.85
15:21:20.578125,158.06
15:21:20.593750,155.57
15:21:20.609375,153.76
15:21:20.625000,152.40
15:21:20.640625,145.35
15:21:20.656250,128.40
15:21:20.671875,101.36
15:21:20.687500,68.80
15:21:20.703125,39.33
15:21:20.718750,14.08
15:21:20.734375,-7.38
15:21:20.750000,-25.81
15:21:20.765625,-41.12
15:21:20.781250,-52.97
15:21:20.796875,-60.41
15:21:20.812500,-63.08
15:21:20.828125,-61.57
15:21:20.843750,-57.60
15:21:20.859375,-53.73
15:21:20.875000,-51.30
15:21:20.890625,-50.83
15:21:20.906250,-52.17
15:21:20.921875,-54.77
15:21:20.937500,-57.19
15:21:20.953125,-58.13
15:21:20.968750,-57.04
15:21:20.984375,-54.33
15:21:21,-51.25
15:21:21.015625,-48.33
15:21:21.031250,-45.75
15:21:21.046875,-43.53
15:21:21.062500,-41.78
15:21:21.078125,-40.29
15:21:21.093750,-38.91
15:21:21.109375,-37.67
15:21:21.125000,-36.70
15:21:21.140625,-36.16
15:21:21.156250,-35.45
15:21:21.171875,-33.76
15:21:21.187500,-30.45
15:21:21.203125,-25.37
15:21:21.218750,-18.64
15:21:21.234375,-10.81
15:21:21.250000,-2.77
15:21:21.265625,4.37
15:21:21.281250,9.46
15:21:21.296875,11.89
15:21:21.312500,11.50
15:21:21.328125,8.64
15:21:21.343750,4.02
15:21:21.359375,-1.34
15:21:21.375000,-6.43
15:21:21.390625,-10.65
15:21:21.406250,-13.89
15:21:21.421875,-16.63
15:21:21.437500,-19.48
15:21:21.453125,-23.00
15:21:21.468750,-27.35
15:21:21.484375,-32.20
15:21:21.500000,-36.75
15:21:21.515625,-39.98
15:21:21.531250,-41.01
15:21:21.546875,-39.42
15:21:21.562500,-35.42
15:21:21.578125,-29.80
15:21:21.593750,-23.71
15:21:21.609375,-18.35
15:21:21.625000,-14.60
15:21:21.640625,-12.91
15:21:21.656250,-13.15
15:21:21.671875,-14.75
15:21:21.687500,-16.86
15:21:21.703125,-18.61
15:21:21.718750,-19.23
15:21:21.734375,-18.20
15:21:21.750000,-15.35
15:21:21.765625,-10.79
15:21:21.781250,-4.94
15:21:21.796875,1.56
15:21:21.812500,8.00
15:21:21.828125,13.71
15:21:21.843750,18.23
15:21:21.859375,21.44
15:21:21.875000,23.51
15:21:21.890625,24.84
15:21:21.906250,25.81
15:21:21.921875,26.62
15:21:21.937500,27.15
15:21:21.953125,27.03
15:21:21.968750,25.75
15:21:21.984375,22.89
15:21:22,18.28
15:21:22.015625,12.00
15:21:22.031250,4.40
15:21:22.046875,-4.06
15:21:22.062500,-12.84
15:21:22.078125,-21.36
15:21:22.093750,-29.05
15:21:22.109375,-35.42
15:21:22.125000,-40.08
15:21:22.140625,-42.96
15:21:22.156250,-44.29
15:21:22.171875,-44.52
15:21:22.187500,-44.20
15:21:22.203125,-43.72
15:21:22.218750,-43.18
15:21:22.234375,-42.37
15:21:22.250000,-40.94
15:21:22.265625,-38.54
15:21:22.281250,-34.96
15:21:22.296875,-30.16
15:21:22.312500,-24.15
15:21:22.328125,-16.97
15:21:22.343750,-8.55
15:21:22.359375,1.16
15:21:22.375000,12.06
15:21:22.390625,23.80
15:21:22.406250,35.70
15:21:22.421875,46.88
15:21:22.437500,56.40
15:21:22.453125,63.54
15:21:22.468750,67.88
15:21:22.484375,69.36
15:21:22.500000,68.12
15:21:22.515625,64.46
15:21:22.531250,58.65
15:21:22.546875,50.97
15:21:22.562500,41.82
15:21:22.578125,31.69
15:21:22.593750,21.24
15:21:22.609375,11.12
15:21:22.625000,1.87
15:21:22.640625,-6.14
15:21:22.656250,-12.73
15:21:22.671875,-17.76
15:21:22.687500,-21.06
15:21:22.703125,-22.42
15:21:22.718750,-21.64
15:21:22.734375,-18.68
15:21:22.750000,-13.79
15:21:22.765625,-7.48
15:21:22.781250,-0.53
15:21:22.796875,6.14
15:21:22.812500,11.57
15:21:22.828125,14.84
15:21:22.843750,15.22
15:21:22.859375,12.37
15:21:22.875000,6.60
15:21:22.890625,-0.98
15:21:22.906250,-8.65
15:21:22.921875,-14.52
15:21:22.937500,-17.13
15:21:22.953125,-15.89
15:21:22.968750,-11.19
15:21:22.984375,-4.11
15:21:23,3.99
15:21:23.015625,11.92
15:21:23.031250,18.78
15:21:23.046875,24.00
15:21:23.062500,27.22
15:21:23.078125,28.40
15:21:23.093750,27.84
15:21:23.109375,26.31
15:21:23.125000,24.78
15:21:23.140625,24.08
15:21:23.156250,24.42
15:21:23.171875,25.28
15:21:23.187500,25.65
15:21:23.203125,24.60
15:21:23.218750,21.78
15:21:23.234375,17.70
15:21:23.250000,13.48
15:21:23.265625,10.34
15:21:23.281250,8.98
15:21:23.296875,9.28
15:21:23.312500,10.39
15:21:23.328125,11.11
15:21:23.343750,10.41
15:21:23.359375,7.75
15:21:23.375000,3.20
15:21:23.390625,-2.64
15:21:23.406250,-8.79
15:21:23.421875,-14.00
15:21:23.437500,-16.94
15:21:23.453125,-16.52
15:21:23.468750,-12.18
15:21:23.484375,-4.26
15:21:23.500000,5.95
15:21:23.515625,16.49
15:21:23.531250,25.31
15:21:23.546875,30.90
15:21:23.562500,32.69
15:21:23.578125,31.05
15:21:23.593750,26.86
15:21:23.609375,21.06
15:21:23.625000,14.36
15:21:23.640625,7.16
15:21:23.656250,-0.24
15:21:23.671875,-7.48
15:21:23.687500,-14.10
15:21:23.703125,-19.66
15:21:23.718750,-23.91
15:21:23.734375,-26.89
15:21:23.750000,-28.79
15:21:23.765625,-29.81
15:21:23.781250,-29.95
15:21:23.796875,-29.13
15:21:23.812500,-27.32
15:21:23.828125,-24.84
15:21:23.843750,-22.31
15:21:23.859375,-20.53
15:21:23.875000,-20.11
15:21:23.890625,-21.17
15:21:23.906250,-23.20
15:21:23.921875,-25.31
15:21:23.937500,-26.46
15:21:23.953125,-25.80
15:21:23.968750,-22.89
15:21:23.984375,-17.83
15:21:24,-11.15
15:21:24.015625,-3.68
15:21:24.031250,3.73
15:21:24.046875,10.45
15:21:24.062500,16.27
15:21:24.078125,21.34
15:21:24.093750,25.99
15:21:24.109375,30.35
15:21:24.125000,34.24
15:21:24.140625,37.13
15:21:24.156250,38.54
15:21:24.171875,38.23
15:21:24.187500,36.41
15:21:24.203125,33.50
15:21:24.218750,29.91
15:21:24.234375,25.79
15:21:24.250000,21.19
15:21:24.265625,16.19
15:21:24.281250,11.16
15:21:24.296875,6.61
15:21:24.312500,3.00
15:21:24.328125,0.43
15:21:24.343750,-1.39
15:21:24.359375,-3.01
15:21:24.375000,-4.90
15:21:24.390625,-7.22
15:21:24.406250,-9.87
15:21:24.421875,-12.57
15:21:24.437500,-15.17
15:21:24.453125,-17.69
15:21:24.468750,-20.27
15:21:24.484375,-23.06
15:21:24.500000,-26.07
15:21:24.515625,-29.15
15:21:24.531250,-32.09
15:21:24.546875,-34.71
15:21:24.562500,-36.93
15:21:24.578125,-38.78
15:21:24.593750,-40.41
15:21:24.609375,-42.01
15:21:24.625000,-43.74
15:21:24.640625,-45.58
15:21:24.656250,-47.27
15:21:24.671875,-48.30
15:21:24.687500,-48.07
15:21:24.703125,-46.12
15:21:24.718750,-42.32
15:21:24.734375,-37.04
15:21:24.750000,-30.95
15:21:24.765625,-24.90
15:21:24.781250,-19.51
15:21:24.796875,-15.05
15:21:24.812500,-11.34
15:21:24.828125,-7.88
15:21:24.843750,-4.07
15:21:24.859375,0.62
15:21:24.875000,6.47
15:21:24.890625,13.64
15:21:24.906250,22.12
15:21:24.921875,31.82
15:21:24.937500,42.45
15:21:24.953125,53.45
15:21:24.968750,63.82
15:21:24.984375,72.28
15:21:25,77.49
15:21:25.015625,78.47
15:21:25.031250,75.02
15:21:25.046875,67.85
15:21:25.062500,58.41
15:21:25.078125,48.38
15:21:25.093750,39.14
15:21:25.109375,31.40
15:21:25.125000,25.20
15:21:25.140625,20.05
15:21:25.156250,15.47
15:21:25.171875,11.14
15:21:25.187500,7.10
15:21:25.203125,3.53
15:21:25.218750,0.61
15:21:25.234375,-1.73
15:21:25.250000,-3.72
15:21:25.265625,-5.66
15:21:25.281250,-7.74
15:21:25.296875,-9.93
15:21:25.312500,-11.98
15:21:25.328125,-13.57
15:21:25.343750,-14.44
15:21:25.359375,-14.48
15:21:25.375000,-13.79
15:21:25.390625,-12.62
15:21:25.406250,-11.24
15:21:25.421875,-9.90
15:21:25.437500,-8.79
15:21:25.453125,-8.02
15:21:25.468750,-7.63
15:21:25.484375,-7.55
15:21:25.500000,-7.68
15:21:25.515625,-7.88
15:21:25.531250,-8.08
15:21:25.546875,-8.25
15:21:25.562500,-8.47
15:21:25.578125,-8.91
15:21:25.593750,-9.69
15:21:25.609375,-10.85
15:21:25.625000,-12.21
15:21:25.640625,-13.42
15:21:25.656250,-13.99
15:21:25.671875,-13.51
15:21:25.687500,-11.82
15:21:25.703125,-9.05
15:21:25.718750,-5.60
15:21:25.734375,-1.98
15:21:25.750000,1.40
15:21:25.765625,4.33
15:21:25.781250,6.78
15:21:25.796875,8.81
15:21:25.812500,10.41
15:21:25.828125,11.49
15:21:25.843750,11.95
15:21:25.859375,11.73
15:21:25.875000,10.97
15:21:25.890625,9.90
15:21:25.906250,8.79
15:21:25.921875,7.85
15:21:25.937500,7.17
15:21:25.953125,6.80
15:21:25.968750,6.74
15:21:25.984375,7.02
15:21:26,7.61
15:21:26.015625,8.43
15:21:26.031250,9.23
15:21:26.046875,9.71
15:21:26.062500,9.60
15:21:26.078125,8.79
15:21:26.093750,7.43
15:21:26.109375,5.87
15:21:26.125000,4.52
15:21:26.140625,3.62
15:21:26.156250,3.16
15:21:26.171875,2.87
15:21:26.187500,2.36
15:21:26.203125,1.40
15:21:26.218750,-0.06
15:21:26.234375,-1.79
15:21:26.250000,-3.49
15:21:26.265625,-4.92
15:21:26.281250,-6.05
15:21:26.296875,-7.01
15:21:26.312500,-7.98
15:21:26.328125,-9.12
15:21:26.343750,-10.47
15:21:26.359375,-12.01
15:21:26.375000,-13.70
15:21:26.390625,-15.49
15:21:26.406250,-17.19
15:21:26.421875,-18.54
15:21:26.437500,-19.10
15:21:26.453125,-18.51
15:21:26.468750,-16.60
15:21:26.484375,-13.58
15:21:26.500000,-9.93
15:21:26.515625,-6.27
15:21:26.531250,-3.10
15:21:26.546875,-0.66
15:21:26.562500,1.12
15:21:26.578125,2.42
15:21:26.593750,3.47
15:21:26.609375,4.32
15:21:26.625000,4.95
15:21:26.640625,5.31
15:21:26.656250,5.37
15:21:26.671875,5.22
15:21:26.687500,4.99
15:21:26.703125,4.82
15:21:26.718750,4.77
15:21:26.734375,4.79
15:21:26.750000,4.81
15:21:26.765625,4.74
15:21:26.781250,4.57
15:21:26.796875,4.39
15:21:26.812500,4.30
15:21:26.828125,4.40
15:21:26.843750,4.69
15:21:26.859375,5.03
15:21:26.875000,5.18
15:21:26.890625,4.89
15:21:26.906250,4.04
15:21:26.921875,2.62
15:21:26.937500,0.76
15:21:26.953125,-1.33
15:21:26.968750,-3.46
15:21:26.984375,-5.45
15:21:27,-7.17
15:21:27.015625,-8.57
15:21:27.031250,-9.61
15:21:27.046875,-10.32
15:21:27.062500,-10.81
15:21:27.078125,-11.24
15:21:27.093750,-11.79
15:21:27.109375,-12.56
15:21:27.125000,-13.50
15:21:27.140625,-14.35
15:21:27.156250,-14.62
15:21:27.171875,-13.81
15:21:27.187500,-11.53
15:21:27.203125,-7.78
15:21:27.218750,-2.95
15:21:27.234375,2.20
15:21:27.250000,6.85
15:21:27.265625,10.34
15:21:27.281250,12.41
15:21:27.296875,13.17
15:21:27.312500,12.95
15:21:27.328125,12.09
15:21:27.343750,10.76
15:21:27.359375,8.99
15:21:27.375000,6.81
15:21:27.390625,4.35
15:21:27.406250,1.93
15:21:27.421875,-0.07
15:21:27.437500,-1.39
15:21:27.453125,-2.02
15:21:27.468750,-2.22
15:21:27.484375,-2.34
15:21:27.500000,-2.65
15:21:27.515625,-3.18
15:21:27.531250,-3.73
15:21:27.546875,-4.02
15:21:27.562500,-3.89
15:21:27.578125,-3.37
15:21:27.593750,-2.66
15:21:27.609375,-2.00
15:21:27.625000,-1.58
15:21:27.640625,-1.40
15:21:27.656250,-1.36
15:21:27.671875,-1.31
15:21:27.687500,-1.13
15:21:27.703125,-0.85
15:21:27.718750,-0.61
15:21:27.734375,-0.60
15:21:27.750000,-0.99
15:21:27.765625,-1.83
15:21:27.781250,-3.01
15:21:27.796875,-4.31
15:21:27.812500,-5.45
15:21:27.828125,-6.20
15:21:27.843750,-6.38
15:21:27.859375,-5.92
15:21:27.875000,-4.77
15:21:27.890625,-2.99
15:21:27.906250,-0.70
15:21:27.921875,1.83
15:21:27.937500,4.26
15:21:27.953125,6.19
15:21:27.968750,7.35
15:21:27.984375,7.64
15:21:28,7.21
15:21:28.015625,6.36
15:21:28.031250,5.43
15:21:28.046875,4.69
15:21:28.062500,4.24
15:21:28.078125,4.00
15:21:28.093750,3.84
15:21:28.109375,3.65
15:21:28.125000,3.47
15:21:28.140625,3.45
15:21:28.156250,3.77
15:21:28.171875,4.52
15:21:28.187500,5.59
15:21:28.203125,6.62
15:21:28.218750,7.20
15:21:28.234375,7.06
15:21:28.250000,6.18
15:21:28.265625,4.78
15:21:28.281250,3.20
15:21:28.296875,1.69
15:21:28.312500,0.29
15:21:28.328125,-1.07
15:21:28.343750,-2.47
15:21:28.359375,-3.87
15:21:28.375000,-5.18
15:21:28.390625,-6.28
15:21:28.406250,-7.23
15:21:28.421875,-8.18
15:21:28.437500,-9.33
15:21:28.453125,-10.69
15:21:28.468750,-12.05
15:21:28.484375,-13.01
15:21:28.500000,-13.16
15:21:28.515625,-12.26
15:21:28.531250,-10.36
15:21:28.546875,-7.74
15:21:28.562500,-4.78
15:21:28.578125,-1.90
15:21:28.593750,0.54
15:21:28.609375,2.23
15:21:28.625000,2.96
15:21:28.640625,2.62
15:21:28.656250,1.28
15:21:28.671875,-0.78
15:21:28.687500,-3.15
15:21:28.703125,-5.42
15:21:28.718750,-7.29
15:21:28.734375,-8.69
15:21:28.750000,-9.72
15:21:28.765625,-10.49
15:21:28.781250,-11.07
15:21:28.796875,-11.36
15:21:28.812500,-11.16
15:21:28.828125,-10.31
15:21:28.843750,-8.80
15:21:28.859375,-6.82
15:21:28.875000,-4.68
15:21:28.890625,-2.60
15:21:28.906250,-0.60
15:21:28.921875,1.64
15:21:28.937500,4.61
15:21:28.953125,8.83
15:21:28.968750,14.53
15:21:28.984375,21.51
15:21:29,29.22
15:21:29.015625,36.82
15:21:29.031250,43.53
15:21:29.046875,48.72
15:21:29.062500,52.02
15:21:29.078125,53.30
15:21:29.093750,52.67
15:21:29.109375,50.43
15:21:29.125000,47.13
15:21:29.140625,43.41
15:21:29.156250,39.86
15:21:29.171875,36.76
15:21:29.187500,33.95
15:21:29.203125,30.86
15:21:29.218750,26.86
15:21:29.234375,21.53
15:21:29.250000,14.92
15:21:29.265625,7.54
15:21:29.281250,0.16
15:21:29.296875,-6.52
15:21:29.312500,-12.07
15:21:29.328125,-16.43
15:21:29.343750,-19.78
15:21:29.359375,-22.44
15:21:29.375000,-24.70
15:21:29.390625,-26.79
15:21:29.406250,-28.86
15:21:29.421875,-30.96
15:21:29.437500,-33.02
15:21:29.453125,-34.82
15:21:29.468750,-36.01
15:21:29.484375,-36.24
15:21:29.500000,-35.18
15:21:29.515625,-32.75
15:21:29.531250,-29.12
15:21:29.546875,-24.67
15:21:29.562500,-19.94
15:21:29.578125,-15.41
15:21:29.593750,-11.40
15:21:29.609375,-7.98
15:21:29.625000,-4.99
15:21:29.640625,-2.30
15:21:29.656250,0.15
15:21:29.671875,2.15
15:21:29.687500,3.37
15:21:29.703125,3.55
15:21:29.718750,2.70
15:21:29.734375,1.24
15:21:29.750000,-0.16
15:21:29.765625,-0.82
15:21:29.781250,-0.37
15:21:29.796875,1.07
15:21:29.812500,3.04
15:21:29.828125,4.92
15:21:29.843750,6.27
15:21:29.859375,6.99
15:21:29.875000,7.26
15:21:29.890625,7.34
15:21:29.906250,7.39
15:21:29.921875,7.32
15:21:29.937500,6.90
15:21:29.953125,5.97
15:21:29.968750,4.56
15:21:29.984375,2.99
15:21:30,1.72
15:21:30.015625,1.17
15:21:30.031250,1.48
15:21:30.046875,2.46
15:21:30.062500,3.66
15:21:30.078125,4.64
15:21:30.093750,5.11
15:21:30.109375,5.06
15:21:30.125000,4.72
15:21:30.140625,4.35
15:21:30.156250,4.10
15:21:30.171875,3.92
15:21:30.187500,3.61
15:21:30.203125,2.98
15:21:30.218750,1.95
15:21:30.234375,0.62
15:21:30.250000,-0.74
15:21:30.265625,-1.91
15:21:30.281250,-2.76
15:21:30.296875,-3.36
15:21:30.312500,-3.90
15:21:30.328125,-4.61
15:21:30.343750,-5.61
15:21:30.359375,-6.94
15:21:30.375000,-8.53
15:21:30.390625,-10.23
15:21:30.406250,-11.87
15:21:30.421875,-13.20
15:21:30.437500,-13.97
15:21:30.453125,-13.88
15:21:30.468750,-12.76
15:21:30.484375,-10.65
15:21:30.500000,-7.80
15:21:30.515625,-4.64
15:21:30.531250,-1.63
15:21:30.546875,0.89
15:21:30.562500,2.75
15:21:30.578125,3.99
15:21:30.593750,4.75
15:21:30.609375,5.19
15:21:30.625000,5.40
15:21:30.640625,5.43
15:21:30.656250,5.27
15:21:30.671875,4.95
15:21:30.687500,4.54
15:21:30.703125,4.17
15:21:30.718750,3.97
15:21:30.734375,4.04
15:21:30.750000,4.35
15:21:30.765625,4.79
15:21:30.781250,5.16
15:21:30.796875,5.34
15:21:30.812500,5.28
15:21:30.828125,5.06
15:21:30.843750,4.83
15:21:30.859375,4.68
15:21:30.875000,4.58
15:21:30.890625,4.43
15:21:30.906250,4.13
15:21:30.921875,3.63
15:21:30.937500,2.97
15:21:30.953125,2.28
15:21:30.968750,1.63
15:21:30.984375,1.09
15:21:31,0.62
15:21:31.015625,0.18
15:21:31.031250,-0.24
15:21:31.046875,-0.65
15:21:31.062500,-1.08
15:21:31.078125,-1.57
15:21:31.093750,-2.15
15:21:31.109375,-2.83
15:21:31.125000,-3.56
15:21:31.140625,-4.22
15:21:31.156250,-4.71
15:21:31.171875,-5.01
15:21:31.187500,-5.23
15:21:31.203125,-5.56
15:21:31.218750,-6.18
15:21:31.234375,-7.18
15:21:31.250000,-8.55
15:21:31.265625,-10.15
15:21:31.281250,-11.81
15:21:31.296875,-13.35
15:21:31.312500,-14.58
15:21:31.328125,-15.31
15:21:31.343750,-15.33
15:21:31.359375,-14.49
15:21:31.375000,-12.74
15:21:31.390625,-10.19
15:21:31.406250,-7.12
15:21:31.421875,-3.90
15:21:31.437500,-0.88
15:21:31.453125,1.70
15:21:31.468750,3.74
15:21:31.484375,5.27
15:21:31.500000,6.36
15:21:31.515625,7.03
15:21:31.531250,7.28
15:21:31.546875,7.15
15:21:31.562500,6.70
15:21:31.578125,6.11
15:21:31.593750,5.58
15:21:31.609375,5.30
15:21:31.625000,5.35
15:21:31.640625,5.68
15:21:31.656250,6.14
15:21:31.671875,6.54
15:21:31.687500,6.73
15:21:31.703125,6.65
15:21:31.718750,6.33
15:21:31.734375,5.91
15:21:31.750000,5.47
15:21:31.765625,5.07
15:21:31.781250,4.72
15:21:31.796875,4.34
15:21:31.812500,3.87
15:21:31.828125,3.27
15:21:31.843750,2.59
15:21:31.859375,1.90
15:21:31.875000,1.29
15:21:31.890625,0.79
15:21:31.906250,0.39
15:21:31.921875,-0.00
15:21:31.937500,-0.44
15:21:31.953125,-0.93
15:21:31.968750,-1.42
15:21:31.984375,-1.84
15:21:32,-2.18
15:21:32.015625,-2.53
15:21:32.031250,-2.99
15:21:32.046875,-3.59
15:21:32.062500,-4.30
15:21:32.078125,-4.99
15:21:32.093750,-5.54
15:21:32.109375,-5.90
15:21:32.125000,-6.13
15:21:32.140625,-6.35
15:21:32.156250,-6.69
15:21:32.171875,-7.22
15:21:32.187500,-7.95
15:21:32.203125,-8.91
15:21:32.218750,-10.07
15:21:32.234375,-11.37
15:21:32.250000,-12.66
15:21:32.265625,-13.64
15:21:32.281250,-13.92
15:21:32.296875,-13.15
15:21:32.312500,-11.21
15:21:32.328125,-8.29
15:21:32.343750,-4.83
15:21:32.359375,-1.39
15:21:32.375000,1.59
15:21:32.390625,3.91
15:21:32.406250,5.61
15:21:32.421875,6.85
15:21:32.437500,7.77
15:21:32.453125,8.43
15:21:32.468750,8.83
15:21:32.484375,8.96
15:21:32.500000,8.87
15:21:32.515625,8.68
15:21:32.531250,8.51
15:21:32.546875,8.43
15:21:32.562500,8.45
15:21:32.578125,8.51
15:21:32.593750,8.52
15:21:32.609375,8.45
15:21:32.625000,8.28
15:21:32.640625,8.03
15:21:32.656250,7.72
15:21:32.671875,7.35
15:21:32.687500,6.95
15:21:32.703125,6.53
15:21:32.718750,6.10
15:21:32.734375,5.59
15:21:32.750000,4.96
15:21:32.765625,4.19
15:21:32.781250,3.32
15:21:32.796875,2.44
15:21:32.812500,1.65
15:21:32.828125,0.99
15:21:32.843750,0.43
15:21:32.859375,-0.03
15:21:32.875000,-0.42
15:21:32.890625,-0.68
15:21:32.906250,-0.79
15:21:32.921875,-0.78
15:21:32.937500,-0.77
15:21:32.953125,-0.94
15:21:32.968750,-1.44
15:21:32.984375,-2.28
15:21:33,-3.34
15:21:33.015625,-4.43
15:21:33.031250,-5.38
15:21:33.046875,-6.17
15:21:33.062500,-6.89
15:21:33.078125,-7.67
15:21:33.093750,-8.63
15:21:33.109375,-9.75
15:21:33.125000,-10.94
15:21:33.140625,-11.99
15:21:33.156250,-12.67
15:21:33.171875,-12.74
15:21:33.187500,-12.02
15:21:33.203125,-10.46
15:21:33.218750,-8.13
15:21:33.234375,-5.29
15:21:33.250000,-2.28
15:21:33.265625,0.55
15:21:33.281250,2.92
15:21:33.296875,4.69
15:21:33.312500,5.87
15:21:33.328125,6.54
15:21:33.343750,6.82
15:21:33.359375,6.78
15:21:33.375000,6.47
15:21:33.390625,5.94
15:21:33.406250,5.24
15:21:33.421875,4.52
15:21:33.437500,3.95
15:21:33.453125,3.69
15:21:33.468750,3.85
15:21:33.484375,4.39
15:21:33.500000,5.18
15:21:33.515625,5.98
15:21:33.531250,6.60
15:21:33.546875,6.94
15:21:33.562500,7.02
15:21:33.578125,6.93
15:21:33.593750,6.77
15:21:33.609375,6.55
15:21:33.625000,6.22
15:21:33.640625,5.68
15:21:33.656250,4.90
15:21:33.671875,3.91
15:21:33.687500,2.80
15:21:33.703125,1.72
15:21:33.718750,0.78
15:21:33.734375,0.06
15:21:33.750000,-0.45
15:21:33.765625,-0.82
15:21:33.781250,-1.15
15:21:33.796875,-1.56
15:21:33.812500,-2.06
15:21:33.828125,-2.59
15:21:33.843750,-3.03
15:21:33.859375,-3.30
15:21:33.875000,-3.38
15:21:33.890625,-3.40
15:21:33.906250,-3.56
15:21:33.921875,-4.01
15:21:33.937500,-4.79
15:21:33.953125,-5.81
15:21:33.968750,-6.96
15:21:33.984375,-8.15
15:21:34,-9.37
15:21:34.015625,-10.63
15:21:34.031250,-11.88
15:21:34.046875,-12.90
15:21:34.062500,-13.39
15:21:34.078125,-12.98
15:21:34.093750,-11.47
15:21:34.109375,-8.92
15:21:34.125000,-5.67
15:21:34.140625,-2.25
15:21:34.156250,0.83
15:21:34.171875,3.22
15:21:34.187500,4.81
15:21:34.203125,5.75
15:21:34.218750,6.23
15:21:34.234375,6.44
15:21:34.250000,6.42
15:21:34.265625,6.16
15:21:34.281250,5.60
15:21:34.296875,4.78
15:21:34.312500,3.88
15:21:34.328125,3.12
15:21:34.343750,2.66
15:21:34.359375,2.54
15:21:34.375000,2.69
15:21:34.390625,2.95
15:21:34.406250,3.21
15:21:34.421875,3.38
15:21:34.437500,3.44
15:21:34.453125,3.39
15:21:34.468750,3.23
15:21:34.484375,3.00
15:21:34.500000,2.74
15:21:34.515625,2.46
15:21:34.531250,2.16
15:21:34.546875,1.78
15:21:34.562500,1.27
15:21:34.578125,0.63
15:21:34.593750,-0.15
15:21:34.609375,-0.99
15:21:34.625000,-1.83
15:21:34.640625,-2.64
15:21:34.656250,-3.37
15:21:34.671875,-4.03
15:21:34.687500,-4.61
15:21:34.703125,-5.10
15:21:34.718750,-5.51
15:21:34.734375,-5.90
15:21:34.750000,-6.37
15:21:34.765625,-7.02
15:21:34.781250,-7.91
15:21:34.796875,-8.99
15:21:34.812500,-10.17
15:21:34.828125,-11.26
15:21:34.843750,-12.04
15:21:34.859375,-12.22
15:21:34.875000,-11.56
15:21:34.890625,-9.96
15:21:34.906250,-7.50
15:21:34.921875,-4.50
15:21:34.937500,-1.46
15:21:34.953125,1.18
15:21:34.968750,3.09
15:21:34.984375,4.24
15:21:35,4.80
15:21:35.015625,5.05
15:21:35.031250,5.21
15:21:35.046875,5.36
15:21:35.062500,5.48
15:21:35.078125,5.50
15:21:35.093750,5.39
15:21:35.109375,5.23
15:21:35.125000,5.17
15:21:35.140625,5.31
15:21:35.156250,5.67
15:21:35.171875,6.20
15:21:35.187500,6.74
15:21:35.203125,7.15
15:21:35.218750,7.29
15:21:35.234375,7.11
15:21:35.250000,6.63
15:21:35.265625,5.90
15:21:35.281250,5.05
15:21:35.296875,4.21
15:21:35.312500,3.48
15:21:35.328125,2.92
15:21:35.343750,2.49
15:21:35.359375,2.11
15:21:35.375000,1.69
15:21:35.390625,1.19
15:21:35.406250,0.60
15:21:35.421875,-0.07
15:21:35.437500,-0.83
15:21:35.453125,-1.68
15:21:35.468750,-2.63
15:21:35.484375,-3.62
15:21:35.500000,-4.54
15:21:35.515625,-5.29
15:21:35.531250,-5.85
15:21:35.546875,-6.34
15:21:35.562500,-6.98
15:21:35.578125,-8.01
15:21:35.593750,-9.46
15:21:35.609375,-11.14
15:21:35.625000,-12.66
15:21:35.640625,-13.54
15:21:35.656250,-13.43
15:21:35.671875,-12.20
15:21:35.687500,-10.00
15:21:35.703125,-7.13
15:21:35.718750,-3.97
15:21:35.734375,-0.87
15:21:35.750000,1.92
15:21:35.765625,4.27
15:21:35.781250,6.11
15:21:35.796875,7.44
15:21:35.812500,8.27
15:21:35.828125,8.61
15:21:35.843750,8.53
15:21:35.859375,8.13
15:21:35.875000,7.56
15:21:35.890625,6.99
15:21:35.906250,6.55
15:21:35.921875,6.31
15:21:35.937500,6.25
15:21:35.953125,6.27
15:21:35.968750,6.28
15:21:35.984375,6.24
15:21:36,6.15
15:21:36.015625,6.06
15:21:36.031250,5.99
15:21:36.046875,5.96
15:21:36.062500,5.89
15:21:36.078125,5.72
15:21:36.093750,5.39
15:21:36.109375,4.87
15:21:36.125000,4.15
15:21:36.140625,3.31
15:21:36.156250,2.41
15:21:36.171875,1.53
15:21:36.187500,0.68
15:21:36.203125,-0.17
15:21:36.218750,-1.05
15:21:36.234375,-2.01
15:21:36.250000,-3.02
15:21:36.265625,-3.98
15:21:36.281250,-4.83
15:21:36.296875,-5.51
15:21:36.312500,-6.05
15:21:36.328125,-6.48
15:21:36.343750,-6.86
15:21:36.359375,-7.21
15:21:36.375000,-7.58
15:21:36.390625,-8.08
15:21:36.406250,-8.85
15:21:36.421875,-9.98
15:21:36.437500,-11.36
15:21:36.453125,-12.66
15:21:36.468750,-13.41
15:21:36.484375,-13.17
15:21:36.500000,-11.76
15:21:36.515625,-9.37
15:21:36.531250,-6.52
15:21:36.546875,-3.79
15:21:36.562500,-1.64
15:21:36.578125,-0.22
15:21:36.593750,0.58
15:21:36.609375,1.01
15:21:36.625000,1.28
15:21:36.640625,1.45
15:21:36.656250,1.48
15:21:36.671875,1.29
15:21:36.687500,0.87
15:21:36.703125,0.29
15:21:36.718750,-0.28
15:21:36.734375,-0.62
15:21:36.750000,-0.62
15:21:36.765625,-0.28
15:21:36.781250,0.26
15:21:36.796875,0.80
15:21:36.812500,1.15
15:21:36.828125,1.24
15:21:36.843750,1.05
15:21:36.859375,0.64
15:21:36.875000,0.02
15:21:36.890625,-0.86
15:21:36.906250,-2.00
15:21:36.921875,-3.34
15:21:36.937500,-4.68
15:21:36.953125,-5.78
15:21:36.968750,-6.44
15:21:36.984375,-6.67
15:21:37,-6.71
15:21:37.015625,-6.91
15:21:37.031250,-7.59
15:21:37.046875,-8.85
15:21:37.062500,-10.58
15:21:37.078125,-12.47
15:21:37.093750,-14.18
15:21:37.109375,-15.47
15:21:37.125000,-16.30
15:21:37.140625,-16.75
15:21:37.156250,-17.01
15:21:37.171875,-17.25
15:21:37.187500,-17.58
15:21:37.203125,-18.02
15:21:37.218750,-18.44
15:21:37.234375,-18.64
15:21:37.250000,-18.33
15:21:37.265625,-17.17
15:21:37.281250,-14.90
15:21:37.296875,-11.41
15:21:37.312500,-6.84
15:21:37.328125,-1.58
15:21:37.343750,3.78
15:21:37.359375,8.60
15:21:37.375000,12.35
15:21:37.390625,14.79
15:21:37.406250,15.93
15:21:37.421875,15.97
15:21:37.437500,15.17
15:21:37.453125,13.73
15:21:37.468750,11.82
15:21:37.484375,9.64
15:21:37.500000,7.43
15:21:37.515625,5.50
15:21:37.531250,4.11
15:21:37.546875,3.42
15:21:37.562500,3.36
15:21:37.578125,3.72
15:21:37.593750,4.28
15:21:37.609375,4.92
15:21:37.625000,5.66
15:21:37.640625,6.59
15:21:37.656250,7.76
15:21:37.671875,9.13
15:21:37.687500,10.53
15:21:37.703125,11.82
15:21:37.718750,12.90
15:21:37.734375,13.80
15:21:37.750000,14.56
15:21:37.765625,15.26
15:21:37.781250,15.92
15:21:37.796875,16.60
15:21:37.812500,17.43
15:21:37.828125,18.58
15:21:37.843750,20.23
15:21:37.859375,22.33
15:21:37.875000,24.63
15:21:37.890625,26.64
15:21:37.906250,27.84
15:21:37.921875,27.92
15:21:37.937500,26.94
15:21:37.953125,25.23
15:21:37.968750,23.26
15:21:37.984375,21.38
15:21:38,19.67
15:21:38.015625,17.92
15:21:38.031250,15.88
15:21:38.046875,13.36
15:21:38.062500,10.36
15:21:38.078125,7.04
15:21:38.093750,3.55
15:21:38.109375,0.02
15:21:38.125000,-3.49
15:21:38.140625,-6.84
15:21:38.156250,-9.75
15:21:38.171875,-11.83
15:21:38.187500,-12.72
15:21:38.203125,-12.23
15:21:38.218750,-10.53
15:21:38.234375,-8.05
15:21:38.250000,-5.42
15:21:38.265625,-3.17
15:21:38.281250,-1.66
15:21:38.296875,-0.97
15:21:38.312500,-0.98
15:21:38.328125,-1.49
15:21:38.343750,-2.24
15:21:38.359375,-3.06
15:21:38.375000,-3.81
15:21:38.390625,-4.41
15:21:38.406250,-4.83
15:21:38.421875,-5.05
15:21:38.437500,-5.08
15:21:38.453125,-4.87
15:21:38.468750,-4.43
15:21:38.484375,-3.76
15:21:38.500000,-2.88
15:21:38.515625,-1.87
15:21:38.531250,-0.85
15:21:38.546875,0.07
15:21:38.562500,0.83
15:21:38.578125,1.41
15:21:38.593750,1.82
15:21:38.609375,2.10
15:21:38.625000,2.30
15:21:38.640625,2.43
15:21:38.656250,2.44
15:21:38.671875,2.28
15:21:38.687500,1.88
15:21:38.703125,1.22
15:21:38.718750,0.34
15:21:38.734375,-0.59
15:21:38.750000,-1.38
15:21:38.765625,-1.89
15:21:38.781250,-2.10
15:21:38.796875,-2.14
15:21:38.812500,-2.20
15:21:38.828125,-2.46
15:21:38.843750,-2.99
15:21:38.859375,-3.74
15:21:38.875000,-4.55
15:21:38.890625,-5.27
15:21:38.906250,-5.79
15:21:38.921875,-6.06
15:21:38.937500,-6.14
15:21:38.953125,-6.11
15:21:38.968750,-6.14
15:21:38.984375,-6.39
15:21:39,-6.99
15:21:39.015625,-8.01
15:21:39.031250,-9.34
15:21:39.046875,-10.69
15:21:39.062500,-11.65
15:21:39.078125,-11.77
15:21:39.093750,-10.66
15:21:39.109375,-8.18
15:21:39.125000,-4.44
15:21:39.140625,0.15
15:21:39.156250,4.98
15:21:39.171875,9.43
15:21:39.187500,12.99
15:21:39.203125,15.38
15:21:39.218750,16.60
15:21:39.234375,16.85
15:21:39.250000,16.36
15:21:39.265625,15.35
15:21:39.281250,13.96
15:21:39.296875,12.25
15:21:39.312500,10.34
15:21:39.328125,8.38
15:21:39.343750,6.57
15:21:39.359375,5.09
15:21:39.375000,3.99
15:21:39.390625,3.16
15:21:39.406250,2.40
15:21:39.421875,1.52
15:21:39.437500,0.46
15:21:39.453125,-0.72
15:21:39.468750,-1.85
15:21:39.484375,-2.79
15:21:39.500000,-3.53
15:21:39.515625,-4.19
15:21:39.531250,-4.96
15:21:39.546875,-5.95
15:21:39.562500,-7.14
15:21:39.578125,-8.40
15:21:39.593750,-9.53
15:21:39.609375,-10.40
15:21:39.625000,-10.96
15:21:39.640625,-11.30
15:21:39.656250,-11.53
15:21:39.671875,-11.71
15:21:39.687500,-11.84
15:21:39.703125,-11.84
15:21:39.718750,-11.63
15:21:39.734375,-11.18
15:21:39.750000,-10.51
15:21:39.765625,-9.73
15:21:39.781250,-8.90
15:21:39.796875,-8.07
15:21:39.812500,-7.24
15:21:39.828125,-6.37
15:21:39.843750,-5.52
15:21:39.859375,-4.80
15:21:39.875000,-4.43
15:21:39.890625,-4.59
15:21:39.906250,-5.39
15:21:39.921875,-6.77
15:21:39.937500,-8.51
15:21:39.953125,-10.24
15:21:39.968750,-11.51
15:21:39.984375,-11.91
15:21:40,-11.08
15:21:40.015625,-8.80
15:21:40.031250,-5.12
15:21:40.046875,-0.33
15:21:40.062500,5.09
15:21:40.078125,10.55
15:21:40.093750,15.53
15:21:40.109375,19.73
15:21:40.125000,23.05
15:21:40.140625,25.56
15:21:40.156250,27.36
15:21:40.171875,28.52
15:21:40.187500,29.06
15:21:40.203125,28.98
15:21:40.218750,28.36
15:21:40.234375,27.31
15:21:40.250000,25.96
15:21:40.265625,24.41
15:21:40.281250,22.71
15:21:40.296875,20.87
15:21:40.312500,18.86
15:21:40.328125,16.69
15:21:40.343750,14.32
15:21:40.359375,11.67
15:21:40.375000,8.62
15:21:40.390625,5.10
15:21:40.406250,1.14
15:21:40.421875,-3.08
15:21:40.437500,-7.26
15:21:40.453125,-11.04
15:21:40.468750,-14.16
15:21:40.484375,-16.47
15:21:40.500000,-17.96
15:21:40.515625,-18.72
15:21:40.531250,-18.83
15:21:40.546875,-18.42
15:21:40.562500,-17.60
15:21:40.578125,-16.51
15:21:40.593750,-15.25
15:21:40.609375,-13.92
15:21:40.625000,-12.56
15:21:40.640625,-11.21
15:21:40.656250,-9.90
15:21:40.671875,-8.61
15:21:40.687500,-7.31
15:21:40.703125,-5.92
15:21:40.718750,-4.29
15:21:40.734375,-2.37
15:21:40.750000,-0.17
15:21:40.765625,2.19
15:21:40.781250,4.49
15:21:40.796875,6.52
15:21:40.812500,8.11
15:21:40.828125,9.17
15:21:40.843750,9.74
15:21:40.859375,9.98
15:21:40.875000,10.19
15:21:40.890625,10.76
15:21:40.906250,12.11
15:21:40.921875,14.53
15:21:40.937500,18.05
15:21:40.953125,22.36
15:21:40.968750,26.84
15:21:40.984375,30.80
15:21:41,33.68
15:21:41.015625,35.20
15:21:41.031250,35.46
15:21:41.046875,34.78
15:21:41.062500,33.57
15:21:41.078125,32.12
15:21:41.093750,30.60
15:21:41.109375,29.03
15:21:41.125000,27.43
15:21:41.140625,25.85
15:21:41.156250,24.40
15:21:41.171875,23.24
15:21:41.187500,22.39
15:21:41.203125,21.75
15:21:41.218750,21.10
15:21:41.234375,20.14
15:21:41.250000,18.66
15:21:41.265625,16.58
15:21:41.281250,14.00
15:21:41.296875,11.09
15:21:41.312500,8.09
15:21:41.328125,5.19
15:21:41.343750,2.50
15:21:41.359375,0.06
15:21:41.375000,-2.15
15:21:41.390625,-4.13
15:21:41.406250,-5.89
15:21:41.421875,-7.42
15:21:41.437500,-8.70
15:21:41.453125,-9.76
15:21:41.468750,-10.74
15:21:41.484375,-11.86
15:21:41.500000,-13.39
15:21:41.515625,-15.64
15:21:41.531250,-18.83
15:21:41.546875,-23.01
15:21:41.562500,-28.05
15:21:41.578125,-33.64
15:21:41.593750,-39.38
15:21:41.609375,-44.88
15:21:41.625000,-49.93
15:21:41.640625,-54.53
15:21:41.656250,-58.83
15:21:41.671875,-63.06
15:21:41.687500,-67.34
15:21:41.703125,-71.67
15:21:41.718750,-75.87
15:21:41.734375,-79.72
15:21:41.750000,-82.97
15:21:41.765625,-85.42
15:21:41.781250,-86.88
15:21:41.796875,-87.14
15:21:41.812500,-86.09
15:21:41.828125,-83.76
15:21:41.843750,-80.44
15:21:41.859375,-76.62
15:21:41.875000,-72.76
15:21:41.890625,-69.03
15:21:41.906250,-65.16
15:21:41.921875,-60.43
15:21:41.937500,-53.99
15:21:41.953125,-45.27
15:21:41.968750,-34.25
15:21:41.984375,-21.48
15:21:42,-7.93
15:21:42.015625,5.41
15:21:42.031250,17.75
15:21:42.046875,28.60
15:21:42.062500,37.70
15:21:42.078125,44.89
15:21:42.093750,50.07
15:21:42.109375,53.27
15:21:42.125000,54.83
15:21:42.140625,55.35
15:21:42.156250,55.60
15:21:42.171875,56.26
15:21:42.187500,57.71
15:21:42.203125,59.88
15:21:42.218750,62.36
15:21:42.234375,64.56
15:21:42.250000,65.95
15:21:42.265625,66.18
15:21:42.281250,65.11
15:21:42.296875,62.69
15:21:42.312500,58.94
15:21:42.328125,53.92
15:21:42.343750,47.76
15:21:42.359375,40.82
15:21:42.375000,33.67
15:21:42.390625,26.99
15:21:42.406250,21.43
15:21:42.421875,17.41
15:21:42.437500,14.97
15:21:42.453125,13.79
15:21:42.468750,13.36
15:21:42.484375,13.21
15:21:42.500000,13.07
15:21:42.515625,12.92
15:21:42.531250,12.99
15:21:42.546875,13.54
15:21:42.562500,14.75
15:21:42.578125,16.54
15:21:42.593750,18.60
15:21:42.609375,20.45
15:21:42.625000,21.64
15:21:42.640625,21.89
15:21:42.656250,21.21
15:21:42.671875,19.87
15:21:42.687500,18.28
15:21:42.703125,16.89
15:21:42.718750,15.98
15:21:42.734375,15.64
15:21:42.750000,15.70
15:21:42.765625,15.72
15:21:42.781250,15.10
15:21:42.796875,13.14
15:21:42.812500,9.22
15:21:42.828125,3.07
15:21:42.843750,-5.13
15:21:42.859375,-14.71
15:21:42.875000,-24.68
15:21:42.890625,-34.08
15:21:42.906250,-42.29
15:21:42.921875,-49.13
15:21:42.937500,-54.80
15:21:42.953125,-59.56
15:21:42.968750,-63.57
15:21:42.984375,-66.71
15:21:43,-68.71
15:21:43.015625,-69.31
15:21:43.031250,-68.43
15:21:43.046875,-66.25
15:21:43.062500,-63.05
15:21:43.078125,-59.13
15:21:43.093750,-54.66
15:21:43.109375,-49.71
15:21:43.125000,-44.28
15:21:43.140625,-38.41
15:21:43.156250,-32.20
15:21:43.171875,-25.81
15:21:43.187500,-19.40
15:21:43.203125,-13.09
15:21:43.218750,-6.98
15:21:43.234375,-1.13
15:21:43.250000,4.37
15:21:43.265625,9.41
15:21:43.281250,13.84
15:21:43.296875,17.46
15:21:43.312500,20.09
15:21:43.328125,21.56
15:21:43.343750,21.84
15:21:43.359375,21.02
15:21:43.375000,19.30
15:21:43.390625,16.94
15:21:43.406250,14.13
15:21:43.421875,10.98
15:21:43.437500,7.53
15:21:43.453125,3.88
15:21:43.468750,0.27
15:21:43.484375,-2.87
15:21:43.500000,-5.04
15:21:43.515625,-5.84
15:21:43.531250,-5.11
15:21:43.546875,-3.04
15:21:43.562500,-0.13
15:21:43.578125,3.02
15:21:43.593750,5.88
15:21:43.609375,8.15
15:21:43.625000,9.77
15:21:43.640625,10.89
15:21:43.656250,11.68
15:21:43.671875,12.24
15:21:43.687500,12.55
15:21:43.703125,12.55
15:21:43.718750,12.21
15:21:43.734375,11.69
15:21:43.750000,11.25
15:21:43.765625,11.23
15:21:43.781250,11.84
15:21:43.796875,13.10
15:21:43.812500,14.83
15:21:43.828125,16.72
15:21:43.843750,18.54
15:21:43.859375,20.17
15:21:43.875000,21.58
15:21:43.890625,22.76
15:21:43.906250,23.60
15:21:43.921875,23.90
15:21:43.937500,23.42
15:21:43.953125,22.01
15:21:43.968750,19.71
15:21:43.984375,16.73
15:21:44,13.42
15:21:44.015625,10.10
15:21:44.031250,6.99
15:21:44.046875,4.13
15:21:44.062500,1.47
15:21:44.078125,-1.08
15:21:44.093750,-3.54
15:21:44.109375,-5.88
15:21:44.125000,-8.05
15:21:44.140625,-10.10
15:21:44.156250,-12.16
15:21:44.171875,-14.47
15:21:44.187500,-17.14
15:21:44.203125,-20.11
15:21:44.218750,-23.03
15:21:44.234375,-25.39
15:21:44.250000,-26.66
15:21:44.265625,-26.51
15:21:44.281250,-24.92
15:21:44.296875,-22.14
15:21:44.312500,-18.57
15:21:44.328125,-14.64
15:21:44.343750,-10.68
15:21:44.359375,-6.91
15:21:44.375000,-3.42
15:21:44.390625,-0.25
15:21:44.406250,2.59
15:21:44.421875,5.15
15:21:44.437500,7.43
15:21:44.453125,9.41
15:21:44.468750,10.98
15:21:44.484375,12.06
15:21:44.500000,12.61
15:21:44.515625,12.71
15:21:44.531250,12.57
15:21:44.546875,12.45
15:21:44.562500,12.53
15:21:44.578125,12.86
15:21:44.593750,13.33
15:21:44.609375,13.74
15:21:44.625000,13.95
15:21:44.640625,13.91
15:21:44.656250,13.64
15:21:44.671875,13.21
15:21:44.687500,12.63
15:21:44.703125,11.87
15:21:44.718750,10.88
15:21:44.734375,9.67
15:21:44.750000,8.34
15:21:44.765625,7.02
15:21:44.781250,5.84
15:21:44.796875,4.86
15:21:44.812500,4.08
15:21:44.828125,3.44
15:21:44.843750,2.83
15:21:44.859375,2.14
15:21:44.875000,1.30
15:21:44.890625,0.27
15:21:44.906250,-0.90
15:21:44.921875,-2.17
15:21:44.937500,-3.46
15:21:44.953125,-4.65
15:21:44.968750,-5.59
15:21:44.984375,-6.05
15:21:45,-5.79
15:21:45.015625,-4.60
15:21:45.031250,-2.41
15:21:45.046875,0.59
15:21:45.062500,4.03
15:21:45.078125,7.42
15:21:45.093750,10.31
15:21:45.109375,12.42
15:21:45.125000,13.68
15:21:45.140625,14.24
15:21:45.156250,14.28
15:21:45.171875,13.93
15:21:45.187500,13.22
15:21:45.203125,12.08
15:21:45.218750,10.45
15:21:45.234375,8.39
15:21:45.250000,6.12
15:21:45.265625,3.98
15:21:45.281250,2.29
15:21:45.296875,1.28
15:21:45.312500,0.97
15:21:45.328125,1.21
15:21:45.343750,1.78
15:21:45.359375,2.44
15:21:45.375000,3.05
15:21:45.390625,3.54
15:21:45.406250,3.90
15:21:45.421875,4.10
15:21:45.437500,4.14
15:21:45.453125,3.96
15:21:45.468750,3.51
15:21:45.484375,2.70
15:21:45.500000,1.47
15:21:45.515625,-0.20
15:21:45.531250,-2.24
15:21:45.546875,-4.52
15:21:45.562500,-6.85
15:21:45.578125,-9.08
15:21:45.593750,-11.08
15:21:45.609375,-12.78
15:21:45.625000,-14.17
15:21:45.640625,-15.27
15:21:45.656250,-16.08
15:21:45.671875,-16.64
15:21:45.687500,-16.99
15:21:45.703125,-17.21
15:21:45.718750,-17.41
15:21:45.734375,-17.66
15:21:45.750000,-18.00
15:21:45.765625,-18.30
15:21:45.781250,-18.36
15:21:45.796875,-17.93
15:21:45.812500,-16.76
15:21:45.828125,-14.77
15:21:45.843750,-12.03
15:21:45.859375,-8.78
15:21:45.875000,-5.33
15:21:45.890625,-2.02
15:21:45.906250,0.92
15:21:45.921875,3.31
15:21:45.937500,5.10
15:21:45.953125,6.30
15:21:45.968750,7.01
15:21:45.984375,7.40
15:21:46,7.65
15:21:46.015625,7.89
15:21:46.031250,8.17
15:21:46.046875,8.44
15:21:46.062500,8.66
15:21:46.078125,8.80
15:21:46.093750,8.92
15:21:46.109375,9.10
15:21:46.125000,9.38
15:21:46.140625,9.73
15:21:46.156250,10.04
15:21:46.171875,10.19
15:21:46.187500,10.08
15:21:46.203125,9.72
15:21:46.218750,9.13
15:21:46.234375,8.39
15:21:46.250000,7.50
15:21:46.265625,6.49
15:21:46.281250,5.35
15:21:46.296875,4.15
15:21:46.312500,2.97
15:21:46.328125,1.90
15:21:46.343750,1.00
15:21:46.359375,0.26
15:21:46.375000,-0.38
15:21:46.390625,-0.96
15:21:46.406250,-1.49
15:21:46.421875,-1.92
15:21:46.437500,-2.19
15:21:46.453125,-2.32
15:21:46.468750,-2.39
15:21:46.484375,-2.57
15:21:46.500000,-3.07
15:21:46.515625,-4.01
15:21:46.531250,-5.43
15:21:46.546875,-7.23
15:21:46.562500,-9.12
15:21:46.578125,-10.70
15:21:46.593750,-11.53
15:21:46.609375,-11.27
15:21:46.625000,-9.77
15:21:46.640625,-7.18
15:21:46.656250,-3.92
15:21:46.671875,-0.54
15:21:46.687500,2.48
15:21:46.703125,4.80
15:21:46.718750,6.37
15:21:46.734375,7.30
15:21:46.750000,7.79
15:21:46.765625,8.03
15:21:46.781250,8.13
15:21:46.796875,8.16
15:21:46.812500,8.11
15:21:46.828125,8.00
15:21:46.843750,7.89
15:21:46.859375,7.80
15:21:46.875000,7.79
15:21:46.890625,7.86
15:21:46.906250,7.93
15:21:46.921875,7.91
15:21:46.937500,7.68
15:21:46.953125,7.20
15:21:46.968750,6.55
15:21:46.984375,5.86
15:21:47,5.28
15:21:47.015625,4.88
15:21:47.031250,4.63
15:21:47.046875,4.38
15:21:47.062500,3.98
15:21:47.078125,3.32
15:21:47.093750,2.42
15:21:47.109375,1.37
15:21:47.125000,0.30
15:21:47.140625,-0.69
15:21:47.156250,-1.53
15:21:47.171875,-2.24
15:21:47.187500,-2.88
15:21:47.203125,-3.55
15:21:47.218750,-4.33
15:21:47.234375,-5.31
15:21:47.250000,-6.48
15:21:47.265625,-7.73
15:21:47.281250,-8.86
15:21:47.296875,-9.67
15:21:47.312500,-10.04
15:21:47.328125,-10.03
15:21:47.343750,-9.87
15:21:47.359375,-9.86
15:21:47.375000,-10.25
15:21:47.390625,-11.12
15:21:47.406250,-12.36
15:21:47.421875,-13.69
15:21:47.437500,-14.79
15:21:47.453125,-15.32
15:21:47.468750,-15.02
15:21:47.484375,-13.70
15:21:47.500000,-11.32
15:21:47.515625,-8.05
15:21:47.531250,-4.26
15:21:47.546875,-0.45
15:21:47.562500,2.87
15:21:47.578125,5.34
15:21:47.593750,6.88
15:21:47.609375,7.61
15:21:47.625000,7.80
15:21:47.640625,7.70
15:21:47.656250,7.51
15:21:47.671875,7.35
15:21:47.687500,7.26
15:21:47.703125,7.29
15:21:47.718750,7.43
15:21:47.734375,7.66
15:21:47.750000,7.89
15:21:47.765625,8.03
15:21:47.781250,8.00
15:21:47.796875,7.74
15:21:47.812500,7.26
15:21:47.828125,6.62
15:21:47.843750,5.92
15:21:47.859375,5.26
15:21:47.875000,4.72
15:21:47.890625,4.31
15:21:47.906250,4.02
15:21:47.921875,3.79
15:21:47.937500,3.54
15:21:47.953125,3.20
15:21:47.968750,2.71
15:21:47.984375,2.07
15:21:48,1.31
15:21:48.015625,0.51
15:21:48.031250,-0.22
15:21:48.046875,-0.75
15:21:48.062500,-0.98
15:21:48.078125,-0.91
15:21:48.093750,-0.62
15:21:48.109375,-0.30
15:21:48.125000,-0.15
15:21:48.140625,-0.37
15:21:48.156250,-1.01
15:21:48.171875,-2.03
15:21:48.187500,-3.23
15:21:48.203125,-4.39
15:21:48.218750,-5.24
15:21:48.234375,-5.68
15:21:48.250000,-5.70
15:21:48.265625,-5.48
15:21:48.281250,-5.27
15:21:48.296875,-5.33
15:21:48.312500,-5.83
15:21:48.328125,-6.80
15:21:48.343750,-8.11
15:21:48.359375,-9.52
15:21:48.375000,-10.65
15:21:48.390625,-11.14
15:21:48.406250,-10.70
15:21:48.421875,-9.17
15:21:48.437500,-6.71
15:21:48.453125,-3.65
15:21:48.468750,-0.54
15:21:48.484375,2.11
15:21:48.500000,3.95
15:21:48.515625,4.93
15:21:48.531250,5.24
15:21:48.546875,5.19
15:21:48.562500,5.05
15:21:48.578125,4.96
15:21:48.593750,4.87
15:21:48.609375,4.67
15:21:48.625000,4.24
15:21:48.640625,3.54
15:21:48.656250,2.62
15:21:48.671875,1.60
15:21:48.687500,0.59
15:21:48.703125,-0.32
15:21:48.718750,-1.10
15:21:48.734375,-1.74
15:21:48.750000,-2.28
15:21:48.765625,-2.70
15:21:48.781250,-2.97
15:21:48.796875,-3.03
15:21:48.812500,-2.83
15:21:48.828125,-2.31
15:21:48.843750,-1.44
15:21:48.859375,-0.23
15:21:48.875000,1.27
15:21:48.890625,3.02
15:21:48.906250,4.91
15:21:48.921875,6.84
15:21:48.937500,8.65
15:21:48.953125,10.18
15:21:48.968750,11.27
15:21:48.984375,11.84
15:21:49,11.90
15:21:49.015625,11.59
15:21:49.031250,11.11
15:21:49.046875,10.66
15:21:49.062500,10.40
15:21:49.078125,10.33
15:21:49.093750,10.39
15:21:49.109375,10.40
15:21:49.125000,10.24
15:21:49.140625,9.77
15:21:49.156250,8.94
15:21:49.171875,7.69
15:21:49.187500,5.99
15:21:49.203125,3.78
15:21:49.218750,1.09
15:21:49.234375,-1.98
15:21:49.250000,-5.25
15:21:49.265625,-8.42
15:21:49.281250,-11.19
15:21:49.296875,-13.32
15:21:49.312500,-14.62
15:21:49.328125,-14.99
15:21:49.343750,-14.47
15:21:49.359375,-13.15
15:21:49.375000,-11.26
15:21:49.390625,-9.09
15:21:49.406250,-7.00
15:21:49.421875,-5.29
15:21:49.437500,-4.14
15:21:49.453125,-3.55
15:21:49.468750,-3.36
15:21:49.484375,-3.34
15:21:49.500000,-3.25
15:21:49.515625,-2.97
15:21:49.531250,-2.49
15:21:49.546875,-1.84
15:21:49.562500,-1.08
15:21:49.578125,-0.17
15:21:49.593750,0.91
15:21:49.609375,2.19
15:21:49.625000,3.61
15:21:49.640625,4.98
15:21:49.656250,6.10
15:21:49.671875,6.81
15:21:49.687500,7.06
15:21:49.703125,6.96
15:21:49.718750,6.71
15:21:49.734375,6.53
15:21:49.750000,6.49
15:21:49.765625,6.55
15:21:49.781250,6.49
15:21:49.796875,6.05
15:21:49.812500,5.04
15:21:49.828125,3.40
15:21:49.843750,1.23
15:21:49.859375,-1.26
15:21:49.875000,-3.83
15:21:49.890625,-6.31
15:21:49.906250,-8.59
15:21:49.921875,-10.67
15:21:49.937500,-12.58
15:21:49.953125,-14.36
15:21:49.968750,-15.97
15:21:49.984375,-17.33
15:21:50,-18.30
15:21:50.015625,-18.78
15:21:50.031250,-18.77
15:21:50.046875,-18.32
15:21:50.062500,-17.59
15:21:50.078125,-16.68
15:21:50.093750,-15.68
15:21:50.109375,-14.60
15:21:50.125000,-13.48
15:21:50.140625,-12.41
15:21:50.156250,-11.54
15:21:50.171875,-11.03
15:21:50.187500,-10.91
15:21:50.203125,-11.02
15:21:50.218750,-10.97
15:21:50.234375,-10.31
15:21:50.250000,-8.66
15:21:50.265625,-5.96
15:21:50.281250,-2.47
15:21:50.296875,1.31
15:21:50.312500,4.81
15:21:50.328125,7.58
15:21:50.343750,9.46
15:21:50.359375,10.50
15:21:50.375000,10.89
15:21:50.390625,10.86
15:21:50.406250,10.54
15:21:50.421875,10.02
15:21:50.437500,9.37
15:21:50.453125,8.68
15:21:50.468750,8.09
15:21:50.484375,7.71
15:21:50.500000,7.55
15:21:50.515625,7.55
15:21:50.531250,7.54
15:21:50.546875,7.35
15:21:50.562500,6.88
15:21:50.578125,6.16
15:21:50.593750,5.37
15:21:50.609375,4.75
15:21:50.625000,4.46
15:21:50.640625,4.53
15:21:50.656250,4.78
15:21:50.671875,4.90
15:21:50.687500,4.60
15:21:50.703125,3.77
15:21:50.718750,2.46
15:21:50.734375,0.91
15:21:50.750000,-0.58
15:21:50.765625,-1.78
15:21:50.781250,-2.59
15:21:50.796875,-3.05
15:21:50.812500,-3.28
15:21:50.828125,-3.42
15:21:50.843750,-3.57
15:21:50.859375,-3.74
15:21:50.875000,-3.91
15:21:50.890625,-4.04
15:21:50.906250,-4.06
15:21:50.921875,-3.99
15:21:50.937500,-3.78
15:21:50.953125,-3.46
15:21:50.968750,-3.03
15:21:50.984375,-2.56
15:21:51,-2.17
15:21:51.015625,-2.02
15:21:51.031250,-2.27
15:21:51.046875,-3.00
15:21:51.062500,-4.09
15:21:51.078125,-5.28
15:21:51.093750,-6.17
15:21:51.109375,-6.45
15:21:51.125000,-5.92
15:21:51.140625,-4.64
15:21:51.156250,-2.83
15:21:51.171875,-0.82
15:21:51.187500,1.07
15:21:51.203125,2.62
15:21:51.218750,3.69
15:21:51.234375,4.25
15:21:51.250000,4.38
15:21:51.265625,4.23
15:21:51.281250,3.95
15:21:51.296875,3.70
15:21:51.312500,3.60
15:21:51.328125,3.66
15:21:51.343750,3.88
15:21:51.359375,4.19
15:21:51.375000,4.55
15:21:51.390625,4.95
15:21:51.406250,5.37
15:21:51.421875,5.77
15:21:51.437500,6.06
15:21:51.453125,6.14
15:21:51.468750,5.98
15:21:51.484375,5.64
15:21:51.500000,5.29
15:21:51.515625,5.10
15:21:51.531250,5.14
15:21:51.546875,5.30
15:21:51.562500,5.40
15:21:51.578125,5.24
15:21:51.593750,4.82
15:21:51.609375,4.27
15:21:51.625000,3.84
15:21:51.640625,3.62
15:21:51.656250,3.48
15:21:51.671875,3.08
15:21:51.687500,2.10
15:21:51.703125,0.43
15:21:51.718750,-1.66
15:21:51.734375,-3.65
15:21:51.750000,-5.05
15:21:51.765625,-5.65
15:21:51.781250,-5.62
15:21:51.796875,-5.40
15:21:51.812500,-5.45
15:21:51.828125,-6.05
15:21:51.843750,-7.19
15:21:51.859375,-8.65
15:21:51.875000,-10.17
15:21:51.890625,-11.52
15:21:51.906250,-12.49
15:21:51.921875,-12.87
15:21:51.937500,-12.44
15:21:51.953125,-11.03
15:21:51.968750,-8.69
15:21:51.984375,-5.74
15:21:52,-2.70
15:21:52.015625,-0.12
15:21:52.031250,1.67
15:21:52.046875,2.64
15:21:52.062500,3.03
15:21:52.078125,3.13
15:21:52.093750,3.15
15:21:52.109375,3.13
15:21:52.125000,3.01
15:21:52.140625,2.75
15:21:52.156250,2.45
15:21:52.171875,2.24
15:21:52.187500,2.28
15:21:52.203125,2.56
15:21:52.218750,3.00
15:21:52.234375,3.41
15:21:52.250000,3.65
15:21:52.265625,3.69
15:21:52.281250,3.59
15:21:52.296875,3.44
15:21:52.312500,3.36
15:21:52.328125,3.39
15:21:52.343750,3.53
15:21:52.359375,3.72
15:21:52.375000,3.89
15:21:52.390625,3.90
15:21:52.406250,3.69
15:21:52.421875,3.19
15:21:52.437500,2.46
15:21:52.453125,1.59
15:21:52.468750,0.70
15:21:52.484375,-0.14
15:21:52.500000,-0.89
15:21:52.515625,-1.55
15:21:52.531250,-2.15
15:21:52.546875,-2.74
15:21:52.562500,-3.37
15:21:52.578125,-4.09
15:21:52.593750,-4.98
15:21:52.609375,-6.11
15:21:52.625000,-7.48
15:21:52.640625,-9.03
15:21:52.656250,-10.55
15:21:52.671875,-11.79
15:21:52.687500,-12.45
15:21:52.703125,-12.27
15:21:52.718750,-11.14
15:21:52.734375,-9.13
15:21:52.750000,-6.51
15:21:52.765625,-3.71
15:21:52.781250,-1.14
15:21:52.796875,0.91
15:21:52.812500,2.32
15:21:52.828125,3.16
15:21:52.843750,3.59
15:21:52.859375,3.76
15:21:52.875000,3.74
15:21:52.890625,3.56
15:21:52.906250,3.23
15:21:52.921875,2.80
15:21:52.937500,2.33
15:21:52.953125,1.94
15:21:52.968750,1.69
15:21:52.984375,1.60
15:21:53,1.65
15:21:53.015625,1.79
15:21:53.031250,1.94
15:21:53.046875,2.03
15:21:53.062500,2.01
15:21:53.078125,1.81
15:21:53.093750,1.45
15:21:53.109375,0.98
15:21:53.125000,0.54
15:21:53.140625,0.30
15:21:53.156250,0.41
15:21:53.171875,0.98
15:21:53.187500,2.02
15:21:53.203125,3.39
15:21:53.218750,4.88
15:21:53.234375,6.22
15:21:53.250000,7.15
15:21:53.265625,7.52
15:21:53.281250,7.32
15:21:53.296875,6.68
15:21:53.312500,5.80
15:21:53.328125,4.82
15:21:53.343750,3.83
15:21:53.359375,2.77
15:21:53.375000,1.57
15:21:53.390625,0.12
15:21:53.406250,-1.61
15:21:53.421875,-3.49
15:21:53.437500,-5.27
15:21:53.453125,-6.56
15:21:53.468750,-6.97
15:21:53.484375,-6.18
15:21:53.500000,-4.07
15:21:53.515625,-0.78
15:21:53.531250,3.28
15:21:53.546875,7.53
15:21:53.562500,11.37
15:21:53.578125,14.28
15:21:53.593750,15.98
15:21:53.609375,16.39
15:21:53.625000,15.66
15:21:53.640625,14.09
15:21:53.656250,12.02
15:21:53.671875,9.78
15:21:53.687500,7.62
15:21:53.703125,5.72
15:21:53.718750,4.21
15:21:53.734375,3.17
15:21:53.750000,2.64
15:21:53.765625,2.58
15:21:53.781250,2.87
15:21:53.796875,3.31
15:21:53.812500,3.67
15:21:53.828125,3.77
15:21:53.843750,3.52
15:21:53.859375,2.93
15:21:53.875000,2.12
15:21:53.890625,1.21
15:21:53.906250,0.32
15:21:53.921875,-0.46
15:21:53.937500,-1.08
15:21:53.953125,-1.56
15:21:53.968750,-1.96
15:21:53.984375,-2.38
15:21:54,-2.94
15:21:54.015625,-3.69
15:21:54.031250,-4.61
15:21:54.046875,-5.60
15:21:54.062500,-6.54
15:21:54.078125,-7.31
15:21:54.093750,-7.83
15:21:54.109375,-8.11
15:21:54.125000,-8.22
15:21:54.140625,-8.28
15:21:54.156250,-8.47
15:21:54.171875,-8.97
15:21:54.187500,-9.85
15:21:54.203125,-10.99
15:21:54.218750,-12.08
15:21:54.234375,-12.71
15:21:54.250000,-12.46
15:21:54.265625,-11.11
15:21:54.281250,-8.69
15:21:54.296875,-5.52
15:21:54.312500,-2.11
15:21:54.328125,0.97
15:21:54.343750,3.30
15:21:54.359375,4.68
15:21:54.375000,5.20
15:21:54.390625,5.16
15:21:54.406250,4.96
15:21:54.421875,4.92
15:21:54.437500,5.18
15:21:54.453125,5.70
15:21:54.468750,6.30
15:21:54.484375,6.83
15:21:54.500000,7.22
15:21:54.515625,7.54
15:21:54.531250,7.88
15:21:54.546875,8.23
15:21:54.562500,8.50
15:21:54.578125,8.51
15:21:54.593750,8.12
15:21:54.609375,7.34
15:21:54.625000,6.31
15:21:54.640625,5.24
15:21:54.656250,4.31
15:21:54.671875,3.57
15:21:54.687500,2.97
15:21:54.703125,2.38
15:21:54.718750,1.69
15:21:54.734375,0.87
15:21:54.750000,-0.01
15:21:54.765625,-0.89
15:21:54.781250,-1.72
15:21:54.796875,-2.52
15:21:54.812500,-3.34
15:21:54.828125,-4.21
15:21:54.843750,-5.13
15:21:54.859375,-6.02
15:21:54.875000,-6.83
15:21:54.890625,-7.52
15:21:54.906250,-8.09
15:21:54.921875,-8.60
15:21:54.937500,-9.08
15:21:54.953125,-9.55
15:21:54.968750,-9.91
15:21:54.984375,-10.04
15:21:55,-9.73
15:21:55.015625,-8.80
15:21:55.031250,-7.19
15:21:55.046875,-4.96
15:21:55.062500,-2.36
15:21:55.078125,0.20
15:21:55.093750,2.34
15:21:55.109375,3.79
15:21:55.125000,4.49
15:21:55.140625,4.64
15:21:55.156250,4.58
15:21:55.171875,4.59
15:21:55.187500,4.85
15:21:55.203125,5.33
15:21:55.218750,5.92
15:21:55.234375,6.50
15:21:55.250000,6.98
15:21:55.265625,7.38
15:21:55.281250,7.71
15:21:55.296875,7.98
15:21:55.312500,8.16
15:21:55.328125,8.18
15:21:55.343750,8.04
15:21:55.359375,7.72
15:21:55.375000,7.27
15:21:55.390625,6.71
15:21:55.406250,6.07
15:21:55.421875,5.33
15:21:55.437500,4.50
15:21:55.453125,3.58
15:21:55.468750,2.55
15:21:55.484375,1.38
15:21:55.500000,0.04
15:21:55.515625,-1.45
15:21:55.531250,-3.00
15:21:55.546875,-4.46
15:21:55.562500,-5.75
15:21:55.578125,-6.86
15:21:55.593750,-7.88
15:21:55.609375,-8.93
15:21:55.625000,-10.06
15:21:55.640625,-11.19
15:21:55.656250,-12.17
15:21:55.671875,-12.91
15:21:55.687500,-13.49
15:21:55.703125,-14.13
15:21:55.718750,-15.05
15:21:55.734375,-16.26
15:21:55.750000,-17.44
15:21:55.765625,-18.06
15:21:55.781250,-17.57
15:21:55.796875,-15.71
15:21:55.812500,-12.64
15:21:55.828125,-8.85
15:21:55.843750,-4.99
15:21:55.859375,-1.56
15:21:55.875000,1.23
15:21:55.890625,3.41
15:21:55.906250,5.14
15:21:55.921875,6.56
15:21:55.937500,7.70
15:21:55.953125,8.55
15:21:55.968750,9.12
15:21:55.984375,9.52
15:21:56,9.96
15:21:56.015625,10.61
15:21:56.031250,11.51
15:21:56.046875,12.53
15:21:56.062500,13.38
15:21:56.078125,13.82
15:21:56.093750,13.73
15:21:56.109375,13.21
15:21:56.125000,12.54
15:21:56.140625,12.01
15:21:56.156250,11.80
15:21:56.171875,11.89
15:21:56.187500,12.08
15:21:56.203125,12.13
15:21:56.218750,11.80
15:21:56.234375,10.94
15:21:56.250000,9.48
15:21:56.265625,7.36
15:21:56.281250,4.52
15:21:56.296875,0.93
15:21:56.312500,-3.28
15:21:56.328125,-7.78
15:21:56.343750,-12.10
15:21:56.359375,-15.85
15:21:56.375000,-18.90
15:21:56.390625,-21.47
15:21:56.406250,-23.98
15:21:56.421875,-26.76
15:21:56.437500,-29.78
15:21:56.453125,-32.59
15:21:56.468750,-34.46
15:21:56.484375,-34.74
15:21:56.500000,-33.19
15:21:56.515625,-29.97
15:21:56.531250,-25.55
15:21:56.546875,-20.41
15:21:56.562500,-14.94
15:21:56.578125,-9.33
15:21:56.593750,-3.77
15:21:56.609375,1.51
15:21:56.625000,6.17
15:21:56.640625,9.85
15:21:56.656250,12.30
15:21:56.671875,13.49
15:21:56.687500,13.60
15:21:56.703125,12.98
15:21:56.718750,11.99
15:21:56.734375,10.95
15:21:56.750000,10.07
15:21:56.765625,9.46
15:21:56.781250,9.15
15:21:56.796875,9.08
15:21:56.812500,9.16
15:21:56.828125,9.25
15:21:56.843750,9.22
15:21:56.859375,9.00
15:21:56.875000,8.64
15:21:56.890625,8.28
15:21:56.906250,8.10
15:21:56.921875,8.20
15:21:56.937500,8.53
15:21:56.953125,8.87
15:21:56.968750,8.94
15:21:56.984375,8.55
15:21:57,7.72
15:21:57.015625,6.61
15:21:57.031250,5.50
15:21:57.046875,4.63
15:21:57.062500,4.08
15:21:57.078125,3.82
15:21:57.093750,3.66
15:21:57.109375,3.45
15:21:57.125000,3.03
15:21:57.140625,2.29
15:21:57.156250,1.19
15:21:57.171875,-0.24
15:21:57.187500,-1.90
15:21:57.203125,-3.56
15:21:57.218750,-4.97
15:21:57.234375,-5.86
15:21:57.250000,-6.06
15:21:57.265625,-5.55
15:21:57.281250,-4.50
15:21:57.296875,-3.18
15:21:57.312500,-1.93
15:21:57.328125,-0.98
15:21:57.343750,-0.45
15:21:57.359375,-0.28
15:21:57.375000,-0.33
15:21:57.390625,-0.45
15:21:57.406250,-0.54
15:21:57.421875,-0.60
15:21:57.437500,-0.64
15:21:57.453125,-0.61
15:21:57.468750,-0.41
15:21:57.484375,0.07
15:21:57.500000,0.88
15:21:57.515625,1.92
15:21:57.531250,3.01
15:21:57.546875,3.90
15:21:57.562500,4.42
15:21:57.578125,4.52
15:21:57.593750,4.28
15:21:57.609375,3.83
15:21:57.625000,3.29
15:21:57.640625,2.74
15:21:57.656250,2.15
15:21:57.671875,1.49
15:21:57.687500,0.72
15:21:57.703125,-0.17
15:21:57.718750,-1.16
15:21:57.734375,-2.19
15:21:57.750000,-3.17
15:21:57.765625,-4.03
15:21:57.781250,-4.68
15:21:57.796875,-5.09
15:21:57.812500,-5.27
15:21:57.828125,-5.28
15:21:57.843750,-5.26
15:21:57.859375,-5.40
15:21:57.875000,-5.86
15:21:57.890625,-6.74
15:21:57.906250,-7.94
15:21:57.921875,-9.19
15:21:57.937500,-10.04
15:21:57.953125,-10.02
15:21:57.968750,-8.85
15:21:57.984375,-6.53
15:21:58,-3.42
15:21:58.015625,-0.05
15:21:58.031250,3.02
15:21:58.046875,5.43
15:21:58.062500,7.06
15:21:58.078125,8.03
15:21:58.093750,8.56
15:21:58.109375,8.84
15:21:58.125000,8.93
15:21:58.140625,8.83
15:21:58.156250,8.51
15:21:58.171875,8.03
15:21:58.187500,7.53
15:21:58.203125,7.20
15:21:58.218750,7.20
15:21:58.234375,7.56
15:21:58.250000,8.19
15:21:58.265625,8.88
15:21:58.281250,9.44
15:21:58.296875,9.77
15:21:58.312500,9.91
15:21:58.328125,10.00
15:21:58.343750,10.17
15:21:58.359375,10.44
15:21:58.375000,10.70
15:21:58.390625,10.76
15:21:58.406250,10.51
15:21:58.421875,9.94
15:21:58.437500,9.15
15:21:58.453125,8.28
15:21:58.468750,7.39
15:21:58.484375,6.45
15:21:58.500000,5.36
15:21:58.515625,4.05
15:21:58.531250,2.53
15:21:58.546875,0.89
15:21:58.562500,-0.76
15:21:58.578125,-2.33
15:21:58.593750,-3.82
15:21:58.609375,-5.26
15:21:58.625000,-6.72
15:21:58.640625,-8.22
15:21:58.656250,-9.80
15:21:58.671875,-11.49
15:21:58.687500,-13.35
15:21:58.703125,-15.35
15:21:58.718750,-17.32
15:21:58.734375,-18.96
15:21:58.750000,-19.91
15:21:58.765625,-19.87
15:21:58.781250,-18.82
15:21:58.796875,-17.00
15:21:58.812500,-14.90
15:21:58.828125,-13.03
15:21:58.843750,-11.74
15:21:58.859375,-11.17
15:21:58.875000,-11.23
15:21:58.890625,-11.80
15:21:58.906250,-12.73
15:21:58.921875,-13.88
15:21:58.937500,-15.07
15:21:58.953125,-16.08
15:21:58.968750,-16.64
15:21:58.984375,-16.54
15:21:59,-15.70
15:21:59.015625,-14.20
15:21:59.031250,-12.19
15:21:59.046875,-9.86
15:21:59.062500,-7.31
15:21:59.078125,-4.64
15:21:59.093750,-1.94
15:21:59.109375,0.64
15:21:59.125000,2.95
15:21:59.140625,4.89
15:21:59.156250,6.44
15:21:59.171875,7.70
15:21:59.187500,8.80
15:21:59.203125,9.82
15:21:59.218750,10.77
15:21:59.234375,11.61
15:21:59.250000,12.30
15:21:59.265625,12.77
15:21:59.281250,13.02
15:21:59.296875,12.99
15:21:59.312500,12.63
15:21:59.328125,11.89
15:21:59.343750,10.75
15:21:59.359375,9.32
15:21:59.375000,7.78
15:21:59.390625,6.32
15:21:59.406250,5.08
15:21:59.421875,4.18
15:21:59.437500,3.62
15:21:59.453125,3.39
15:21:59.468750,3.40
15:21:59.484375,3.52
15:21:59.500000,3.53
15:21:59.515625,3.17
15:21:59.531250,2.23
15:21:59.546875,0.65
15:21:59.562500,-1.42
15:21:59.578125,-3.57
15:21:59.593750,-5.32
15:21:59.609375,-6.20
15:21:59.625000,-5.93
15:21:59.640625,-4.54
15:21:59.656250,-2.30
15:21:59.671875,0.34
15:21:59.687500,2.93
15:21:59.703125,5.11
15:21:59.718750,6.72
15:21:59.734375,7.79
15:21:59.750000,8.42
15:21:59.765625,8.72
15:21:59.781250,8.79
15:21:59.796875,8.67
15:21:59.812500,8.40
15:21:59.828125,8.04
15:21:59.843750,7.70
15:21:59.859375,7.46
15:21:59.875000,7.36
15:21:59.890625,7.42
15:21:59.906250,7.59
15:21:59.921875,7.83
15:21:59.937500,8.08
15:21:59.953125,8.31
15:21:59.968750,8.49
15:21:59.984375,8.57
15:22:00,8.55
15:22:00.015625,8.44
15:22:00.031250,8.25
15:22:00.046875,8.00
15:22:00.062500,7.68
15:22:00.078125,7.23
15:22:00.093750,6.59
15:22:00.109375,5.74
15:22:00.125000,4.73
15:22:00.140625,3.66
15:22:00.156250,2.67
15:22:00.171875,1.89
15:22:00.187500,1.34
15:22:00.203125,0.94
15:22:00.218750,0.52
15:22:00.234375,-0.10
15:22:00.250000,-1.06
15:22:00.265625,-2.32
15:22:00.281250,-3.74
15:22:00.296875,-5.08
15:22:00.312500,-6.14
15:22:00.328125,-6.79
15:22:00.343750,-7.02
15:22:00.359375,-6.93
15:22:00.375000,-6.74
15:22:00.390625,-6.68
15:22:00.406250,-7.02
15:22:00.421875,-7.93
15:22:00.437500,-9.42
15:22:00.453125,-11.30
15:22:00.468750,-13.13
15:22:00.484375,-14.38
15:22:00.500000,-14.56
15:22:00.515625,-13.46
15:22:00.531250,-11.20
15:22:00.546875,-8.16
15:22:00.562500,-4.90
15:22:00.578125,-1.87
15:22:00.593750,0.66
15:22:00.609375,2.65
15:22:00.625000,4.17
15:22:00.640625,5.30
15:22:00.656250,6.07
15:22:00.671875,6.42
15:22:00.687500,6.29
15:22:00.703125,5.71
15:22:00.718750,4.83
15:22:00.734375,3.89
15:22:00.750000,3.14
15:22:00.765625,2.71
15:22:00.781250,2.61
15:22:00.796875,2.73
15:22:00.812500,2.91
15:22:00.828125,3.06
15:22:00.843750,3.18
15:22:00.859375,3.31
15:22:00.875000,3.52
15:22:00.890625,3.78
15:22:00.906250,3.99
15:22:00.921875,3.98
15:22:00.937500,3.65
15:22:00.953125,3.00
15:22:00.968750,2.14
15:22:00.984375,1.27
15:22:01,0.57
15:22:01.015625,0.08
15:22:01.031250,-0.25
15:22:01.046875,-0.51
15:22:01.062500,-0.81
15:22:01.078125,-1.16
15:22:01.093750,-1.54
15:22:01.109375,-1.92
15:22:01.125000,-2.31
15:22:01.140625,-2.73
15:22:01.156250,-3.20
15:22:01.171875,-3.75
15:22:01.187500,-4.32
15:22:01.203125,-4.89
15:22:01.218750,-5.45
15:22:01.234375,-5.98
15:22:01.250000,-6.50
15:22:01.265625,-7.02
15:22:01.281250,-7.54
15:22:01.296875,-8.15
15:22:01.312500,-8.93
15:22:01.328125,-9.97
15:22:01.343750,-11.22
15:22:01.359375,-12.45
15:22:01.375000,-13.29
15:22:01.390625,-13.29
15:22:01.406250,-12.20
15:22:01.421875,-9.99
15:22:01.437500,-6.97
15:22:01.453125,-3.61
15:22:01.468750,-0.41
15:22:01.484375,2.28
15:22:01.500000,4.31
15:22:01.515625,5.71
15:22:01.531250,6.58
15:22:01.546875,7.03
15:22:01.562500,7.13
15:22:01.578125,6.93
15:22:01.593750,6.49
15:22:01.609375,5.92
15:22:01.625000,5.40
15:22:01.640625,5.07
15:22:01.656250,5.04
15:22:01.671875,5.24
15:22:01.687500,5.54
15:22:01.703125,5.77
15:22:01.718750,5.85
15:22:01.734375,5.80
15:22:01.750000,5.70
15:22:01.765625,5.64
15:22:01.781250,5.65
15:22:01.796875,5.67
15:22:01.812500,5.65
15:22:01.828125,5.54
15:22:01.843750,5.31
15:22:01.859375,4.97
15:22:01.875000,4.52
15:22:01.890625,3.97
15:22:01.906250,3.36
15:22:01.921875,2.75
15:22:01.937500,2.20
15:22:01.953125,1.76
15:22:01.968750,1.38
15:22:01.984375,0.96
15:22:02,0.37
15:22:02.015625,-0.45
15:22:02.031250,-1.47
15:22:02.046875,-2.56
15:22:02.062500,-3.58
15:22:02.078125,-4.42
15:22:02.093750,-5.05
15:22:02.109375,-5.53
15:22:02.125000,-5.96
15:22:02.140625,-6.42
15:22:02.156250,-6.95
15:22:02.171875,-7.60
15:22:02.187500,-8.41
15:22:02.203125,-9.41
15:22:02.218750,-10.59
15:22:02.234375,-11.78
15:22:02.250000,-12.68
15:22:02.265625,-12.86
15:22:02.281250,-11.99
15:22:02.296875,-9.97
15:22:02.312500,-7.06
15:22:02.328125,-3.79
15:22:02.343750,-0.73
15:22:02.359375,1.70
15:22:02.375000,3.43
15:22:02.390625,4.59
15:22:02.406250,5.44
15:22:02.421875,6.11
15:22:02.437500,6.60
15:22:02.453125,6.79
15:22:02.468750,6.60
15:22:02.484375,6.07
15:22:02.500000,5.42
15:22:02.515625,4.91
15:22:02.531250,4.76
15:22:02.546875,5.01
15:22:02.562500,5.51
15:22:02.578125,5.97
15:22:02.593750,6.16
15:22:02.609375,5.96
15:22:02.625000,5.46
15:22:02.640625,4.87
15:22:02.656250,4.43
15:22:02.671875,4.26
15:22:02.687500,4.31
15:22:02.703125,4.39
15:22:02.718750,4.30
15:22:02.734375,3.93
15:22:02.750000,3.36
15:22:02.765625,2.70
15:22:02.781250,2.14
15:22:02.796875,1.74
15:22:02.812500,1.47
15:22:02.828125,1.26
15:22:02.843750,0.99
15:22:02.859375,0.58
15:22:02.875000,0.01
15:22:02.890625,-0.69
15:22:02.906250,-1.44
15:22:02.921875,-2.14
15:22:02.937500,-2.75
15:22:02.953125,-3.27
15:22:02.968750,-3.75
15:22:02.984375,-4.28
15:22:03,-4.95
15:22:03.015625,-5.80
15:22:03.031250,-6.86
15:22:03.046875,-8.12
15:22:03.062500,-9.56
15:22:03.078125,-11.07
15:22:03.093750,-12.47
15:22:03.109375,-13.46
15:22:03.125000,-13.70
15:22:03.140625,-12.90
15:22:03.156250,-10.97
15:22:03.171875,-8.09
15:22:03.187500,-4.70
15:22:03.203125,-1.32
15:22:03.218750,1.54
15:22:03.234375,3.63
15:22:03.250000,4.90
15:22:03.265625,5.52
15:22:03.281250,5.70
15:22:03.296875,5.66
15:22:03.312500,5.47
15:22:03.328125,5.16
15:22:03.343750,4.73
15:22:03.359375,4.23
15:22:03.375000,3.78
15:22:03.390625,3.52
15:22:03.406250,3.54
15:22:03.421875,3.86
15:22:03.437500,4.38
15:22:03.453125,4.96
15:22:03.468750,5.49
15:22:03.484375,5.89
15:22:03.500000,6.13
15:22:03.515625,6.22
15:22:03.531250,6.16
15:22:03.546875,5.95
15:22:03.562500,5.59
15:22:03.578125,5.10
15:22:03.593750,4.54
15:22:03.609375,3.98
15:22:03.625000,3.50
15:22:03.640625,3.11
15:22:03.656250,2.80
15:22:03.671875,2.53
15:22:03.687500,2.15
15:22:03.703125,1.56
15:22:03.718750,0.67
15:22:03.734375,-0.53
15:22:03.750000,-1.93
15:22:03.765625,-3.33
15:22:03.781250,-4.52
15:22:03.796875,-5.37
15:22:03.812500,-5.91
15:22:03.828125,-6.28
15:22:03.843750,-6.68
15:22:03.859375,-7.29
15:22:03.875000,-8.17
15:22:03.890625,-9.25
15:22:03.906250,-10.36
15:22:03.921875,-11.28
15:22:03.937500,-11.79
15:22:03.953125,-11.67
15:22:03.968750,-10.80
15:22:03.984375,-9.14
15:22:04,-6.82
15:22:04.015625,-4.12
15:22:04.031250,-1.34
15:22:04.046875,1.22
15:22:04.062500,3.39
15:22:04.078125,5.07
15:22:04.093750,6.26
15:22:04.109375,6.93
15:22:04.125000,7.12
15:22:04.140625,6.87
15:22:04.156250,6.29
15:22:04.171875,5.56
15:22:04.187500,4.81
15:22:04.203125,4.15
15:22:04.218750,3.67
15:22:04.234375,3.42
15:22:04.250000,3.47
15:22:04.265625,3.85
15:22:04.281250,4.44
15:22:04.296875,5.03
15:22:04.312500,5.32
15:22:04.328125,5.11
15:22:04.343750,4.42
15:22:04.359375,3.49
15:22:04.375000,2.67
15:22:04.390625,2.20
15:22:04.406250,2.09
15:22:04.421875,2.17
15:22:04.437500,2.18
15:22:04.453125,1.94
15:22:04.468750,1.43
15:22:04.484375,0.73
15:22:04.500000,-0.04
15:22:04.515625,-0.82
15:22:04.531250,-1.59
15:22:04.546875,-2.31
15:22:04.562500,-2.92
15:22:04.578125,-3.41
15:22:04.593750,-3.80
15:22:04.609375,-4.20
15:22:04.625000,-4.79
15:22:04.640625,-5.69
15:22:04.656250,-6.94
15:22:04.671875,-8.42
15:22:04.687500,-9.97
15:22:04.703125,-11.40
15:22:04.718750,-12.53
15:22:04.734375,-13.19
15:22:04.750000,-13.16
15:22:04.765625,-12.23
15:22:04.781250,-10.31
15:22:04.796875,-7.46
15:22:04.812500,-4.04
15:22:04.828125,-0.57
15:22:04.843750,2.41
15:22:04.859375,4.54
15:22:04.875000,5.74
15:22:04.890625,6.21
15:22:04.906250,6.25
15:22:04.921875,6.16
15:22:04.937500,6.05
15:22:04.953125,5.89
15:22:04.968750,5.61
15:22:04.984375,5.16
15:22:05,4.57
15:22:05.015625,3.98
15:22:05.031250,3.57
15:22:05.046875,3.45
15:22:05.062500,3.69
15:22:05.078125,4.24
15:22:05.093750,4.97
15:22:05.109375,5.75
15:22:05.125000,6.43
15:22:05.140625,6.90
15:22:05.156250,7.05
15:22:05.171875,6.82
15:22:05.187500,6.18
15:22:05.203125,5.18
15:22:05.218750,3.97
15:22:05.234375,2.76
15:22:05.250000,1.76
15:22:05.265625,1.08
15:22:05.281250,0.69
15:22:05.296875,0.42
15:22:05.312500,0.05
15:22:05.328125,-0.55
15:22:05.343750,-1.38
15:22:05.359375,-2.30
15:22:05.375000,-3.11
15:22:05.390625,-3.73
15:22:05.406250,-4.18
15:22:05.421875,-4.58
15:22:05.437500,-5.06
15:22:05.453125,-5.69
15:22:05.468750,-6.46
15:22:05.484375,-7.37
15:22:05.500000,-8.43
15:22:05.515625,-9.64
15:22:05.531250,-10.93
15:22:05.546875,-12.08
15:22:05.562500,-12.75
15:22:05.578125,-12.56
15:22:05.593750,-11.28
15:22:05.609375,-8.93
15:22:05.625000,-5.83
15:22:05.640625,-2.48
15:22:05.656250,0.66
15:22:05.671875,3.26
15:22:05.687500,5.24
15:22:05.703125,6.70
15:22:05.718750,7.76
15:22:05.734375,8.49
15:22:05.750000,8.92
15:22:05.765625,9.01
15:22:05.781250,8.81
15:22:05.796875,8.43
15:22:05.812500,8.02
15:22:05.828125,7.70
15:22:05.843750,7.51
15:22:05.859375,7.41
15:22:05.875000,7.33
15:22:05.890625,7.20
15:22:05.906250,7.00
15:22:05.921875,6.71
15:22:05.937500,6.33
15:22:05.953125,5.86
15:22:05.968750,5.31
15:22:05.984375,4.69
15:22:06,4.06
15:22:06.015625,3.41
15:22:06.031250,2.72
15:22:06.046875,1.99
15:22:06.062500,1.24
15:22:06.078125,0.56
15:22:06.093750,0.04
15:22:06.109375,-0.28
15:22:06.125000,-0.47
15:22:06.140625,-0.68
15:22:06.156250,-1.08
15:22:06.171875,-1.79
15:22:06.187500,-2.78
15:22:06.203125,-3.95
15:22:06.218750,-5.13
15:22:06.234375,-6.18
15:22:06.250000,-7.00
15:22:06.265625,-7.55
15:22:06.281250,-7.87
15:22:06.296875,-8.03
15:22:06.312500,-8.20
15:22:06.328125,-8.58
15:22:06.343750,-9.33
15:22:06.359375,-10.46
15:22:06.375000,-11.76
15:22:06.390625,-12.79
15:22:06.406250,-13.04
15:22:06.421875,-12.13
15:22:06.437500,-9.96
15:22:06.453125,-6.76
15:22:06.468750,-3.03
15:22:06.484375,0.62
15:22:06.500000,3.73
15:22:06.515625,6.03
15:22:06.531250,7.47
15:22:06.546875,8.19
15:22:06.562500,8.35
15:22:06.578125,8.14
15:22:06.593750,7.72
15:22:06.609375,7.23
15:22:06.625000,6.82
15:22:06.640625,6.61
15:22:06.656250,6.63
15:22:06.671875,6.86
15:22:06.687500,7.17
15:22:06.703125,7.43
15:22:06.718750,7.52
15:22:06.734375,7.38
15:22:06.750000,7.05
15:22:06.765625,6.63
15:22:06.781250,6.22
15:22:06.796875,5.93
15:22:06.812500,5.77
15:22:06.828125,5.70
15:22:06.843750,5.63
15:22:06.859375,5.47
15:22:06.875000,5.13
15:22:06.890625,4.60
15:22:06.906250,3.91
15:22:06.921875,3.13
15:22:06.937500,2.36
15:22:06.953125,1.68
15:22:06.968750,1.10
15:22:06.984375,0.57
15:22:07,-0.01
15:22:07.015625,-0.72
15:22:07.031250,-1.61
15:22:07.046875,-2.64
15:22:07.062500,-3.70
15:22:07.078125,-4.67
15:22:07.093750,-5.44
15:22:07.109375,-5.99
15:22:07.125000,-6.41
15:22:07.140625,-6.80
15:22:07.156250,-7.34
15:22:07.171875,-8.15
15:22:07.187500,-9.27
15:22:07.203125,-10.68
15:22:07.218750,-12.20
15:22:07.234375,-13.55
15:22:07.250000,-14.41
15:22:07.265625,-14.46
15:22:07.281250,-13.50
15:22:07.296875,-11.45
15:22:07.312500,-8.49
15:22:07.328125,-4.93
15:22:07.343750,-1.26
15:22:07.359375,2.01
15:22:07.375000,4.52
15:22:07.390625,6.09
15:22:07.406250,6.79
15:22:07.421875,6.89
15:22:07.437500,6.71
15:22:07.453125,6.52
15:22:07.468750,6.46
15:22:07.484375,6.52
15:22:07.500000,6.64
15:22:07.515625,6.76
15:22:07.531250,6.86
15:22:07.546875,6.96
15:22:07.562500,7.03
15:22:07.578125,7.04
15:22:07.593750,6.94
15:22:07.609375,6.71
15:22:07.625000,6.39
15:22:07.640625,6.03
15:22:07.656250,5.68
15:22:07.671875,5.33
15:22:07.687500,4.91
15:22:07.703125,4.37
15:22:07.718750,3.73
15:22:07.734375,3.04
15:22:07.750000,2.41
15:22:07.765625,1.90
15:22:07.781250,1.50
15:22:07.796875,1.17
15:22:07.812500,0.85
15:22:07.828125,0.52
15:22:07.843750,0.19
15:22:07.859375,-0.15
15:22:07.875000,-0.59
15:22:07.890625,-1.21
15:22:07.906250,-2.10
15:22:07.921875,-3.21
15:22:07.937500,-4.38
15:22:07.953125,-5.40
15:22:07.968750,-6.11
15:22:07.984375,-6.49
15:22:08,-6.66
15:22:08.015625,-6.80
15:22:08.031250,-7.08
15:22:08.046875,-7.60
15:22:08.062500,-8.38
15:22:08.078125,-9.37
15:22:08.093750,-10.41
15:22:08.109375,-11.29
15:22:08.125000,-11.73
15:22:08.140625,-11.45
15:22:08.156250,-10.26
15:22:08.171875,-8.19
15:22:08.187500,-5.44
15:22:08.203125,-2.37
15:22:08.218750,0.60
15:22:08.234375,3.15
15:22:08.250000,5.07
15:22:08.265625,6.33
15:22:08.281250,7.00
15:22:08.296875,7.19
15:22:08.312500,7.05
15:22:08.328125,6.68
15:22:08.343750,6.20
