14:32:56,-0.00
14:32:56.015625,-0.00
14:32:56.031250,-0.00
14:32:56.046875,-0.00
14:32:56.062500,-0.00
14:32:56.078125,-0.00
14:32:56.093750,-0.00
14:32:56.109375,-0.00
14:32:56.125000,-0.00
14:32:56.140625,-0.00
14:32:56.156250,0.00
14:32:56.171875,0.01
14:32:56.187500,0.01
14:32:56.203125,-0.00
14:32:56.218750,-0.03
14:32:56.234375,-0.05
14:32:56.250000,-0.05
14:32:56.265625,0.00
14:32:56.281250,0.13
14:32:56.296875,0.36
14:32:56.312500,0.66
14:32:56.328125,1.01
14:32:56.343750,1.37
14:32:56.359375,1.72
14:32:56.375000,2.06
14:32:56.390625,2.40
14:32:56.406250,2.79
14:32:56.421875,3.24
14:32:56.437500,3.80
14:32:56.453125,4.42
14:32:56.468750,5.06
14:32:56.484375,5.66
14:32:56.500000,6.20
14:32:56.515625,6.68
14:32:56.531250,7.15
14:32:56.546875,7.68
14:32:56.562500,8.31
14:32:56.578125,9.14
14:32:56.593750,10.09
14:32:56.609375,11.04
14:32:56.625000,11.88
14:32:56.640625,12.56
14:32:56.656250,13.14
14:32:56.671875,13.76
14:32:56.687500,14.65
14:32:56.703125,15.96
14:32:56.718750,17.91
14:32:56.734375,20.32
14:32:56.750000,22.90
14:32:56.765625,25.38
14:32:56.781250,27.58
14:32:56.796875,29.57
14:32:56.812500,31.68
14:32:56.828125,34.32
14:32:56.843750,37.81
14:32:56.859375,42.54
14:32:56.875000,48.15
14:32:56.890625,54.10
14:32:56.906250,59.83
14:32:56.921875,64.97
14:32:56.937500,69.58
14:32:56.953125,74.14
14:32:56.968750,79.34
14:32:56.984375,85.71
14:32:57,93.76
14:32:57.015625,103.00
14:32:57.031250,112.62
14:32:57.046875,121.73
14:32:57.062500,129.77
14:32:57.078125,136.75
14:32:57.093750,143.30
14:32:57.109375,150.75
14:32:57.125000,157.77
14:32:57.140625,166.64
14:32:57.156250,177.95
14:32:57.171875,191.79
14:32:57.187500,206.97
14:32:57.203125,220.57
14:32:57.218750,228.25
14:32:57.234375,225.36
14:32:57.250000,208.53
14:32:57.265625,176.87
14:32:57.281250,132.76
14:32:57.296875,80.05
14:32:57.312500,23.07
14:32:57.328125,-34.94
14:32:57.343750,-92.44
14:32:57.359375,-149.16
14:32:57.375000,-205.23
14:32:57.390625,-260.37
14:32:57.406250,-313.74
14:32:57.421875,-363.87
14:32:57.437500,-409.82
14:32:57.453125,-450.89
14:32:57.468750,-486.47
14:32:57.484375,-515.68
14:32:57.500000,-537.15
14:32:57.515625,-549.11
14:32:57.531250,-549.81
14:32:57.546875,-538.17
14:32:57.562500,-513.96
14:32:57.578125,-478.38
14:32:57.593750,-433.53
14:32:57.609375,-382.04
14:32:57.625000,-326.54
14:32:57.640625,-269.30
14:32:57.656250,-212.02
14:32:57.671875,-155.98
14:32:57.687500,-102.20
14:32:57.703125,-51.54
14:32:57.718750,-4.99
14:32:57.734375,36.58
14:32:57.750000,72.51
14:32:57.765625,102.54
14:32:57.781250,126.79
14:32:57.796875,145.79
14:32:57.812500,160.23
14:32:57.828125,170.83
14:32:57.843750,178.21
14:32:57.859375,182.77
14:32:57.875000,184.80
14:32:57.890625,184.52
14:32:57.906250,182.21
14:32:57.921875,178.21
14:32:57.937500,172.94
14:32:57.953125,166.81
14:32:57.968750,160.15
14:32:57.984375,153.23
14:32:58,146.18
14:32:58.015625,139.08
14:32:58.031250,131.96
14:32:58.046875,124.87
14:32:58.062500,117.88
14:32:58.078125,111.05
14:32:58.093750,104.46
14:32:58.109375,98.15
14:32:58.125000,92.17
14:32:58.140625,86.52
14:32:58.156250,81.22
14:32:58.171875,76.29
14:32:58.187500,71.71
14:32:58.203125,67.52
14:32:58.218750,63.71
14:32:58.234375,60.27
14:32:58.250000,57.23
14:32:58.265625,54.59
14:32:58.281250,52.33
14:32:58.296875,50.46
14:32:58.312500,48.94
14:32:58.328125,47.77
14:32:58.343750,46.89
14:32:58.359375,46.20
14:32:58.375000,45.61
14:32:58.390625,44.96
14:32:58.406250,44.09
14:32:58.421875,42.82
14:32:58.437500,40.98
14:32:58.453125,38.44
14:32:58.468750,35.11
14:32:58.484375,30.97
14:32:58.500000,26.07
14:32:58.515625,20.48
14:32:58.531250,14.38
14:32:58.546875,8.01
14:32:58.562500,1.62
14:32:58.578125,-4.53
14:32:58.593750,-10.18
14:32:58.609375,-15.12
14:32:58.625000,-19.21
14:32:58.640625,-22.35
14:32:58.656250,-24.51
14:32:58.671875,-25.72
14:32:58.687500,-26.06
14:32:58.703125,-25.65
14:32:58.718750,-24.63
14:32:58.734375,-23.13
14:32:58.750000,-21.28
14:32:58.765625,-19.19
14:32:58.781250,-16.92
14:32:58.796875,-14.54
14:32:58.812500,-12.08
14:32:58.828125,-9.58
14:32:58.843750,-7.07
14:32:58.859375,-4.57
14:32:58.875000,-2.08
14:32:58.890625,0.39
14:32:58.906250,2.86
14:32:58.921875,5.35
14:32:58.937500,7.89
14:32:58.953125,10.52
14:32:58.968750,13.23
14:32:58.984375,16.02
14:32:59,18.91
14:32:59.015625,21.90
14:32:59.031250,25.03
14:32:59.046875,28.32
14:32:59.062500,31.77
14:32:59.078125,35.43
14:32:59.093750,39.34
14:32:59.109375,43.41
14:32:59.125000,47.57
14:32:59.140625,51.79
14:32:59.156250,56.07
14:32:59.171875,60.42
14:32:59.187500,64.88
14:32:59.203125,69.50
14:32:59.218750,74.36
14:32:59.234375,79.56
14:32:59.250000,84.97
14:32:59.265625,90.52
14:32:59.281250,96.16
14:32:59.296875,101.86
14:32:59.312500,107.59
14:32:59.328125,113.33
14:32:59.343750,119.09
14:32:59.359375,124.89
14:32:59.375000,130.76
14:32:59.390625,136.41
14:32:59.406250,141.65
14:32:59.421875,146.24
14:32:59.437500,149.99
14:32:59.453125,152.60
14:32:59.468750,153.73
14:32:59.484375,152.89
14:32:59.500000,149.38
14:32:59.515625,144.52
14:32:59.531250,138.80
14:32:59.546875,132.49
14:32:59.562500,125.81
14:32:59.578125,118.89
14:32:59.593750,111.84
14:32:59.609375,104.77
14:32:59.625000,97.80
14:32:59.640625,91.04
14:32:59.656250,84.67
14:32:59.671875,78.53
14:32:59.687500,72.56
14:32:59.703125,66.76
14:32:59.718750,61.11
14:32:59.734375,55.65
14:32:59.750000,50.43
14:32:59.765625,45.50
14:32:59.781250,40.95
14:32:59.796875,36.87
14:32:59.812500,33.15
14:32:59.828125,29.70
14:32:59.843750,26.48
14:32:59.859375,23.49
14:32:59.875000,20.71
14:32:59.890625,18.15
14:32:59.906250,15.83
14:32:59.921875,13.78
14:32:59.937500,12.05
14:32:59.953125,10.53
14:32:59.968750,9.16
14:32:59.984375,7.90
14:33:00,6.74
14:33:00.015625,5.65
14:33:00.031250,4.61
14:33:00.046875,3.64
14:33:00.062500,2.75
14:33:00.078125,1.96
14:33:00.093750,1.24
14:33:00.109375,0.55
14:33:00.125000,-0.10
14:33:00.140625,-0.72
14:33:00.156250,-1.30
14:33:00.171875,-1.86
14:33:00.187500,-2.38
14:33:00.203125,-2.85
14:33:00.218750,-3.28
14:33:00.234375,-3.66
14:33:00.250000,-4.00
14:33:00.265625,-4.31
14:33:00.281250,-4.60
14:33:00.296875,-4.88
14:33:00.312500,-5.18
14:33:00.328125,-5.51
14:33:00.343750,-5.88
14:33:00.359375,-6.28
14:33:00.375000,-6.65
14:33:00.390625,-6.98
14:33:00.406250,-7.23
14:33:00.421875,-7.38
14:33:00.437500,-7.47
14:33:00.453125,-7.54
14:33:00.468750,-7.64
14:33:00.484375,-7.82
14:33:00.500000,-8.09
14:33:00.515625,-8.43
14:33:00.531250,-8.84
14:33:00.546875,-9.32
14:33:00.562500,-9.87
14:33:00.578125,-10.56
14:33:00.593750,-11.47
14:33:00.609375,-12.67
14:33:00.625000,-14.16
14:33:00.640625,-15.90
14:33:00.656250,-17.76
14:33:00.671875,-19.58
14:33:00.687500,-21.25
14:33:00.703125,-22.77
14:33:00.718750,-24.21
14:33:00.734375,-25.76
14:33:00.750000,-27.61
14:33:00.765625,-29.83
14:33:00.781250,-32.40
14:33:00.796875,-35.11
14:33:00.812500,-37.75
14:33:00.828125,-40.16
14:33:00.843750,-42.42
14:33:00.859375,-44.83
14:33:00.875000,-47.83
14:33:00.890625,-51.87
14:33:00.906250,-57.14
14:33:00.921875,-63.52
14:33:00.937500,-70.59
14:33:00.953125,-77.82
14:33:00.968750,-84.78
14:33:00.984375,-91.42
14:33:01,-98.10
14:33:01.015625,-105.44
14:33:01.031250,-114.03
14:33:01.046875,-124.20
14:33:01.062500,-135.78
14:33:01.078125,-148.22
14:33:01.093750,-160.85
14:33:01.109375,-173.13
14:33:01.125000,-184.93
14:33:01.140625,-196.55
14:33:01.156250,-208.63
14:33:01.171875,-222.05
14:33:01.187500,-237.84
14:33:01.203125,-257.00
14:33:01.218750,-279.99
14:33:01.234375,-306.16
14:33:01.250000,-333.19
14:33:01.265625,-357.31
14:33:01.281250,-374.14
14:33:01.296875,-380.16
14:33:01.312500,-374.04
14:33:01.328125,-357.05
14:33:01.343750,-332.51
14:33:01.359375,-304.36
14:33:01.375000,-275.80
14:33:01.390625,-248.55
14:33:01.406250,-223.12
14:33:01.421875,-199.43
14:33:01.437500,-177.48
14:33:01.453125,-157.49
14:33:01.468750,-139.66
14:33:01.484375,-123.77
14:33:01.500000,-109.17
14:33:01.515625,-95.04
14:33:01.531250,-80.87
14:33:01.546875,-66.68
14:33:01.562500,-53.04
14:33:01.578125,-40.76
14:33:01.593750,-30.46
14:33:01.609375,-22.35
14:33:01.625000,-16.12
14:33:01.640625,-11.08
14:33:01.656250,-6.45
14:33:01.671875,-1.67
14:33:01.687500,3.48
14:33:01.703125,8.78
14:33:01.718750,13.73
14:33:01.734375,17.85
14:33:01.750000,20.86
14:33:01.765625,22.79
14:33:01.781250,23.96
14:33:01.796875,24.79
14:33:01.812500,25.58
14:33:01.828125,26.50
14:33:01.843750,27.51
14:33:01.859375,28.44
14:33:01.875000,29.09
14:33:01.890625,29.28
14:33:01.906250,28.89
14:33:01.921875,27.93
14:33:01.937500,26.49
14:33:01.953125,24.81
14:33:01.968750,23.15
14:33:01.984375,21.78
14:33:02,20.83
14:33:02.015625,20.24
14:33:02.031250,19.78
14:33:02.046875,19.22
14:33:02.062500,18.46
14:33:02.078125,17.68
14:33:02.093750,17.30
14:33:02.109375,17.71
14:33:02.125000,19.10
14:33:02.140625,21.24
14:33:02.156250,23.60
14:33:02.171875,25.53
14:33:02.187500,26.60
14:33:02.203125,26.78
14:33:02.218750,26.40
14:33:02.234375,25.94
14:33:02.250000,25.74
14:33:02.265625,25.76
14:33:02.281250,25.56
14:33:02.296875,24.58
14:33:02.312500,22.35
14:33:02.328125,18.83
14:33:02.343750,14.51
14:33:02.359375,10.24
14:33:02.375000,6.92
14:33:02.390625,5.14
14:33:02.406250,4.85
14:33:02.421875,5.42
14:33:02.437500,5.80
14:33:02.453125,5.06
14:33:02.468750,2.82
14:33:02.484375,-0.59
14:33:02.500000,-4.23
14:33:02.515625,-6.95
14:33:02.531250,-7.95
14:33:02.546875,-7.15
14:33:02.562500,-5.26
14:33:02.578125,-3.46
14:33:02.593750,-2.83
14:33:02.609375,-3.87
14:33:02.625000,-6.18
14:33:02.640625,-8.69
14:33:02.656250,-10.17
14:33:02.671875,-9.69
14:33:02.687500,-7.03
14:33:02.703125,-2.57
14:33:02.718750,2.79
14:33:02.734375,7.99
14:33:02.750000,11.85
14:33:02.765625,13.36
14:33:02.781250,12.06
14:33:02.796875,8.87
14:33:02.812500,6.68
14:33:02.828125,10.25
14:33:02.843750,24.76
14:33:02.859375,53.39
14:33:02.875000,95.03
14:33:02.890625,143.55
14:33:02.906250,189.40
14:33:02.921875,223.05
14:33:02.937500,238.56
14:33:02.953125,235.64
14:33:02.968750,219.00
14:33:02.984375,195.68
14:33:03,171.86
14:33:03.015625,150.76
14:33:03.031250,132.72
14:33:03.046875,116.69
14:33:03.062500,102.08
14:33:03.078125,89.62
14:33:03.093750,80.92
14:33:03.109375,77.17
14:33:03.125000,78.20
14:33:03.140625,82.30
14:33:03.156250,87.01
14:33:03.171875,90.19
14:33:03.187500,90.81
14:33:03.203125,89.06
14:33:03.218750,85.72
14:33:03.234375,81.45
14:33:03.250000,76.25
14:33:03.265625,69.47
14:33:03.281250,60.40
14:33:03.296875,48.76
14:33:03.312500,35.28
14:33:03.328125,21.41
14:33:03.343750,8.94
14:33:03.359375,-0.85
14:33:03.375000,-7.66
14:33:03.390625,-12.34
14:33:03.406250,-16.45
14:33:03.421875,-21.53
14:33:03.437500,-28.35
14:33:03.453125,-36.47
14:33:03.468750,-44.45
14:33:03.484375,-50.53
14:33:03.500000,-53.45
14:33:03.515625,-52.95
14:33:03.531250,-49.87
14:33:03.546875,-45.72
14:33:03.562500,-41.94
14:33:03.578125,-39.38
14:33:03.593750,-38.14
14:33:03.609375,-37.70
14:33:03.625000,-37.41
14:33:03.640625,-36.91
14:33:03.656250,-36.32
14:33:03.671875,-36.22
14:33:03.687500,-37.31
14:33:03.703125,-40.11
14:33:03.718750,-44.68
14:33:03.734375,-50.63
14:33:03.750000,-57.29
14:33:03.765625,-63.86
14:33:03.781250,-69.66
14:33:03.796875,-74.29
14:33:03.812500,-77.63
14:33:03.828125,-79.94
14:33:03.843750,-81.66
14:33:03.859375,-83.36
14:33:03.875000,-85.44
14:33:03.890625,-88.01
14:33:03.906250,-90.81
14:33:03.921875,-93.37
14:33:03.937500,-95.26
14:33:03.953125,-96.31
14:33:03.968750,-96.71
14:33:03.984375,-96.90
14:33:04,-97.30
14:33:04.015625,-98.13
14:33:04.031250,-99.29
14:33:04.046875,-100.53
14:33:04.062500,-101.48
14:33:04.078125,-101.88
14:33:04.093750,-101.51
14:33:04.109375,-100.26
14:33:04.125000,-98.06
14:33:04.140625,-94.90
14:33:04.156250,-90.85
14:33:04.171875,-86.04
14:33:04.187500,-80.69
14:33:04.203125,-75.02
14:33:04.218750,-69.23
14:33:04.234375,-63.42
14:33:04.250000,-57.62
14:33:04.265625,-51.92
14:33:04.281250,-46.56
14:33:04.296875,-42.01
14:33:04.312500,-38.79
14:33:04.328125,-37.20
14:33:04.343750,-37.01
14:33:04.359375,-37.37
14:33:04.375000,-37.04
14:33:04.390625,-34.93
14:33:04.406250,-30.53
14:33:04.421875,-24.15
14:33:04.437500,-16.71
14:33:04.453125,-9.39
14:33:04.468750,-3.23
14:33:04.484375,1.09
14:33:04.500000,3.19
14:33:04.515625,3.30
14:33:04.531250,2.40
14:33:04.546875,2.56
14:33:04.562500,6.54
14:33:04.578125,17.03
14:33:04.593750,35.45
14:33:04.609375,60.94
14:33:04.625000,90.27
14:33:04.640625,118.77
14:33:04.656250,141.97
14:33:04.671875,157.08
14:33:04.687500,163.62
14:33:04.703125,163.01
14:33:04.718750,157.37
14:33:04.734375,148.46
14:33:04.750000,137.11
14:33:04.765625,123.51
14:33:04.781250,107.90
14:33:04.796875,91.18
14:33:04.812500,74.93
14:33:04.828125,60.96
14:33:04.843750,50.60
14:33:04.859375,44.29
14:33:04.875000,41.71
14:33:04.890625,42.28
14:33:04.906250,45.74
14:33:04.921875,52.16
14:33:04.937500,61.68
14:33:04.953125,73.86
14:33:04.968750,87.38
14:33:04.984375,100.06
14:33:05,109.59
14:33:05.015625,114.04
14:33:05.031250,112.55
14:33:05.046875,105.34
14:33:05.062500,93.44
14:33:05.078125,78.37
14:33:05.093750,61.64
14:33:05.109375,44.69
14:33:05.125000,28.69
14:33:05.140625,14.38
14:33:05.156250,2.15
14:33:05.171875,-8.06
14:33:05.187500,-16.61
14:33:05.203125,-23.97
14:33:05.218750,-30.45
14:33:05.234375,-36.20
14:33:05.250000,-41.12
14:33:05.265625,-44.97
14:33:05.281250,-47.48
14:33:05.296875,-48.60
14:33:05.312500,-48.50
14:33:05.328125,-47.47
14:33:05.343750,-45.98
14:33:05.359375,-44.34
14:33:05.375000,-42.71
14:33:05.390625,-41.01
14:33:05.406250,-39.08
14:33:05.421875,-36.87
14:33:05.437500,-34.59
14:33:05.453125,-32.58
14:33:05.468750,-31.27
14:33:05.484375,-30.91
14:33:05.500000,-31.42
14:33:05.515625,-32.38
14:33:05.531250,-33.22
14:33:05.546875,-33.42
14:33:05.562500,-32.83
14:33:05.578125,-31.74
14:33:05.593750,-30.70
14:33:05.609375,-30.25
14:33:05.625000,-30.61
14:33:05.640625,-31.58
14:33:05.656250,-32.59
14:33:05.671875,-32.97
14:33:05.687500,-32.28
14:33:05.703125,-30.46
14:33:05.718750,-27.75
14:33:05.734375,-24.58
14:33:05.750000,-21.40
14:33:05.765625,-18.48
14:33:05.781250,-15.89
14:33:05.796875,-13.56
14:33:05.812500,-11.36
14:33:05.828125,-9.21
14:33:05.843750,-7.05
14:33:05.859375,-4.96
14:33:05.875000,-3.02
14:33:05.890625,-1.35
14:33:05.906250,-0.05
14:33:05.921875,0.82
14:33:05.937500,1.20
14:33:05.953125,1.06
14:33:05.968750,0.50
14:33:05.984375,-0.35
14:33:06,-1.26
14:33:06.015625,-2.01
14:33:06.031250,-2.53
14:33:06.046875,-2.94
14:33:06.062500,-3.47
14:33:06.078125,-4.27
14:33:06.093750,-5.33
14:33:06.109375,-6.44
14:33:06.125000,-7.29
14:33:06.140625,-7.66
14:33:06.156250,-7.56
14:33:06.171875,-7.22
14:33:06.187500,-6.97
14:33:06.203125,-7.04
14:33:06.218750,-7.57
14:33:06.234375,-8.49
14:33:06.250000,-9.63
14:33:06.265625,-10.73
14:33:06.281250,-11.46
14:33:06.296875,-11.47
14:33:06.312500,-10.55
14:33:06.328125,-8.75
14:33:06.343750,-6.37
14:33:06.359375,-3.95
14:33:06.375000,-2.00
14:33:06.390625,-0.85
14:33:06.406250,-0.54
14:33:06.421875,-0.84
14:33:06.437500,-1.39
14:33:06.453125,-1.73
14:33:06.468750,-1.56
14:33:06.484375,-0.59
14:33:06.500000,1.22
14:33:06.515625,3.77
14:33:06.531250,6.67
14:33:06.546875,9.46
14:33:06.562500,11.67
14:33:06.578125,13.09
14:33:06.593750,13.87
14:33:06.609375,14.42
14:33:06.625000,15.25
14:33:06.640625,16.62
14:33:06.656250,18.40
14:33:06.671875,20.13
14:33:06.687500,21.23
14:33:06.703125,21.31
14:33:06.718750,20.32
14:33:06.734375,18.53
14:33:06.750000,16.36
14:33:06.765625,14.19
14:33:06.781250,12.11
14:33:06.796875,10.15
14:33:06.812500,8.25
14:33:06.828125,6.49
14:33:06.843750,5.08
14:33:06.859375,4.28
14:33:06.875000,4.27
14:33:06.890625,4.98
14:33:06.906250,6.12
14:33:06.921875,7.33
14:33:06.937500,8.26
14:33:06.953125,8.69
14:33:06.968750,8.58
14:33:06.984375,7.94
14:33:07,6.84
14:33:07.015625,5.40
14:33:07.031250,3.80
14:33:07.046875,2.27
14:33:07.062500,1.02
14:33:07.078125,0.11
14:33:07.093750,-0.58
14:33:07.109375,-1.36
14:33:07.125000,-2.46
14:33:07.140625,-3.97
14:33:07.156250,-5.68
14:33:07.171875,-7.24
14:33:07.187500,-8.28
14:33:07.203125,-8.61
14:33:07.218750,-8.30
14:33:07.234375,-7.51
14:33:07.250000,-6.45
14:33:07.265625,-5.19
14:33:07.281250,-3.76
14:33:07.296875,-2.18
14:33:07.312500,-0.48
14:33:07.328125,1.30
14:33:07.343750,3.12
14:33:07.359375,5.01
14:33:07.375000,6.95
14:33:07.390625,8.82
14:33:07.406250,10.41
14:33:07.421875,11.49
14:33:07.437500,11.96
14:33:07.453125,11.87
14:33:07.468750,11.47
14:33:07.484375,10.98
14:33:07.500000,10.52
14:33:07.515625,9.99
14:33:07.531250,9.23
14:33:07.546875,8.13
14:33:07.562500,6.79
14:33:07.578125,5.48
14:33:07.593750,4.56
14:33:07.609375,4.26
14:33:07.625000,4.54
14:33:07.640625,5.17
14:33:07.656250,5.82
14:33:07.671875,6.20
14:33:07.687500,6.20
14:33:07.703125,5.84
14:33:07.718750,5.20
14:33:07.734375,4.31
14:33:07.750000,3.23
14:33:07.765625,1.98
14:33:07.781250,0.66
14:33:07.796875,-0.61
14:33:07.812500,-1.68
14:33:07.828125,-2.47
14:33:07.843750,-3.04
14:33:07.859375,-3.50
14:33:07.875000,-4.02
14:33:07.890625,-4.71
14:33:07.906250,-5.62
14:33:07.921875,-6.71
14:33:07.937500,-7.92
14:33:07.953125,-9.06
14:33:07.968750,-9.87
14:33:07.984375,-10.02
14:33:08,-9.24
14:33:08.015625,-7.43
14:33:08.031250,-4.78
14:33:08.046875,-1.72
14:33:08.062500,1.19
14:33:08.078125,3.56
14:33:08.093750,5.23
14:33:08.109375,6.30
14:33:08.125000,7.02
14:33:08.140625,7.57
14:33:08.156250,8.05
14:33:08.171875,8.41
14:33:08.187500,8.58
14:33:08.203125,8.63
14:33:08.218750,8.66
14:33:08.234375,8.83
14:33:08.250000,9.14
14:33:08.265625,9.51
14:33:08.281250,9.73
14:33:08.296875,9.69
14:33:08.312500,9.33
14:33:08.328125,8.76
14:33:08.343750,8.13
14:33:08.359375,7.58
14:33:08.375000,7.26
14:33:08.390625,7.23
14:33:08.406250,7.47
14:33:08.421875,7.86
14:33:08.437500,8.13
14:33:08.453125,7.95
14:33:08.468750,7.13
14:33:08.484375,5.73
14:33:08.500000,4.07
14:33:08.515625,2.68
14:33:08.531250,1.91
14:33:08.546875,1.79
14:33:08.562500,1.96
14:33:08.578125,1.87
14:33:08.593750,1.07
14:33:08.609375,-0.53
14:33:08.625000,-2.61
14:33:08.640625,-4.64
14:33:08.656250,-6.08
14:33:08.671875,-6.75
14:33:08.687500,-6.73
14:33:08.703125,-6.35
14:33:08.718750,-5.96
14:33:08.734375,-5.71
14:33:08.750000,-5.49
14:33:08.765625,-4.99
14:33:08.781250,-3.91
14:33:08.796875,-2.11
14:33:08.812500,0.20
14:33:08.828125,2.60
14:33:08.843750,4.56
14:33:08.859375,5.76
14:33:08.875000,6.26
14:33:08.890625,6.42
14:33:08.906250,6.76
14:33:08.921875,7.58
14:33:08.937500,8.96
14:33:08.953125,10.60
14:33:08.968750,12.13
14:33:08.984375,13.19
14:33:09,13.67
14:33:09.015625,13.62
14:33:09.031250,13.13
14:33:09.046875,12.27
14:33:09.062500,11.07
14:33:09.078125,9.65
14:33:09.093750,8.23
14:33:09.109375,7.11
14:33:09.125000,6.59
14:33:09.140625,6.76
14:33:09.156250,7.44
14:33:09.171875,8.22
14:33:09.187500,8.63
14:33:09.203125,8.27
14:33:09.218750,7.08
14:33:09.234375,5.29
14:33:09.250000,3.37
14:33:09.265625,1.84
14:33:09.281250,1.03
14:33:09.296875,0.99
14:33:09.312500,1.46
14:33:09.328125,1.96
14:33:09.343750,1.96
14:33:09.359375,1.15
14:33:09.375000,-0.54
14:33:09.390625,-2.92
14:33:09.406250,-5.59
14:33:09.421875,-8.12
14:33:09.437500,-10.21
14:33:09.453125,-11.67
14:33:09.468750,-12.51
14:33:09.484375,-12.86
14:33:09.500000,-12.84
14:33:09.515625,-12.55
14:33:09.531250,-12.00
14:33:09.546875,-11.13
14:33:09.562500,-9.90
14:33:09.578125,-8.28
14:33:09.593750,-6.38
14:33:09.609375,-4.35
14:33:09.625000,-2.36
14:33:09.640625,-0.51
14:33:09.656250,1.18
14:33:09.671875,2.74
14:33:09.687500,4.23
14:33:09.703125,5.62
14:33:09.718750,6.81
14:33:09.734375,7.69
14:33:09.750000,8.21
14:33:09.765625,8.45
14:33:09.781250,8.58
14:33:09.796875,8.80
14:33:09.812500,9.20
14:33:09.828125,9.72
14:33:09.843750,10.22
14:33:09.859375,10.58
14:33:09.875000,10.86
14:33:09.890625,11.20
14:33:09.906250,11.85
14:33:09.921875,12.88
14:33:09.937500,14.09
14:33:09.953125,15.05
14:33:09.968750,15.31
14:33:09.984375,14.64
14:33:10,13.14
14:33:10.015625,11.22
14:33:10.031250,9.33
14:33:10.046875,7.82
14:33:10.062500,6.72
14:33:10.078125,5.84
14:33:10.093750,4.95
14:33:10.109375,3.81
14:33:10.125000,2.33
14:33:10.140625,0.50
14:33:10.156250,-1.61
14:33:10.171875,-3.92
14:33:10.187500,-6.27
14:33:10.203125,-8.51
14:33:10.218750,-10.47
14:33:10.234375,-11.96
14:33:10.250000,-12.87
14:33:10.265625,-13.10
14:33:10.281250,-12.68
14:33:10.296875,-11.61
14:33:10.312500,-9.98
14:33:10.328125,-7.91
14:33:10.343750,-5.55
14:33:10.359375,-3.00
14:33:10.375000,-0.40
14:33:10.390625,2.17
14:33:10.406250,4.63
14:33:10.421875,6.91
14:33:10.437500,8.91
14:33:10.453125,10.55
14:33:10.468750,11.77
14:33:10.484375,12.52
14:33:10.500000,12.81
14:33:10.515625,12.70
14:33:10.531250,12.33
14:33:10.546875,11.88
14:33:10.562500,11.47
14:33:10.578125,11.13
14:33:10.593750,10.69
14:33:10.609375,9.95
14:33:10.625000,8.83
14:33:10.640625,7.49
14:33:10.656250,6.30
14:33:10.671875,5.64
14:33:10.687500,5.70
14:33:10.703125,6.26
14:33:10.718750,6.84
14:33:10.734375,6.95
14:33:10.750000,6.36
14:33:10.765625,5.22
14:33:10.781250,3.94
14:33:10.796875,2.91
14:33:10.812500,2.26
14:33:10.828125,1.76
14:33:10.843750,1.06
14:33:10.859375,-0.15
14:33:10.875000,-1.87
14:33:10.890625,-3.85
14:33:10.906250,-5.68
14:33:10.921875,-7.04
14:33:10.937500,-7.78
14:33:10.953125,-7.98
14:33:10.968750,-7.80
14:33:10.984375,-7.36
14:33:11,-6.69
14:33:11.015625,-5.65
14:33:11.031250,-4.05
14:33:11.046875,-1.81
14:33:11.062500,0.98
14:33:11.078125,4.07
14:33:11.093750,7.06
14:33:11.109375,9.59
14:33:11.125000,11.40
14:33:11.140625,12.44
14:33:11.156250,12.89
14:33:11.171875,13.04
14:33:11.187500,13.18
14:33:11.203125,13.47
14:33:11.218750,13.91
14:33:11.234375,14.30
14:33:11.250000,14.38
14:33:11.265625,13.92
14:33:11.281250,12.87
14:33:11.296875,11.33
14:33:11.312500,9.56
14:33:11.328125,7.86
14:33:11.343750,6.48
14:33:11.359375,5.52
14:33:11.375000,4.96
14:33:11.390625,4.70
14:33:11.406250,4.62
14:33:11.421875,4.65
14:33:11.437500,4.70
14:33:11.453125,4.70
14:33:11.468750,4.53
14:33:11.484375,4.12
14:33:11.500000,3.39
14:33:11.515625,2.38
14:33:11.531250,1.20
14:33:11.546875,0.03
14:33:11.562500,-0.90
14:33:11.578125,-1.28
14:33:11.593750,-0.86
14:33:11.609375,0.55
14:33:11.625000,2.84
14:33:11.640625,5.57
14:33:11.656250,8.05
14:33:11.671875,9.54
14:33:11.687500,9.54
14:33:11.703125,7.96
14:33:11.718750,5.20
14:33:11.734375,1.95
14:33:11.750000,-1.17
14:33:11.765625,-3.71
14:33:11.781250,-5.59
14:33:11.796875,-6.85
14:33:11.812500,-7.50
14:33:11.828125,-7.42
14:33:11.843750,-6.31
14:33:11.859375,-3.84
14:33:11.875000,0.16
14:33:11.890625,5.47
14:33:11.906250,11.63
14:33:11.921875,17.91
14:33:11.937500,23.61
14:33:11.953125,28.11
14:33:11.968750,30.83
14:33:11.984375,31.38
14:33:12,29.48
14:33:12.015625,25.17
14:33:12.031250,18.86
14:33:12.046875,11.37
14:33:12.062500,3.72
14:33:12.078125,-3.19
14:33:12.093750,-8.84
14:33:12.109375,-13.12
14:33:12.125000,-16.20
14:33:12.140625,-18.27
14:33:12.156250,-19.43
14:33:12.171875,-19.76
14:33:12.187500,-19.43
14:33:12.203125,-18.91
14:33:12.218750,-18.84
14:33:12.234375,-19.81
14:33:12.250000,-22.16
14:33:12.265625,-25.71
14:33:12.281250,-29.90
14:33:12.296875,-33.97
14:33:12.312500,-37.21
14:33:12.328125,-39.23
14:33:12.343750,-40.03
14:33:12.359375,-40.01
14:33:12.375000,-39.73
14:33:12.390625,-39.70
14:33:12.406250,-40.12
14:33:12.421875,-40.75
14:33:12.437500,-41.02
14:33:12.453125,-40.21
14:33:12.468750,-37.75
14:33:12.484375,-33.35
14:33:12.500000,-27.05
14:33:12.515625,-19.23
14:33:12.531250,-10.62
14:33:12.546875,-2.13
14:33:12.562500,5.25
14:33:12.578125,10.74
14:33:12.593750,14.04
14:33:12.609375,15.56
14:33:12.625000,16.22
14:33:12.640625,17.01
14:33:12.656250,18.50
14:33:12.671875,20.34
14:33:12.687500,21.53
14:33:12.703125,20.92
14:33:12.718750,17.97
14:33:12.734375,13.21
14:33:12.750000,8.15
14:33:12.765625,4.61
14:33:12.781250,3.98
14:33:12.796875,6.75
14:33:12.812500,12.32
14:33:12.828125,19.58
14:33:12.843750,27.27
14:33:12.859375,34.45
14:33:12.875000,40.49
14:33:12.890625,44.90
14:33:12.906250,47.17
14:33:12.921875,46.86
14:33:12.937500,43.84
14:33:12.953125,38.64
14:33:12.968750,32.63
14:33:12.984375,27.68
14:33:13,25.55
14:33:13.015625,27.29
14:33:13.031250,32.66
14:33:13.046875,40.11
14:33:13.062500,47.38
14:33:13.078125,52.28
14:33:13.093750,53.45
14:33:13.109375,50.89
14:33:13.125000,45.82
14:33:13.140625,40.23
14:33:13.156250,36.18
14:33:13.171875,35.12
14:33:13.187500,37.53
14:33:13.203125,42.91
14:33:13.218750,49.98
14:33:13.234375,57.24
14:33:13.250000,63.37
14:33:13.265625,67.56
14:33:13.281250,69.54
14:33:13.296875,69.55
14:33:13.312500,68.07
14:33:13.328125,65.81
14:33:13.343750,63.58
14:33:13.359375,62.29
14:33:13.375000,62.78
14:33:13.390625,65.61
14:33:13.406250,70.89
14:33:13.421875,78.07
14:33:13.437500,86.06
14:33:13.453125,93.60
14:33:13.468750,99.59
14:33:13.484375,103.36
14:33:13.500000,104.73
14:33:13.515625,103.80
14:33:13.531250,100.83
14:33:13.546875,96.11
14:33:13.562500,89.98
14:33:13.578125,82.94
14:33:13.593750,75.66
14:33:13.609375,69.00
14:33:13.625000,63.77
14:33:13.640625,60.42
14:33:13.656250,58.84
14:33:13.671875,58.15
14:33:13.687500,56.80
14:33:13.703125,52.96
14:33:13.718750,45.04
14:33:13.734375,32.17
14:33:13.750000,14.55
14:33:13.765625,-6.61
14:33:13.781250,-29.59
14:33:13.796875,-52.67
14:33:13.812500,-74.65
14:33:13.828125,-95.05
14:33:13.843750,-113.94
14:33:13.859375,-131.74
14:33:13.875000,-148.97
14:33:13.890625,-166.20
14:33:13.906250,-183.95
14:33:13.921875,-202.63
14:33:13.937500,-222.19
14:33:13.953125,-241.73
14:33:13.968750,-259.39
14:33:13.984375,-272.76
14:33:14,-279.66
14:33:14.015625,-279.19
14:33:14.031250,-272.26
14:33:14.046875,-261.42
14:33:14.062500,-249.90
14:33:14.078125,-240.44
14:33:14.093750,-234.40
14:33:14.109375,-231.67
14:33:14.125000,-231.27
14:33:14.140625,-232.22
14:33:14.156250,-234.06
14:33:14.171875,-236.72
14:33:14.187500,-239.97
14:33:14.203125,-242.75
14:33:14.218750,-243.10
14:33:14.234375,-238.73
14:33:14.250000,-227.70
14:33:14.265625,-209.31
14:33:14.281250,-184.10
14:33:14.296875,-153.43
14:33:14.312500,-118.76
14:33:14.328125,-81.12
14:33:14.343750,-40.99
14:33:14.359375,1.24
14:33:14.375000,44.71
14:33:14.390625,87.85
14:33:14.406250,128.50
14:33:14.421875,164.42
14:33:14.437500,193.91
14:33:14.453125,216.08
14:33:14.468750,230.78
14:33:14.484375,238.33
14:33:14.500000,239.26
14:33:14.515625,234.18
14:33:14.531250,223.92
14:33:14.546875,209.60
14:33:14.562500,192.71
14:33:14.578125,174.86
14:33:14.593750,157.48
14:33:14.609375,141.58
14:33:14.625000,127.49
14:33:14.640625,115.06
14:33:14.656250,103.84
14:33:14.671875,93.55
14:33:14.687500,84.38
14:33:14.703125,76.96
14:33:14.718750,72.07
14:33:14.734375,70.07
14:33:14.750000,70.42
14:33:14.765625,71.72
14:33:14.781250,72.13
14:33:14.796875,70.13
14:33:14.812500,65.22
14:33:14.828125,58.05
14:33:14.843750,50.07
14:33:14.859375,42.74
14:33:14.875000,36.90
14:33:14.890625,32.47
14:33:14.906250,28.66
14:33:14.921875,24.39
14:33:14.937500,18.76
14:33:14.953125,11.40
14:33:14.968750,2.61
14:33:14.984375,-6.65
14:33:15,-15.00
14:33:15.015625,-20.90
14:33:15.031250,-23.27
14:33:15.046875,-21.87
14:33:15.062500,-17.49
14:33:15.078125,-11.68
14:33:15.093750,-6.18
14:33:15.109375,-2.18
14:33:15.125000,-0.06
14:33:15.140625,0.62
14:33:15.156250,0.65
14:33:15.171875,0.71
14:33:15.187500,1.16
14:33:15.203125,2.10
14:33:15.218750,3.63
14:33:15.234375,5.98
14:33:15.250000,9.61
14:33:15.265625,14.90
14:33:15.281250,21.89
14:33:15.296875,30.00
14:33:15.312500,38.14
14:33:15.328125,44.89
14:33:15.343750,48.99
14:33:15.359375,49.87
14:33:15.375000,47.87
14:33:15.390625,44.37
14:33:15.406250,41.28
14:33:15.421875,40.58
14:33:15.437500,43.61
14:33:15.453125,50.83
14:33:15.468750,61.60
14:33:15.484375,74.53
14:33:15.500000,87.85
14:33:15.515625,99.75
14:33:15.531250,108.82
14:33:15.546875,114.27
14:33:15.562500,116.05
14:33:15.578125,114.82
14:33:15.593750,111.70
14:33:15.609375,107.80
14:33:15.625000,103.84
14:33:15.640625,99.93
14:33:15.656250,95.60
14:33:15.671875,90.18
14:33:15.687500,83.18
14:33:15.703125,74.59
14:33:15.718750,64.79
14:33:15.734375,54.30
14:33:15.750000,43.46
14:33:15.765625,32.26
14:33:15.781250,20.34
14:33:15.796875,7.09
14:33:15.812500,-8.12
14:33:15.828125,-25.83
14:33:15.843750,-45.97
14:33:15.859375,-67.67
14:33:15.875000,-88.93
14:33:15.890625,-106.94
14:33:15.906250,-118.63
14:33:15.921875,-121.87
14:33:15.937500,-116.31
14:33:15.953125,-103.67
14:33:15.968750,-87.34
14:33:15.984375,-71.14
14:33:16,-58.26
14:33:16.015625,-50.74
14:33:16.031250,-49.51
14:33:16.046875,-54.39
14:33:16.062500,-64.39
14:33:16.078125,-77.66
14:33:16.093750,-91.70
14:33:16.109375,-103.87
14:33:16.125000,-112.20
14:33:16.140625,-115.79
14:33:16.156250,-114.89
14:33:16.171875,-110.34
14:33:16.187500,-102.82
14:33:16.203125,-92.58
14:33:16.218750,-79.81
14:33:16.234375,-65.27
14:33:16.250000,-50.73
14:33:16.265625,-38.54
14:33:16.281250,-30.54
14:33:16.296875,-27.07
14:33:16.312500,-26.72
14:33:16.328125,-27.08
14:33:16.343750,-26.12
14:33:16.359375,-23.16
14:33:16.375000,-19.01
14:33:16.390625,-15.26
14:33:16.406250,-13.22
14:33:16.421875,-13.23
14:33:16.437500,-14.61
14:33:16.453125,-16.12
14:33:16.468750,-16.65
14:33:16.484375,-15.68
14:33:16.500000,-13.28
14:33:16.515625,-9.78
14:33:16.531250,-5.46
14:33:16.546875,-0.45
14:33:16.562500,5.33
14:33:16.578125,11.92
14:33:16.593750,19.05
14:33:16.609375,26.05
14:33:16.625000,31.92
14:33:16.640625,35.80
14:33:16.656250,37.47
14:33:16.671875,37.66
14:33:16.687500,37.84
14:33:16.703125,39.52
14:33:16.718750,43.25
14:33:16.734375,48.45
14:33:16.750000,53.94
14:33:16.765625,58.99
14:33:16.781250,64.10
14:33:16.796875,70.51
14:33:16.812500,78.76
14:33:16.828125,87.41
14:33:16.843750,92.95
14:33:16.859375,91.45
14:33:16.875000,80.88
14:33:16.890625,62.73
14:33:16.906250,41.42
14:33:16.921875,22.16
14:33:16.937500,7.97
14:33:16.953125,-1.69
14:33:16.968750,-10.30
14:33:16.984375,-21.86
14:33:17,-38.49
14:33:17.015625,-59.12
14:33:17.031250,-80.15
14:33:17.046875,-97.38
14:33:17.062500,-107.93
14:33:17.078125,-111.50
14:33:17.093750,-110.15
14:33:17.109375,-107.33
14:33:17.125000,-106.33
14:33:17.140625,-109.03
14:33:17.156250,-115.30
14:33:17.171875,-123.39
14:33:17.187500,-130.82
14:33:17.203125,-135.61
14:33:17.218750,-137.06
14:33:17.234375,-135.74
14:33:17.250000,-132.88
14:33:17.265625,-129.67
14:33:17.281250,-126.78
14:33:17.296875,-124.45
14:33:17.312500,-122.73
14:33:17.328125,-121.66
14:33:17.343750,-121.13
14:33:17.359375,-120.55
14:33:17.375000,-118.78
14:33:17.390625,-114.30
14:33:17.406250,-105.78
14:33:17.421875,-92.57
14:33:17.437500,-74.93
14:33:17.453125,-53.82
14:33:17.468750,-30.44
14:33:17.484375,-5.92
14:33:17.500000,18.78
14:33:17.515625,42.63
14:33:17.531250,64.48
14:33:17.546875,83.07
14:33:17.562500,97.33
14:33:17.578125,106.70
14:33:17.593750,111.30
14:33:17.609375,111.86
14:33:17.625000,109.48
14:33:17.640625,105.34
14:33:17.656250,100.49
14:33:17.671875,95.82
14:33:17.687500,91.95
14:33:17.703125,89.30
14:33:17.718750,88.05
14:33:17.734375,88.14
14:33:17.750000,89.19
14:33:17.765625,90.48
14:33:17.781250,91.07
14:33:17.796875,89.99
14:33:17.812500,86.51
14:33:17.828125,80.32
14:33:17.843750,71.73
14:33:17.859375,61.65
14:33:17.875000,51.31
14:33:17.890625,42.02
14:33:17.906250,34.71
14:33:17.921875,29.74
14:33:17.937500,26.83
14:33:17.953125,25.32
14:33:17.968750,24.37
14:33:17.984375,23.38
14:33:18,22.11
14:33:18.015625,20.73
14:33:18.031250,19.62
14:33:18.046875,19.11
14:33:18.062500,19.24
14:33:18.078125,19.75
14:33:18.093750,20.23
14:33:18.109375,20.27
14:33:18.125000,19.66
14:33:18.140625,18.44
14:33:18.156250,16.76
14:33:18.171875,14.82
14:33:18.187500,12.76
14:33:18.203125,10.66
14:33:18.218750,8.56
14:33:18.234375,6.47
14:33:18.250000,4.44
14:33:18.265625,2.49
14:33:18.281250,0.60
14:33:18.296875,-1.22
14:33:18.312500,-3.02
14:33:18.328125,-4.86
14:33:18.343750,-6.81
14:33:18.359375,-8.96
14:33:18.375000,-11.31
14:33:18.390625,-13.83
14:33:18.406250,-16.36
14:33:18.421875,-18.66
14:33:18.437500,-20.51
14:33:18.453125,-21.72
14:33:18.468750,-22.21
14:33:18.484375,-21.95
14:33:18.500000,-21.03
14:33:18.515625,-19.52
14:33:18.531250,-17.59
14:33:18.546875,-15.43
14:33:18.562500,-13.31
14:33:18.578125,-11.41
14:33:18.593750,-9.83
14:33:18.609375,-8.43
14:33:18.625000,-6.93
14:33:18.640625,-5.03
14:33:18.656250,-2.53
14:33:18.671875,0.50
14:33:18.687500,3.82
14:33:18.703125,7.10
14:33:18.718750,10.01
14:33:18.734375,12.35
14:33:18.750000,14.10
14:33:18.765625,15.28
14:33:18.781250,15.94
14:33:18.796875,16.07
14:33:18.812500,15.65
14:33:18.828125,14.64
14:33:18.843750,13.09
14:33:18.859375,11.09
14:33:18.875000,8.86
14:33:18.890625,6.67
14:33:18.906250,4.86
14:33:18.921875,3.63
14:33:18.937500,3.09
14:33:18.953125,3.20
14:33:18.968750,3.81
14:33:18.984375,4.71
14:33:19,5.75
14:33:19.015625,6.81
14:33:19.031250,7.83
14:33:19.046875,8.80
14:33:19.062500,9.67
14:33:19.078125,10.44
14:33:19.093750,11.09
14:33:19.109375,11.64
14:33:19.125000,12.07
14:33:19.140625,12.36
14:33:19.156250,12.44
14:33:19.171875,12.25
14:33:19.187500,11.81
14:33:19.203125,11.20
14:33:19.218750,10.53
14:33:19.234375,9.89
14:33:19.250000,9.29
14:33:19.265625,8.65
14:33:19.281250,7.88
14:33:19.296875,6.98
14:33:19.312500,6.05
14:33:19.328125,5.28
14:33:19.343750,4.82
14:33:19.359375,4.71
14:33:19.375000,4.79
14:33:19.390625,4.80
14:33:19.406250,4.49
14:33:19.421875,3.72
14:33:19.437500,2.52
14:33:19.453125,1.03
14:33:19.468750,-0.64
14:33:19.484375,-2.46
14:33:19.500000,-4.42
14:33:19.515625,-6.58
14:33:19.531250,-8.84
14:33:19.546875,-10.97
14:33:19.562500,-12.72
14:33:19.578125,-13.86
14:33:19.593750,-14.34
14:33:19.609375,-14.20
14:33:19.625000,-13.62
14:33:19.640625,-12.73
14:33:19.656250,-11.65
14:33:19.671875,-10.42
14:33:19.687500,-9.09
14:33:19.703125,-7.68
14:33:19.718750,-6.25
14:33:19.734375,-4.89
14:33:19.750000,-3.62
14:33:19.765625,-2.48
14:33:19.781250,-1.47
14:33:19.796875,-0.59
14:33:19.812500,0.17
14:33:19.828125,0.85
14:33:19.843750,1.49
14:33:19.859375,2.14
14:33:19.875000,2.83
14:33:19.890625,3.55
14:33:19.906250,4.23
14:33:19.921875,4.80
14:33:19.937500,5.25
14:33:19.953125,5.64
14:33:19.968750,6.09
14:33:19.984375,6.70
14:33:20,7.51
14:33:20.015625,8.46
14:33:20.031250,9.39
14:33:20.046875,10.12
14:33:20.062500,10.50
14:33:20.078125,10.44
14:33:20.093750,10.00
14:33:20.109375,9.29
14:33:20.125000,8.48
14:33:20.140625,7.72
14:33:20.156250,7.11
14:33:20.171875,6.62
14:33:20.187500,6.18
14:33:20.203125,5.52
14:33:20.218750,4.43
14:33:20.234375,2.68
14:33:20.250000,0.29
14:33:20.265625,-2.58
14:33:20.281250,-5.53
14:33:20.296875,-8.22
14:33:20.312500,-10.40
14:33:20.328125,-11.98
14:33:20.343750,-13.08
14:33:20.359375,-13.79
14:33:20.375000,-14.13
14:33:20.390625,-14.03
14:33:20.406250,-13.40
14:33:20.421875,-12.19
14:33:20.437500,-10.55
14:33:20.453125,-8.66
14:33:20.468750,-6.73
14:33:20.484375,-4.83
14:33:20.500000,-2.95
14:33:20.515625,-1.11
14:33:20.531250,0.63
14:33:20.546875,2.13
14:33:20.562500,3.24
14:33:20.578125,3.91
14:33:20.593750,4.28
14:33:20.609375,4.53
14:33:20.625000,4.82
14:33:20.640625,5.15
14:33:20.656250,5.40
14:33:20.671875,5.42
14:33:20.687500,5.12
14:33:20.703125,4.58
14:33:20.718750,3.94
14:33:20.734375,3.40
14:33:20.750000,3.09
14:33:20.765625,3.00
14:33:20.781250,3.06
14:33:20.796875,3.06
14:33:20.812500,2.81
14:33:20.828125,2.14
14:33:20.843750,1.01
14:33:20.859375,-0.50
14:33:20.875000,-2.11
14:33:20.890625,-3.51
14:33:20.906250,-4.43
14:33:20.921875,-4.72
14:33:20.937500,-4.44
14:33:20.953125,-3.77
14:33:20.968750,-2.98
14:33:20.984375,-2.31
14:33:21,-1.91
14:33:21.015625,-1.84
14:33:21.031250,-2.08
14:33:21.046875,-2.54
14:33:21.062500,-3.03
14:33:21.078125,-3.30
14:33:21.093750,-3.10
14:33:21.109375,-2.26
14:33:21.125000,-0.80
14:33:21.140625,1.04
14:33:21.156250,2.89
14:33:21.171875,4.36
14:33:21.187500,5.25
14:33:21.203125,5.67
14:33:21.218750,5.92
14:33:21.234375,6.39
14:33:21.250000,7.32
14:33:21.265625,8.60
14:33:21.281250,9.93
14:33:21.296875,10.90
14:33:21.312500,11.28
14:33:21.328125,11.06
14:33:21.343750,10.52
14:33:21.359375,9.92
14:33:21.375000,9.42
14:33:21.390625,8.99
14:33:21.406250,8.49
14:33:21.421875,7.85
14:33:21.437500,7.15
14:33:21.453125,6.60
14:33:21.468750,6.44
14:33:21.484375,6.75
14:33:21.500000,7.40
14:33:21.515625,8.15
14:33:21.531250,8.72
14:33:21.546875,8.94
14:33:21.562500,8.75
14:33:21.578125,8.23
14:33:21.593750,7.47
14:33:21.609375,6.50
14:33:21.625000,5.31
14:33:21.640625,3.85
14:33:21.656250,2.09
14:33:21.671875,0.03
14:33:21.687500,-2.31
14:33:21.703125,-4.80
14:33:21.718750,-7.23
14:33:21.734375,-9.39
14:33:21.750000,-11.11
14:33:21.765625,-12.35
14:33:21.781250,-13.19
14:33:21.796875,-13.76
14:33:21.812500,-14.12
14:33:21.828125,-14.21
14:33:21.843750,-13.86
14:33:21.859375,-12.86
14:33:21.875000,-11.15
14:33:21.890625,-8.79
14:33:21.906250,-5.99
14:33:21.921875,-3.02
14:33:21.937500,-0.05
14:33:21.953125,2.79
14:33:21.968750,5.45
14:33:21.984375,7.84
14:33:22,9.90
14:33:22.015625,11.52
14:33:22.031250,12.66
14:33:22.046875,13.28
14:33:22.062500,13.45
14:33:22.078125,13.21
14:33:22.093750,12.65
14:33:22.109375,11.87
14:33:22.125000,10.96
14:33:22.140625,10.00
14:33:22.156250,9.04
14:33:22.171875,8.10
14:33:22.187500,7.16
14:33:22.203125,6.17
14:33:22.218750,5.16
14:33:22.234375,4.23
14:33:22.250000,3.52
14:33:22.265625,3.15
14:33:22.281250,3.10
14:33:22.296875,3.20
14:33:22.312500,3.20
14:33:22.328125,2.87
14:33:22.343750,2.11
14:33:22.359375,1.01
14:33:22.375000,-0.32
14:33:22.390625,-1.68
14:33:22.406250,-3.01
14:33:22.421875,-4.34
14:33:22.437500,-5.69
14:33:22.453125,-7.10
14:33:22.468750,-8.49
14:33:22.484375,-9.74
14:33:22.500000,-10.79
14:33:22.515625,-11.67
14:33:22.531250,-12.49
14:33:22.546875,-13.42
14:33:22.562500,-14.47
14:33:22.578125,-15.51
14:33:22.593750,-16.19
14:33:22.609375,-16.10
14:33:22.625000,-14.97
14:33:22.640625,-12.86
14:33:22.656250,-10.11
14:33:22.671875,-7.27
14:33:22.687500,-4.75
14:33:22.703125,-2.73
14:33:22.718750,-1.13
14:33:22.734375,0.25
14:33:22.750000,1.52
14:33:22.765625,2.66
14:33:22.781250,3.57
14:33:22.796875,4.20
14:33:22.812500,4.64
14:33:22.828125,5.11
14:33:22.843750,5.73
14:33:22.859375,6.48
14:33:22.875000,7.16
14:33:22.890625,7.58
14:33:22.906250,7.68
14:33:22.921875,7.63
14:33:22.937500,7.69
14:33:22.953125,8.05
14:33:22.968750,8.70
14:33:22.984375,9.36
14:33:23,9.73
14:33:23.015625,9.58
14:33:23.031250,8.90
14:33:23.046875,7.84
14:33:23.062500,6.68
14:33:23.078125,5.56
14:33:23.093750,4.51
14:33:23.109375,3.48
14:33:23.125000,2.40
14:33:23.140625,1.35
14:33:23.156250,0.48
14:33:23.171875,-0.06
14:33:23.187500,-0.16
14:33:23.203125,0.12
14:33:23.218750,0.63
14:33:23.234375,1.14
14:33:23.250000,1.48
14:33:23.265625,1.52
14:33:23.281250,1.19
14:33:23.296875,0.48
14:33:23.312500,-0.56
14:33:23.328125,-1.70
14:33:23.343750,-2.62
14:33:23.359375,-2.96
14:33:23.375000,-2.48
14:33:23.390625,-1.21
14:33:23.406250,0.55
14:33:23.421875,2.42
14:33:23.437500,4.07
14:33:23.453125,5.33
14:33:23.468750,6.28
14:33:23.484375,7.02
14:33:23.500000,7.64
14:33:23.515625,8.15
14:33:23.531250,8.53
14:33:23.546875,8.79
14:33:23.562500,9.01
14:33:23.578125,9.22
14:33:23.593750,9.39
14:33:23.609375,9.42
14:33:23.625000,9.19
14:33:23.640625,8.69
14:33:23.656250,8.05
14:33:23.671875,7.47
14:33:23.687500,7.11
14:33:23.703125,6.97
14:33:23.718750,6.92
14:33:23.734375,6.74
14:33:23.750000,6.33
14:33:23.765625,5.66
14:33:23.781250,4.84
14:33:23.796875,3.92
14:33:23.812500,2.91
14:33:23.828125,1.76
14:33:23.843750,0.44
14:33:23.859375,-0.96
14:33:23.875000,-2.27
14:33:23.890625,-3.29
14:33:23.906250,-3.94
14:33:23.921875,-4.28
14:33:23.937500,-4.53
14:33:23.953125,-4.94
14:33:23.968750,-5.66
14:33:23.984375,-6.66
14:33:24,-7.78
14:33:24.015625,-8.79
14:33:24.031250,-9.55
14:33:24.046875,-10.04
14:33:24.062500,-10.32
14:33:24.078125,-10.49
14:33:24.093750,-10.51
14:33:24.109375,-10.17
14:33:24.125000,-9.30
14:33:24.140625,-7.84
14:33:24.156250,-5.94
14:33:24.171875,-3.98
14:33:24.187500,-2.31
14:33:24.203125,-1.08
14:33:24.218750,-0.18
14:33:24.234375,0.69
14:33:24.250000,1.75
14:33:24.265625,3.00
14:33:24.281250,4.19
14:33:24.296875,4.97
14:33:24.312500,5.11
14:33:24.328125,4.64
14:33:24.343750,3.83
14:33:24.359375,2.97
14:33:24.375000,2.23
14:33:24.390625,1.62
14:33:24.406250,0.99
14:33:24.421875,0.27
14:33:24.437500,-0.52
14:33:24.453125,-1.25
14:33:24.468750,-1.86
14:33:24.484375,-2.36
14:33:24.500000,-2.90
14:33:24.515625,-3.62
14:33:24.531250,-4.56
14:33:24.546875,-5.54
14:33:24.562500,-6.23
14:33:24.578125,-6.36
14:33:24.593750,-5.81
14:33:24.609375,-4.79
14:33:24.625000,-3.77
14:33:24.640625,-3.25
14:33:24.656250,-3.52
14:33:24.671875,-4.56
14:33:24.687500,-6.08
14:33:24.703125,-7.67
14:33:24.718750,-9.02
14:33:24.734375,-10.06
14:33:24.750000,-10.90
14:33:24.765625,-11.75
14:33:24.781250,-12.69
14:33:24.796875,-13.62
14:33:24.812500,-14.19
14:33:24.828125,-14.07
14:33:24.843750,-13.02
14:33:24.859375,-11.12
14:33:24.875000,-8.70
14:33:24.890625,-6.17
14:33:24.906250,-3.83
14:33:24.921875,-1.72
14:33:24.937500,0.34
14:33:24.953125,2.56
14:33:24.968750,4.97
14:33:24.984375,7.36
14:33:25,9.34
14:33:25.015625,10.57
14:33:25.031250,10.97
14:33:25.046875,10.72
14:33:25.062500,10.25
14:33:25.078125,9.93
14:33:25.093750,9.98
14:33:25.109375,10.41
14:33:25.125000,11.15
14:33:25.140625,12.10
14:33:25.156250,13.22
14:33:25.171875,14.49
14:33:25.187500,15.85
14:33:25.203125,17.17
14:33:25.218750,18.25
14:33:25.234375,18.97
14:33:25.250000,19.26
14:33:25.265625,19.19
14:33:25.281250,18.86
14:33:25.296875,18.45
14:33:25.312500,18.07
14:33:25.328125,17.73
14:33:25.343750,17.36
14:33:25.359375,16.80
14:33:25.375000,15.87
14:33:25.390625,14.52
14:33:25.406250,12.82
14:33:25.421875,10.97
14:33:25.437500,9.26
14:33:25.453125,7.85
14:33:25.468750,6.72
14:33:25.484375,5.62
14:33:25.500000,4.25
14:33:25.515625,2.42
14:33:25.531250,0.23
14:33:25.546875,-1.96
14:33:25.562500,-3.75
14:33:25.578125,-4.85
14:33:25.593750,-5.32
14:33:25.609375,-5.49
14:33:25.625000,-5.79
14:33:25.640625,-6.56
14:33:25.656250,-7.81
14:33:25.671875,-9.26
14:33:25.687500,-10.40
14:33:25.703125,-10.82
14:33:25.718750,-10.29
14:33:25.734375,-8.91
14:33:25.750000,-7.07
14:33:25.765625,-5.26
14:33:25.781250,-3.97
14:33:25.796875,-3.48
14:33:25.812500,-3.82
14:33:25.828125,-4.77
14:33:25.843750,-5.88
14:33:25.859375,-6.73
14:33:25.875000,-7.01
14:33:25.890625,-6.73
14:33:25.906250,-6.23
14:33:25.921875,-6.09
14:33:25.937500,-6.85
14:33:25.953125,-8.78
14:33:25.968750,-11.74
14:33:25.984375,-15.15
14:33:26,-18.19
14:33:26.015625,-20.05
14:33:26.031250,-20.21
14:33:26.046875,-18.47
14:33:26.062500,-15.02
14:33:26.078125,-10.30
14:33:26.093750,-4.94
14:33:26.109375,0.46
14:33:26.125000,5.47
14:33:26.140625,10.07
14:33:26.156250,14.58
14:33:26.171875,19.43
14:33:26.187500,24.83
14:33:26.203125,30.37
14:33:26.218750,35.07
14:33:26.234375,37.63
14:33:26.250000,37.05
14:33:26.265625,33.16
14:33:26.281250,26.68
14:33:26.296875,19.00
14:33:26.312500,11.57
14:33:26.328125,5.31
14:33:26.343750,0.34
14:33:26.359375,-3.76
14:33:26.375000,-7.49
14:33:26.390625,-11.00
14:33:26.406250,-13.98
14:33:26.421875,-15.92
14:33:26.437500,-16.51
14:33:26.453125,-15.86
14:33:26.468750,-14.55
14:33:26.484375,-13.38
14:33:26.500000,-13.00
14:33:26.515625,-13.67
14:33:26.531250,-15.22
14:33:26.546875,-17.15
14:33:26.562500,-18.96
14:33:26.578125,-20.20
14:33:26.593750,-20.70
14:33:26.609375,-20.41
14:33:26.625000,-19.43
14:33:26.640625,-17.90
14:33:26.656250,-15.90
14:33:26.671875,-13.46
14:33:26.687500,-10.46
14:33:26.703125,-6.76
14:33:26.718750,-2.18
14:33:26.734375,3.25
14:33:26.750000,9.37
14:33:26.765625,15.83
14:33:26.781250,22.29
14:33:26.796875,28.55
14:33:26.812500,34.70
14:33:26.828125,41.02
14:33:26.843750,47.81
14:33:26.859375,55.03
14:33:26.875000,62.20
14:33:26.890625,68.46
14:33:26.906250,73.07
14:33:26.921875,75.87
14:33:26.937500,77.48
14:33:26.953125,79.16
14:33:26.968750,82.17
14:33:26.984375,87.06
14:33:27,93.35
14:33:27.015625,99.70
14:33:27.031250,104.59
14:33:27.046875,107.04
14:33:27.062500,106.97
14:33:27.078125,105.07
14:33:27.093750,102.14
14:33:27.109375,98.65
14:33:27.125000,94.55
14:33:27.140625,89.49
14:33:27.156250,83.30
14:33:27.171875,76.19
14:33:27.187500,68.62
14:33:27.203125,60.92
14:33:27.218750,53.06
14:33:27.234375,44.62
14:33:27.250000,35.15
14:33:27.265625,24.66
14:33:27.281250,13.79
14:33:27.296875,3.67
14:33:27.312500,-4.53
14:33:27.328125,-10.03
14:33:27.343750,-12.53
14:33:27.359375,-12.02
14:33:27.375000,-8.57
14:33:27.390625,-2.18
14:33:27.406250,7.02
14:33:27.421875,18.57
14:33:27.437500,31.46
14:33:27.453125,44.36
14:33:27.468750,55.85
14:33:27.484375,64.66
14:33:27.500000,70.09
14:33:27.515625,71.94
14:33:27.531250,70.61
14:33:27.546875,67.14
14:33:27.562500,63.03
14:33:27.578125,59.65
14:33:27.593750,57.56
14:33:27.609375,55.92
14:33:27.625000,52.61
14:33:27.640625,45.20
14:33:27.656250,32.43
14:33:27.671875,15.32
14:33:27.687500,-2.78
14:33:27.703125,-17.32
14:33:27.718750,-24.48
14:33:27.734375,-22.76
14:33:27.750000,-13.53
14:33:27.765625,-0.19
14:33:27.781250,13.28
14:33:27.796875,23.63
14:33:27.812500,28.89
14:33:27.828125,27.96
14:33:27.843750,20.33
14:33:27.859375,5.87
14:33:27.875000,-14.60
14:33:27.890625,-38.67
14:33:27.906250,-62.46
14:33:27.921875,-81.50
14:33:27.937500,-92.41
14:33:27.953125,-94.36
14:33:27.968750,-89.67
14:33:27.984375,-83.18
14:33:28,-80.35
14:33:28.015625,-85.24
14:33:28.031250,-98.94
14:33:28.046875,-119.20
14:33:28.062500,-141.41
14:33:28.078125,-160.39
14:33:28.093750,-172.26
14:33:28.109375,-175.71
14:33:28.125000,-172.20
14:33:28.140625,-164.93
14:33:28.156250,-157.30
14:33:28.171875,-151.45
14:33:28.187500,-147.58
14:33:28.203125,-144.43
14:33:28.218750,-140.45
14:33:28.234375,-134.82
14:33:28.250000,-127.95
14:33:28.265625,-121.01
14:33:28.281250,-115.12
14:33:28.296875,-110.48
14:33:28.312500,-106.29
14:33:28.328125,-101.35
14:33:28.343750,-94.76
14:33:28.359375,-86.54
14:33:28.375000,-77.47
14:33:28.390625,-68.49
14:33:28.406250,-60.11
14:33:28.421875,-52.14
14:33:28.437500,-43.95
14:33:28.453125,-35.09
14:33:28.468750,-25.59
14:33:28.484375,-16.08
14:33:28.500000,-7.37
14:33:28.515625,-0.21
14:33:28.531250,4.98
14:33:28.546875,8.02
14:33:28.562500,8.90
14:33:28.578125,7.67
14:33:28.593750,4.60
14:33:28.609375,0.33
14:33:28.625000,-4.08
14:33:28.640625,-7.21
14:33:28.656250,-7.76
14:33:28.671875,-5.00
14:33:28.687500,0.93
14:33:28.703125,8.95
14:33:28.718750,17.29
14:33:28.734375,24.05
14:33:28.750000,27.67
14:33:28.765625,27.25
14:33:28.781250,22.47
14:33:28.796875,13.32
14:33:28.812500,0.14
14:33:28.828125,-16.18
14:33:28.843750,-33.77
14:33:28.859375,-49.71
14:33:28.875000,-60.72
14:33:28.890625,-64.45
14:33:28.906250,-60.80
14:33:28.921875,-52.19
14:33:28.937500,-42.72
14:33:28.953125,-36.32
14:33:28.968750,-35.14
14:33:28.984375,-38.98
14:33:29,-45.83
14:33:29.015625,-53.20
14:33:29.031250,-59.04
14:33:29.046875,-62.03
14:33:29.062500,-61.21
14:33:29.078125,-55.67
14:33:29.093750,-44.70
14:33:29.109375,-28.47
14:33:29.125000,-8.67
14:33:29.140625,11.61
14:33:29.156250,28.75
14:33:29.171875,39.92
14:33:29.187500,44.30
14:33:29.203125,43.20
14:33:29.218750,39.44
14:33:29.234375,36.09
14:33:29.250000,35.29
14:33:29.265625,37.65
14:33:29.281250,42.41
14:33:29.296875,48.10
14:33:29.312500,53.28
14:33:29.328125,57.07
14:33:29.343750,59.27
14:33:29.359375,60.23
14:33:29.375000,60.58
14:33:29.390625,60.95
14:33:29.406250,61.78
14:33:29.421875,63.14
14:33:29.437500,64.74
14:33:29.453125,66.03
14:33:29.468750,66.46
14:33:29.484375,65.65
14:33:29.500000,63.68
14:33:29.515625,60.96
14:33:29.531250,58.03
14:33:29.546875,55.28
14:33:29.562500,52.78
14:33:29.578125,50.33
14:33:29.593750,47.70
14:33:29.609375,44.91
14:33:29.625000,42.22
14:33:29.640625,40.04
14:33:29.656250,38.56
14:33:29.671875,37.63
14:33:29.687500,36.88
14:33:29.703125,35.86
14:33:29.718750,34.36
14:33:29.734375,32.42
14:33:29.750000,30.24
14:33:29.765625,28.06
14:33:29.781250,25.96
14:33:29.796875,23.94
14:33:29.812500,21.90
14:33:29.828125,19.88
14:33:29.843750,18.02
14:33:29.859375,16.51
14:33:29.875000,15.45
14:33:29.890625,14.68
14:33:29.906250,13.89
14:33:29.921875,12.69
14:33:29.937500,10.86
14:33:29.953125,8.42
14:33:29.968750,5.69
14:33:29.984375,3.06
14:33:30,0.91
14:33:30.015625,-0.62
14:33:30.031250,-1.62
14:33:30.046875,-2.41
14:33:30.062500,-3.44
14:33:30.078125,-5.14
14:33:30.093750,-7.95
14:33:30.109375,-11.96
14:33:30.125000,-16.98
14:33:30.140625,-22.33
14:33:30.156250,-27.11
14:33:30.171875,-30.38
14:33:30.187500,-31.63
14:33:30.203125,-30.94
14:33:30.218750,-29.03
14:33:30.234375,-26.86
14:33:30.250000,-25.19
14:33:30.265625,-24.30
14:33:30.281250,-24.07
14:33:30.296875,-24.22
14:33:30.312500,-24.64
14:33:30.328125,-25.48
14:33:30.343750,-27.06
14:33:30.359375,-29.50
14:33:30.375000,-32.50
14:33:30.390625,-35.33
14:33:30.406250,-37.01
14:33:30.421875,-36.69
14:33:30.437500,-33.95
14:33:30.453125,-28.99
14:33:30.468750,-22.65
14:33:30.484375,-16.10
14:33:30.500000,-10.47
14:33:30.515625,-6.47
14:33:30.531250,-4.22
14:33:30.546875,-3.25
14:33:30.562500,-2.78
14:33:30.578125,-2.23
14:33:30.593750,-1.39
14:33:30.609375,-0.58
14:33:30.625000,-0.31
14:33:30.640625,-0.92
14:33:30.656250,-2.29
14:33:30.671875,-3.84
14:33:30.687500,-4.84
14:33:30.703125,-4.71
14:33:30.718750,-3.36
14:33:30.734375,-1.17
14:33:30.750000,1.21
14:33:30.765625,3.22
14:33:30.781250,4.55
14:33:30.796875,5.19
14:33:30.812500,5.39
14:33:30.828125,5.46
14:33:30.843750,5.68
14:33:30.859375,6.21
14:33:30.875000,7.11
14:33:30.890625,8.27
14:33:30.906250,9.56
14:33:30.921875,10.79
14:33:30.937500,11.87
14:33:30.953125,12.85
14:33:30.968750,13.88
14:33:30.984375,15.13
14:33:31,16.60
14:33:31.015625,18.11
14:33:31.031250,19.26
14:33:31.046875,19.72
14:33:31.062500,19.36
14:33:31.078125,18.37
14:33:31.093750,17.12
14:33:31.109375,16.02
14:33:31.125000,15.21
14:33:31.140625,14.58
14:33:31.156250,13.87
14:33:31.171875,12.88
14:33:31.187500,11.59
14:33:31.203125,10.22
14:33:31.218750,9.05
14:33:31.234375,8.28
14:33:31.250000,7.87
14:33:31.265625,7.60
14:33:31.281250,7.21
14:33:31.296875,6.53
14:33:31.312500,5.59
14:33:31.328125,4.56
14:33:31.343750,3.64
14:33:31.359375,2.88
14:33:31.375000,2.14
14:33:31.390625,1.19
14:33:31.406250,-0.14
14:33:31.421875,-1.80
14:33:31.437500,-3.55
14:33:31.453125,-5.03
14:33:31.468750,-5.97
14:33:31.484375,-6.35
14:33:31.500000,-6.34
14:33:31.515625,-6.27
14:33:31.531250,-6.44
14:33:31.546875,-7.06
14:33:31.562500,-8.21
14:33:31.578125,-9.80
14:33:31.593750,-11.60
14:33:31.609375,-13.18
14:33:31.625000,-13.93
14:33:31.640625,-13.24
14:33:31.656250,-10.77
14:33:31.671875,-6.75
14:33:31.687500,-1.99
14:33:31.703125,2.36
14:33:31.718750,5.27
14:33:31.734375,6.22
14:33:31.750000,5.49
14:33:31.765625,3.87
14:33:31.781250,2.37
14:33:31.796875,1.76
14:33:31.812500,2.32
14:33:31.828125,3.92
14:33:31.843750,6.09
14:33:31.859375,8.35
14:33:31.875000,10.25
14:33:31.890625,11.56
14:33:31.906250,12.12
14:33:31.921875,11.88
14:33:31.937500,10.93
14:33:31.953125,9.42
14:33:31.968750,7.61
14:33:31.984375,5.79
14:33:32,4.25
14:33:32.015625,3.16
14:33:32.031250,2.62
14:33:32.046875,2.49
14:33:32.062500,2.55
14:33:32.078125,2.57
14:33:32.093750,2.38
14:33:32.109375,1.95
14:33:32.125000,1.35
14:33:32.140625,0.68
14:33:32.156250,0.01
14:33:32.171875,-0.63
14:33:32.187500,-1.30
14:33:32.203125,-2.03
14:33:32.218750,-2.86
14:33:32.234375,-3.83
14:33:32.250000,-4.96
14:33:32.265625,-6.29
14:33:32.281250,-7.86
14:33:32.296875,-9.72
14:33:32.312500,-11.83
14:33:32.328125,-14.02
14:33:32.343750,-15.96
14:33:32.359375,-17.19
14:33:32.375000,-17.33
14:33:32.390625,-16.20
14:33:32.406250,-14.08
14:33:32.421875,-11.59
14:33:32.437500,-9.52
14:33:32.453125,-8.47
14:33:32.468750,-8.62
14:33:32.484375,-9.68
14:33:32.500000,-10.97
14:33:32.515625,-11.75
14:33:32.531250,-11.45
14:33:32.546875,-9.78
14:33:32.562500,-6.88
14:33:32.578125,-3.17
14:33:32.593750,0.68
14:33:32.609375,3.93
14:33:32.625000,5.98
14:33:32.640625,6.65
14:33:32.656250,6.14
14:33:32.671875,5.06
14:33:32.687500,4.12
14:33:32.703125,3.85
14:33:32.718750,4.50
14:33:32.734375,5.95
14:33:32.750000,7.91
14:33:32.765625,9.97
14:33:32.781250,11.74
14:33:32.796875,12.91
14:33:32.812500,13.31
14:33:32.828125,12.98
14:33:32.843750,12.26
14:33:32.859375,11.68
14:33:32.875000,11.76
14:33:32.890625,12.79
14:33:32.906250,14.65
14:33:32.921875,16.87
14:33:32.937500,18.96
14:33:32.953125,20.67
14:33:32.968750,22.06
14:33:32.984375,23.47
14:33:33,25.24
14:33:33.015625,27.42
14:33:33.031250,29.73
14:33:33.046875,31.65
14:33:33.062500,32.83
14:33:33.078125,33.34
14:33:33.093750,33.68
14:33:33.109375,34.60
14:33:33.125000,36.76
14:33:33.140625,40.42
14:33:33.156250,45.29
14:33:33.171875,50.69
14:33:33.187500,55.91
14:33:33.203125,60.58
14:33:33.218750,64.92
14:33:33.234375,69.59
14:33:33.250000,75.40
14:33:33.265625,82.79
14:33:33.281250,91.47
14:33:33.296875,100.39
14:33:33.312500,108.12
14:33:33.328125,113.31
14:33:33.343750,115.26
14:33:33.359375,114.12
14:33:33.375000,110.55
14:33:33.390625,105.31
14:33:33.406250,98.82
14:33:33.421875,91.30
14:33:33.437500,83.01
14:33:33.453125,74.21
14:33:33.468750,64.50
14:33:33.484375,52.23
14:33:33.500000,34.57
14:33:33.515625,8.63
14:33:33.531250,-26.58
14:33:33.546875,-68.63
14:33:33.562500,-111.65
14:33:33.578125,-148.26
14:33:33.593750,-172.68
14:33:33.609375,-183.15
14:33:33.625000,-182.50
14:33:33.640625,-176.26
14:33:33.656250,-169.56
14:33:33.671875,-164.80
14:33:33.687500,-161.03
14:33:33.703125,-155.46
14:33:33.718750,-145.72
14:33:33.734375,-131.61
14:33:33.750000,-115.25
14:33:33.765625,-99.93
14:33:33.781250,-88.41
14:33:33.796875,-81.82
14:33:33.812500,-79.37
14:33:33.828125,-79.18
14:33:33.843750,-79.28
14:33:33.859375,-78.34
14:33:33.875000,-75.61
14:33:33.890625,-70.56
14:33:33.906250,-62.58
14:33:33.921875,-51.26
14:33:33.937500,-37.08
14:33:33.953125,-21.88
14:33:33.968750,-8.65
14:33:33.984375,-0.40
14:33:34,1.36
14:33:34.015625,-2.51
14:33:34.031250,-9.13
14:33:34.046875,-14.92
14:33:34.062500,-17.16
14:33:34.078125,-14.85
14:33:34.093750,-8.66
14:33:34.109375,-0.10
14:33:34.125000,9.35
14:33:34.140625,18.67
14:33:34.156250,27.69
14:33:34.171875,36.92
14:33:34.187500,47.38
14:33:34.203125,60.04
14:33:34.218750,75.03
14:33:34.234375,90.88
14:33:34.250000,104.49
14:33:34.265625,111.93
14:33:34.281250,110.03
14:33:34.296875,98.01
14:33:34.312500,78.06
14:33:34.328125,54.68
14:33:34.343750,33.16
14:33:34.359375,17.82
14:33:34.375000,11.05
14:33:34.390625,13.04
14:33:34.406250,22.25
14:33:34.421875,36.03
14:33:34.437500,51.24
14:33:34.453125,64.56
14:33:34.468750,73.00
14:33:34.484375,74.32
14:33:34.500000,67.52
14:33:34.515625,53.27
14:33:34.531250,33.90
14:33:34.546875,13.42
14:33:34.562500,-3.15
14:33:34.578125,-10.77
14:33:34.593750,-6.10
14:33:34.609375,10.99
14:33:34.625000,36.75
14:33:34.640625,64.40
14:33:34.656250,86.56
14:33:34.671875,98.10
14:33:34.687500,98.06
14:33:34.703125,89.68
14:33:34.718750,78.65
14:33:34.734375,70.46
14:33:34.750000,68.31
14:33:34.765625,72.56
14:33:34.781250,81.66
14:33:34.796875,93.57
14:33:34.812500,106.80
14:33:34.828125,120.30
14:33:34.843750,132.76
14:33:34.859375,142.01
14:33:34.875000,145.31
14:33:34.890625,140.36
14:33:34.906250,126.54
14:33:34.921875,105.42
14:33:34.937500,80.46
14:33:34.953125,55.73
14:33:34.968750,34.47
14:33:34.984375,18.12
14:33:35,6.25
14:33:35.015625,-2.69
14:33:35.031250,-10.27
14:33:35.046875,-17.02
14:33:35.062500,-22.03
14:33:35.078125,-23.49
14:33:35.093750,-19.93
14:33:35.109375,-11.35
14:33:35.125000,0.34
14:33:35.140625,12.09
14:33:35.156250,21.13
14:33:35.171875,26.35
14:33:35.187500,28.87
14:33:35.203125,31.15
14:33:35.218750,35.31
14:33:35.234375,41.72
14:33:35.250000,48.59
14:33:35.265625,53.19
14:33:35.281250,53.76
14:33:35.296875,50.98
14:33:35.312500,47.88
14:33:35.328125,48.23
14:33:35.343750,54.23
14:33:35.359375,64.86
14:33:35.375000,75.89
14:33:35.390625,81.76
14:33:35.406250,78.11
14:33:35.421875,63.82
14:33:35.437500,41.24
14:33:35.453125,14.77
14:33:35.468750,-11.20
14:33:35.484375,-33.82
14:33:35.500000,-51.61
14:33:35.515625,-63.39
14:33:35.531250,-67.48
14:33:35.546875,-62.18
14:33:35.562500,-47.58
14:33:35.578125,-27.25
14:33:35.593750,-8.34
14:33:35.609375,0.79
14:33:35.625000,-5.52
14:33:35.640625,-27.26
14:33:35.656250,-58.50
14:33:35.671875,-90.24
14:33:35.687500,-114.34
14:33:35.703125,-126.54
14:33:35.718750,-126.93
14:33:35.734375,-118.33
14:33:35.750000,-104.07
14:33:35.765625,-86.67
14:33:35.781250,-67.86
14:33:35.796875,-49.26
14:33:35.812500,-32.56
14:33:35.828125,-18.92
14:33:35.843750,-8.21
14:33:35.859375,1.00
14:33:35.875000,10.16
14:33:35.890625,19.29
14:33:35.906250,26.18
14:33:35.921875,27.15
14:33:35.937500,19.07
14:33:35.953125,1.29
14:33:35.968750,-23.88
14:33:35.984375,-52.40
14:33:36,-80.41
14:33:36.015625,-105.62
14:33:36.031250,-127.59
14:33:36.046875,-146.78
14:33:36.062500,-163.27
14:33:36.078125,-175.79
14:33:36.093750,-181.94
14:33:36.109375,-179.39
14:33:36.125000,-167.25
14:33:36.140625,-147.07
14:33:36.156250,-122.73
14:33:36.171875,-99.40
14:33:36.187500,-81.76
14:33:36.203125,-72.23
14:33:36.218750,-70.04
14:33:36.234375,-71.53
14:33:36.250000,-71.86
14:33:36.265625,-67.04
14:33:36.281250,-55.66
14:33:36.296875,-39.30
14:33:36.312500,-21.45
14:33:36.328125,-5.79
14:33:36.343750,5.35
14:33:36.359375,11.63
14:33:36.375000,14.18
14:33:36.390625,14.56
14:33:36.406250,14.00
14:33:36.421875,12.88
14:33:36.437500,10.97
14:33:36.453125,7.82
14:33:36.468750,3.18
14:33:36.484375,-2.81
14:33:36.500000,-9.69
14:33:36.515625,-16.92
14:33:36.531250,-24.14
14:33:36.546875,-31.50
14:33:36.562500,-39.53
14:33:36.578125,-48.79
14:33:36.593750,-59.30
14:33:36.609375,-70.07
14:33:36.625000,-79.15
14:33:36.640625,-84.31
14:33:36.656250,-83.94
14:33:36.671875,-77.86
14:33:36.687500,-67.40
14:33:36.703125,-54.92
14:33:36.718750,-42.86
14:33:36.734375,-32.87
14:33:36.750000,-25.60
14:33:36.765625,-20.78
14:33:36.781250,-17.71
14:33:36.796875,-15.81
14:33:36.812500,-14.89
14:33:36.828125,-15.16
14:33:36.843750,-16.96
14:33:36.859375,-20.46
14:33:36.875000,-25.49
14:33:36.890625,-31.40
14:33:36.906250,-37.18
14:33:36.921875,-41.75
14:33:36.937500,-44.18
14:33:36.953125,-44.08
14:33:36.968750,-41.56
14:33:36.984375,-37.21
14:33:37,-31.83
14:33:37.015625,-26.21
14:33:37.031250,-20.78
14:33:37.046875,-15.57
14:33:37.062500,-10.25
14:33:37.078125,-4.51
14:33:37.093750,1.74
14:33:37.109375,8.06
14:33:37.125000,13.52
14:33:37.140625,17.10
14:33:37.156250,18.10
14:33:37.171875,16.56
14:33:37.187500,13.28
14:33:37.203125,9.62
14:33:37.218750,6.97
14:33:37.234375,6.22
14:33:37.250000,7.54
14:33:37.265625,10.28
14:33:37.281250,13.27
14:33:37.296875,15.21
14:33:37.312500,15.15
14:33:37.328125,12.81
14:33:37.343750,8.90
14:33:37.359375,4.82
14:33:37.375000,2.21
14:33:37.390625,2.19
14:33:37.406250,4.97
14:33:37.421875,9.79
14:33:37.437500,15.45
14:33:37.453125,20.87
14:33:37.468750,25.60
14:33:37.484375,29.76
14:33:37.500000,33.72
14:33:37.515625,37.74
14:33:37.531250,41.75
14:33:37.546875,45.28
14:33:37.562500,47.69
14:33:37.578125,48.17
14:33:37.593750,45.69
14:33:37.609375,39.19
14:33:37.625000,27.86
14:33:37.640625,11.54
14:33:37.656250,-8.85
14:33:37.671875,-31.33
14:33:37.687500,-53.21
14:33:37.703125,-71.53
14:33:37.718750,-83.64
14:33:37.734375,-87.63
14:33:37.750000,-82.80
14:33:37.765625,-70.05
14:33:37.781250,-51.80
14:33:37.796875,-31.40
14:33:37.812500,-12.22
14:33:37.828125,3.44
14:33:37.843750,14.74
14:33:37.859375,22.06
14:33:37.875000,26.21
14:33:37.890625,27.64
14:33:37.906250,26.32
14:33:37.921875,22.12
14:33:37.937500,15.52
14:33:37.953125,7.81
14:33:37.968750,0.79
14:33:37.984375,-4.06
14:33:38,-6.39
14:33:38.015625,-6.88
14:33:38.031250,-6.76
14:33:38.046875,-6.86
14:33:38.062500,-7.18
14:33:38.078125,-6.92
14:33:38.093750,-5.20
14:33:38.109375,-1.59
14:33:38.125000,3.53
14:33:38.140625,9.23
14:33:38.156250,14.46
14:33:38.171875,18.55
14:33:38.187500,21.24
14:33:38.203125,22.56
14:33:38.218750,22.62
14:33:38.234375,21.34
14:33:38.250000,18.61
14:33:38.265625,14.42
14:33:38.281250,9.06
14:33:38.296875,2.97
14:33:38.312500,-3.24
14:33:38.328125,-9.08
14:33:38.343750,-14.18
14:33:38.359375,-18.27
14:33:38.375000,-21.21
14:33:38.390625,-23.03
14:33:38.406250,-24.06
14:33:38.421875,-24.98
14:33:38.437500,-26.64
14:33:38.453125,-29.64
14:33:38.468750,-34.03
14:33:38.484375,-39.07
14:33:38.500000,-43.53
14:33:38.515625,-46.20
14:33:38.531250,-46.51
14:33:38.546875,-44.75
14:33:38.562500,-41.81
14:33:38.578125,-38.68
14:33:38.593750,-35.84
14:33:38.609375,-33.09
14:33:38.625000,-29.87
14:33:38.640625,-25.72
14:33:38.656250,-20.71
14:33:38.671875,-15.45
14:33:38.687500,-10.72
14:33:38.703125,-7.03
14:33:38.718750,-4.44
14:33:38.734375,-2.59
14:33:38.750000,-1.05
14:33:38.765625,0.31
14:33:38.781250,1.31
14:33:38.796875,1.58
14:33:38.812500,0.87
14:33:38.828125,-0.65
14:33:38.843750,-2.42
14:33:38.859375,-3.80
14:33:38.875000,-4.32
14:33:38.890625,-3.96
14:33:38.906250,-3.00
14:33:38.921875,-1.83
14:33:38.937500,-0.53
14:33:38.953125,1.16
14:33:38.968750,3.65
14:33:38.984375,7.09
14:33:39,11.22
14:33:39.015625,15.33
14:33:39.031250,18.60
14:33:39.046875,20.47
14:33:39.062500,20.79
14:33:39.078125,19.75
14:33:39.093750,17.69
14:33:39.109375,14.78
14:33:39.125000,11.05
14:33:39.140625,6.54
14:33:39.156250,1.41
14:33:39.171875,-3.90
14:33:39.187500,-8.75
14:33:39.203125,-12.42
14:33:39.218750,-14.40
14:33:39.234375,-14.41
14:33:39.250000,-12.65
14:33:39.265625,-9.70
14:33:39.281250,-6.33
14:33:39.296875,-3.22
14:33:39.312500,-0.65
14:33:39.328125,1.56
14:33:39.343750,3.87
14:33:39.359375,6.67
14:33:39.375000,9.99
14:33:39.390625,13.43
14:33:39.406250,16.38
14:33:39.421875,18.39
14:33:39.437500,19.40
14:33:39.453125,19.80
14:33:39.468750,20.27
14:33:39.484375,21.35
14:33:39.500000,23.24
14:33:39.515625,25.60
14:33:39.531250,27.72
14:33:39.546875,28.67
14:33:39.562500,27.81
14:33:39.578125,24.97
14:33:39.593750,20.55
14:33:39.609375,15.44
14:33:39.625000,10.52
14:33:39.640625,6.43
14:33:39.656250,3.31
14:33:39.671875,1.00
14:33:39.687500,-0.77
14:33:39.703125,-2.16
14:33:39.718750,-3.15
14:33:39.734375,-3.73
14:33:39.750000,-3.98
14:33:39.765625,-4.12
14:33:39.781250,-4.41
14:33:39.796875,-4.97
14:33:39.812500,-5.71
14:33:39.828125,-6.49
14:33:39.843750,-7.11
14:33:39.859375,-7.53
14:33:39.875000,-7.84
14:33:39.890625,-8.14
14:33:39.906250,-8.54
14:33:39.921875,-9.08
14:33:39.937500,-9.75
14:33:39.953125,-10.43
14:33:39.968750,-10.89
14:33:39.984375,-10.76
14:33:40,-9.66
14:33:40.015625,-7.46
14:33:40.031250,-4.44
14:33:40.046875,-1.15
14:33:40.062500,1.77
14:33:40.078125,3.95
14:33:40.093750,5.44
14:33:40.109375,6.61
14:33:40.125000,7.82
14:33:40.140625,9.17
14:33:40.156250,10.49
14:33:40.171875,11.50
14:33:40.187500,12.13
14:33:40.203125,12.57
14:33:40.218750,13.12
14:33:40.234375,13.96
14:33:40.250000,14.94
14:33:40.265625,15.64
14:33:40.281250,15.63
14:33:40.296875,14.78
14:33:40.312500,13.33
14:33:40.328125,11.81
14:33:40.343750,10.74
14:33:40.359375,10.39
14:33:40.375000,10.75
14:33:40.390625,11.50
14:33:40.406250,12.24
14:33:40.421875,12.55
14:33:40.437500,12.13
14:33:40.453125,10.85
14:33:40.468750,8.83
14:33:40.484375,6.39
14:33:40.500000,4.01
14:33:40.515625,2.13
14:33:40.531250,0.96
14:33:40.546875,0.41
14:33:40.562500,0.11
14:33:40.578125,-0.42
14:33:40.593750,-1.58
14:33:40.609375,-3.56
14:33:40.625000,-6.31
14:33:40.640625,-9.57
14:33:40.656250,-13.02
14:33:40.671875,-16.37
14:33:40.687500,-19.39
14:33:40.703125,-21.87
14:33:40.718750,-23.63
14:33:40.734375,-24.45
14:33:40.750000,-24.18
14:33:40.765625,-22.76
14:33:40.781250,-20.27
14:33:40.796875,-16.94
14:33:40.812500,-13.08
14:33:40.828125,-9.02
14:33:40.843750,-4.98
14:33:40.859375,-1.13
14:33:40.875000,2.45
14:33:40.890625,5.64
14:33:40.906250,8.28
14:33:40.921875,10.18
14:33:40.937500,11.30
14:33:40.953125,11.78
14:33:40.968750,12.02
14:33:40.984375,12.47
14:33:41,13.39
14:33:41.015625,14.86
14:33:41.031250,16.67
14:33:41.046875,18.48
14:33:41.062500,20.05
14:33:41.078125,21.26
14:33:41.093750,22.07
14:33:41.109375,22.37
14:33:41.125000,21.90
14:33:41.140625,20.35
14:33:41.156250,17.63
14:33:41.171875,14.04
14:33:41.187500,10.26
14:33:41.203125,7.16
14:33:41.218750,5.32
14:33:41.234375,4.84
14:33:41.250000,5.16
14:33:41.265625,5.34
14:33:41.281250,4.43
14:33:41.296875,2.00
14:33:41.312500,-1.64
14:33:41.328125,-5.50
14:33:41.343750,-8.35
14:33:41.359375,-9.37
14:33:41.375000,-8.65
14:33:41.390625,-7.19
14:33:41.406250,-6.49
14:33:41.421875,-7.66
14:33:41.437500,-10.92
14:33:41.453125,-15.51
14:33:41.468750,-20.17
14:33:41.484375,-23.81
14:33:41.500000,-25.93
14:33:41.515625,-26.66
14:33:41.531250,-26.26
14:33:41.546875,-24.83
14:33:41.562500,-22.18
14:33:41.578125,-18.11
14:33:41.593750,-12.70
14:33:41.609375,-6.52
14:33:41.625000,-0.35
14:33:41.640625,5.17
14:33:41.656250,9.72
14:33:41.671875,13.34
14:33:41.687500,16.21
14:33:41.703125,18.39
14:33:41.718750,19.79
14:33:41.734375,20.33
14:33:41.750000,19.98
14:33:41.765625,19.00
14:33:41.781250,17.86
14:33:41.796875,17.06
14:33:41.812500,17.01
14:33:41.828125,17.80
14:33:41.843750,19.25
14:33:41.859375,20.94
14:33:41.875000,22.44
14:33:41.890625,23.50
14:33:41.906250,24.14
14:33:41.921875,24.61
14:33:41.937500,25.27
14:33:41.953125,26.32
14:33:41.968750,27.71
14:33:41.984375,29.07
14:33:42,29.84
14:33:42.015625,29.47
14:33:42.031250,27.56
14:33:42.046875,23.98
14:33:42.062500,18.90
14:33:42.078125,12.77
14:33:42.093750,6.30
14:33:42.109375,0.26
14:33:42.125000,-4.72
14:33:42.140625,-8.39
14:33:42.156250,-10.94
14:33:42.171875,-12.93
14:33:42.187500,-15.01
14:33:42.203125,-17.64
14:33:42.218750,-20.95
14:33:42.234375,-24.68
14:33:42.250000,-28.30
14:33:42.265625,-31.27
14:33:42.281250,-33.11
14:33:42.296875,-33.56
14:33:42.312500,-32.57
14:33:42.328125,-30.30
14:33:42.343750,-27.11
14:33:42.359375,-23.56
14:33:42.375000,-20.15
14:33:42.390625,-17.22
14:33:42.406250,-14.76
14:33:42.421875,-12.35
14:33:42.437500,-9.49
14:33:42.453125,-5.93
14:33:42.468750,-1.85
14:33:42.484375,2.17
14:33:42.500000,5.48
14:33:42.515625,7.69
14:33:42.531250,8.87
14:33:42.546875,9.42
14:33:42.562500,9.82
14:33:42.578125,10.38
14:33:42.593750,11.10
14:33:42.609375,11.89
14:33:42.625000,12.75
14:33:42.640625,13.93
14:33:42.656250,15.75
14:33:42.671875,18.32
14:33:42.687500,21.29
14:33:42.703125,23.94
14:33:42.718750,25.44
14:33:42.734375,25.29
14:33:42.750000,23.62
14:33:42.765625,21.10
14:33:42.781250,18.55
14:33:42.796875,16.59
14:33:42.812500,15.36
14:33:42.828125,14.68
14:33:42.843750,14.17
14:33:42.859375,13.56
14:33:42.875000,12.74
14:33:42.890625,11.67
14:33:42.906250,10.17
14:33:42.921875,7.82
14:33:42.937500,4.15
14:33:42.953125,-1.06
14:33:42.968750,-7.48
14:33:42.984375,-14.18
14:33:43,-19.85
14:33:43.015625,-23.42
14:33:43.031250,-24.50
14:33:43.046875,-23.69
14:33:43.062500,-22.25
14:33:43.078125,-21.52
14:33:43.093750,-22.15
14:33:43.109375,-23.70
14:33:43.125000,-24.81
14:33:43.140625,-24.02
14:33:43.156250,-20.50
14:33:43.171875,-14.66
14:33:43.187500,-7.85
14:33:43.203125,-1.63
14:33:43.218750,2.99
14:33:43.234375,5.98
14:33:43.250000,8.13
14:33:43.265625,10.46
14:33:43.281250,13.62
14:33:43.296875,17.59
14:33:43.312500,21.86
14:33:43.328125,25.78
14:33:43.343750,28.87
14:33:43.359375,30.89
14:33:43.375000,31.83
14:33:43.390625,31.81
14:33:43.406250,31.17
14:33:43.421875,30.40
14:33:43.437500,30.18
14:33:43.453125,31.05
14:33:43.468750,33.15
14:33:43.484375,35.99
14:33:43.500000,38.57
14:33:43.515625,39.87
14:33:43.531250,39.28
14:33:43.546875,37.05
14:33:43.562500,34.09
14:33:43.578125,31.50
14:33:43.593750,29.91
14:33:43.609375,29.22
14:33:43.625000,28.85
14:33:43.640625,28.22
14:33:43.656250,27.23
14:33:43.671875,26.11
14:33:43.687500,25.14
14:33:43.703125,24.20
14:33:43.718750,22.84
14:33:43.734375,20.61
14:33:43.750000,17.37
14:33:43.765625,13.35
14:33:43.781250,8.72
14:33:43.796875,3.31
14:33:43.812500,-3.32
14:33:43.828125,-11.42
14:33:43.843750,-20.44
14:33:43.859375,-29.10
14:33:43.875000,-35.88
14:33:43.890625,-39.85
14:33:43.906250,-40.95
14:33:43.921875,-39.70
14:33:43.937500,-36.57
14:33:43.953125,-31.55
14:33:43.968750,-24.42
14:33:43.984375,-15.51
14:33:44,-6.22
14:33:44.015625,1.26
14:33:44.031250,5.01
14:33:44.046875,4.51
14:33:44.062500,1.00
14:33:44.078125,-3.20
14:33:44.093750,-5.84
14:33:44.109375,-5.79
14:33:44.125000,-3.17
14:33:44.140625,1.19
14:33:44.156250,6.48
14:33:44.171875,12.16
14:33:44.187500,17.82
14:33:44.203125,22.84
14:33:44.218750,26.24
14:33:44.234375,27.07
14:33:44.250000,24.95
14:33:44.265625,20.38
14:33:44.281250,14.52
14:33:44.296875,8.61
14:33:44.312500,3.35
14:33:44.328125,-1.22
14:33:44.343750,-5.42
14:33:44.359375,-9.41
14:33:44.375000,-12.87
14:33:44.390625,-15.03
14:33:44.406250,-15.10
14:33:44.421875,-12.68
14:33:44.437500,-7.92
14:33:44.453125,-1.51
14:33:44.468750,5.62
14:33:44.484375,12.33
14:33:44.500000,17.42
14:33:44.515625,19.68
14:33:44.531250,18.16
14:33:44.546875,12.45
14:33:44.562500,3.11
14:33:44.578125,-8.41
14:33:44.593750,-19.97
14:33:44.609375,-29.40
14:33:44.625000,-35.07
14:33:44.640625,-36.31
14:33:44.656250,-33.49
14:33:44.671875,-27.81
14:33:44.687500,-20.75
14:33:44.703125,-13.56
14:33:44.718750,-6.94
14:33:44.734375,-1.14
14:33:44.750000,3.79
14:33:44.765625,7.63
14:33:44.781250,9.97
14:33:44.796875,10.39
14:33:44.812500,8.92
14:33:44.828125,6.25
14:33:44.843750,3.55
14:33:44.859375,1.99
14:33:44.875000,2.19
14:33:44.890625,4.08
14:33:44.906250,7.20
14:33:44.921875,11.11
14:33:44.937500,15.65
14:33:44.953125,20.77
14:33:44.968750,26.16
14:33:44.984375,30.91
14:33:45,33.74
14:33:45.015625,33.58
14:33:45.031250,30.18
14:33:45.046875,24.29
14:33:45.062500,17.38
14:33:45.078125,10.96
14:33:45.093750,5.95
14:33:45.109375,2.56
14:33:45.125000,0.39
14:33:45.140625,-1.16
14:33:45.156250,-2.55
14:33:45.171875,-4.09
14:33:45.187500,-5.89
14:33:45.203125,-8.01
14:33:45.218750,-10.44
14:33:45.234375,-13.21
14:33:45.250000,-16.36
14:33:45.265625,-20.04
14:33:45.281250,-24.39
14:33:45.296875,-29.45
14:33:45.312500,-35.06
14:33:45.328125,-40.64
14:33:45.343750,-45.42
14:33:45.359375,-48.64
14:33:45.375000,-49.74
14:33:45.390625,-48.63
14:33:45.406250,-45.57
14:33:45.421875,-41.21
14:33:45.437500,-36.30
14:33:45.453125,-31.60
14:33:45.468750,-27.69
14:33:45.484375,-24.93
14:33:45.500000,-23.46
14:33:45.515625,-23.32
14:33:45.531250,-24.50
14:33:45.546875,-26.96
14:33:45.562500,-30.52
14:33:45.578125,-34.59
14:33:45.593750,-38.37
14:33:45.609375,-40.97
14:33:45.625000,-41.99
14:33:45.640625,-41.71
14:33:45.656250,-41.05
14:33:45.671875,-41.11
14:33:45.687500,-42.46
14:33:45.703125,-44.58
14:33:45.718750,-46.00
14:33:45.734375,-44.94
14:33:45.750000,-40.15
14:33:45.765625,-31.51
14:33:45.781250,-19.88
14:33:45.796875,-6.53
14:33:45.812500,7.64
14:33:45.828125,22.44
14:33:45.843750,37.96
14:33:45.859375,53.93
14:33:45.875000,69.16
14:33:45.890625,81.55
14:33:45.906250,89.06
14:33:45.921875,90.77
14:33:45.937500,87.60
14:33:45.953125,82.12
14:33:45.968750,77.48
14:33:45.984375,75.91
14:33:46,77.77
14:33:46.015625,81.73
14:33:46.031250,85.62
14:33:46.046875,87.67
14:33:46.062500,87.31
14:33:46.078125,85.06
14:33:46.093750,81.89
14:33:46.109375,78.46
14:33:46.125000,74.67
14:33:46.140625,69.98
14:33:46.156250,63.86
14:33:46.171875,56.38
14:33:46.187500,48.20
14:33:46.203125,40.31
14:33:46.218750,33.55
14:33:46.234375,28.25
14:33:46.250000,24.30
14:33:46.265625,21.41
14:33:46.281250,19.41
14:33:46.296875,18.41
14:33:46.312500,18.67
14:33:46.328125,20.38
14:33:46.343750,23.34
14:33:46.359375,26.91
14:33:46.375000,30.11
14:33:46.390625,32.02
14:33:46.406250,32.11
14:33:46.421875,30.55
14:33:46.437500,28.15
14:33:46.453125,26.12
14:33:46.468750,25.66
14:33:46.484375,27.53
14:33:46.500000,31.72
14:33:46.515625,37.53
14:33:46.531250,43.74
14:33:46.546875,48.97
14:33:46.562500,52.12
14:33:46.578125,52.56
14:33:46.593750,50.19
14:33:46.609375,45.36
14:33:46.625000,38.68
14:33:46.640625,30.84
14:33:46.656250,22.38
14:33:46.671875,13.54
14:33:46.687500,4.25
14:33:46.703125,-5.72
14:33:46.718750,-16.49
14:33:46.734375,-27.85
14:33:46.750000,-39.15
14:33:46.765625,-49.47
14:33:46.781250,-57.87
14:33:46.796875,-63.83
14:33:46.812500,-67.30
14:33:46.828125,-68.72
14:33:46.843750,-68.86
14:33:46.859375,-68.35
14:33:46.875000,-67.64
14:33:46.890625,-66.85
14:33:46.906250,-65.98
14:33:46.921875,-64.98
14:33:46.937500,-63.84
14:33:46.953125,-62.50
14:33:46.968750,-60.74
14:33:46.984375,-58.26
14:33:47,-54.71
14:33:47.015625,-49.99
14:33:47.031250,-44.41
14:33:47.046875,-38.77
14:33:47.062500,-34.08
14:33:47.078125,-31.33
14:33:47.093750,-31.01
14:33:47.109375,-32.91
14:33:47.125000,-36.19
14:33:47.140625,-39.60
14:33:47.156250,-41.88
14:33:47.171875,-42.10
14:33:47.187500,-39.91
14:33:47.203125,-35.60
14:33:47.218750,-30.04
14:33:47.234375,-24.44
14:33:47.250000,-20.01
14:33:47.265625,-17.62
14:33:47.281250,-17.44
14:33:47.296875,-19.00
14:33:47.312500,-21.33
14:33:47.328125,-23.43
14:33:47.343750,-24.67
14:33:47.359375,-24.91
14:33:47.375000,-24.40
14:33:47.390625,-23.42
14:33:47.406250,-22.17
14:33:47.421875,-20.48
14:33:47.437500,-18.15
14:33:47.453125,-15.12
14:33:47.468750,-11.57
14:33:47.484375,-7.96
14:33:47.500000,-4.76
14:33:47.515625,-2.24
14:33:47.531250,-0.27
14:33:47.546875,1.60
14:33:47.562500,4.10
14:33:47.578125,7.90
14:33:47.593750,13.49
14:33:47.609375,20.95
14:33:47.625000,29.87
14:33:47.640625,39.40
14:33:47.656250,48.36
14:33:47.671875,55.56
14:33:47.687500,60.16
14:33:47.703125,61.83
14:33:47.718750,60.89
14:33:47.734375,58.18
14:33:47.750000,54.71
14:33:47.765625,51.38
14:33:47.781250,48.59
14:33:47.796875,46.15
14:33:47.812500,43.31
14:33:47.828125,39.10
14:33:47.843750,32.72
14:33:47.859375,23.99
14:33:47.875000,13.36
14:33:47.890625,1.80
14:33:47.906250,-9.69
14:33:47.921875,-20.36
14:33:47.937500,-29.89
14:33:47.953125,-38.25
14:33:47.968750,-45.45
14:33:47.984375,-51.36
14:33:48,-55.76
14:33:48.015625,-58.58
14:33:48.031250,-60.10
14:33:48.046875,-60.83
14:33:48.062500,-61.18
14:33:48.078125,-61.11
14:33:48.093750,-60.01
14:33:48.109375,-57.00
14:33:48.125000,-51.46
14:33:48.140625,-43.48
14:33:48.156250,-33.92
14:33:48.171875,-24.10
14:33:48.187500,-15.27
14:33:48.203125,-8.28
14:33:48.218750,-3.46
14:33:48.234375,-0.83
14:33:48.250000,-0.11
14:33:48.265625,-0.85
14:33:48.281250,-2.48
14:33:48.296875,-4.30
14:33:48.312500,-5.54
14:33:48.328125,-5.54
14:33:48.343750,-3.74
14:33:48.359375,0.29
14:33:48.375000,6.77
14:33:48.390625,15.69
14:33:48.406250,26.48
14:33:48.421875,37.90
14:33:48.437500,48.19
14:33:48.453125,55.67
14:33:48.468750,59.45
14:33:48.484375,59.86
14:33:48.500000,58.43
14:33:48.515625,57.10
14:33:48.531250,57.40
14:33:48.546875,59.86
14:33:48.562500,64.02
14:33:48.578125,69.04
14:33:48.593750,74.22
14:33:48.609375,79.31
14:33:48.625000,84.20
14:33:48.640625,88.51
14:33:48.656250,91.37
14:33:48.671875,91.66
14:33:48.687500,88.60
14:33:48.703125,82.25
14:33:48.718750,73.57
14:33:48.734375,63.89
14:33:48.750000,54.33
14:33:48.765625,45.35
14:33:48.781250,36.72
14:33:48.796875,28.06
14:33:48.812500,19.14
14:33:48.828125,10.16
14:33:48.843750,1.50
14:33:48.859375,-6.60
14:33:48.875000,-14.26
14:33:48.890625,-21.82
14:33:48.906250,-29.70
14:33:48.921875,-38.07
14:33:48.937500,-46.90
14:33:48.953125,-56.04
14:33:48.968750,-65.39
14:33:48.984375,-74.94
14:33:49,-84.68
14:33:49.015625,-94.40
14:33:49.031250,-103.42
14:33:49.046875,-110.66
14:33:49.062500,-114.72
14:33:49.078125,-114.34
14:33:49.093750,-108.86
14:33:49.109375,-98.51
14:33:49.125000,-84.45
14:33:49.140625,-68.35
14:33:49.156250,-52.05
14:33:49.171875,-36.87
14:33:49.187500,-23.55
14:33:49.203125,-12.20
14:33:49.218750,-2.47
14:33:49.234375,6.10
14:33:49.250000,13.93
14:33:49.265625,21.25
14:33:49.281250,28.15
14:33:49.296875,34.60
14:33:49.312500,40.51
14:33:49.328125,45.88
14:33:49.343750,50.84
14:33:49.359375,55.64
14:33:49.375000,60.51
14:33:49.390625,65.47
14:33:49.406250,70.24
14:33:49.421875,74.25
14:33:49.437500,76.84
14:33:49.453125,77.43
14:33:49.468750,75.57
14:33:49.484375,70.99
14:33:49.500000,63.59
14:33:49.515625,53.56
14:33:49.531250,41.42
14:33:49.546875,28.25
14:33:49.562500,15.50
14:33:49.578125,4.68
14:33:49.593750,-3.22
14:33:49.609375,-8.00
14:33:49.625000,-10.49
14:33:49.640625,-12.18
14:33:49.656250,-14.76
14:33:49.671875,-19.62
14:33:49.687500,-27.50
14:33:49.703125,-38.49
14:33:49.718750,-52.20
14:33:49.734375,-67.84
14:33:49.750000,-84.39
14:33:49.765625,-100.53
14:33:49.781250,-114.82
14:33:49.796875,-125.99
14:33:49.812500,-133.35
14:33:49.828125,-136.90
14:33:49.843750,-137.36
14:33:49.859375,-135.69
14:33:49.875000,-132.68
14:33:49.890625,-128.56
14:33:49.906250,-123.19
14:33:49.921875,-116.25
14:33:49.937500,-107.62
14:33:49.953125,-97.65
14:33:49.968750,-87.01
14:33:49.984375,-76.64
14:33:50,-67.41
14:33:50.015625,-59.75
14:33:50.031250,-53.70
14:33:50.046875,-48.91
14:33:50.062500,-44.83
14:33:50.078125,-40.86
14:33:50.093750,-36.41
14:33:50.109375,-30.87
14:33:50.125000,-23.64
14:33:50.140625,-14.33
14:33:50.156250,-3.15
14:33:50.171875,8.70
14:33:50.187500,19.35
14:33:50.203125,26.79
14:33:50.218750,29.94
14:33:50.234375,29.32
14:33:50.250000,27.08
14:33:50.265625,26.08
14:33:50.281250,28.81
14:33:50.296875,36.33
14:33:50.312500,48.08
14:33:50.328125,62.34
14:33:50.343750,77.04
14:33:50.359375,90.31
14:33:50.375000,100.85
14:33:50.390625,107.73
14:33:50.406250,110.33
14:33:50.421875,108.39
14:33:50.437500,102.27
14:33:50.453125,93.00
14:33:50.468750,82.34
14:33:50.484375,72.15
14:33:50.500000,63.84
14:33:50.515625,57.82
14:33:50.531250,53.36
14:33:50.546875,49.15
14:33:50.562500,44.07
14:33:50.578125,38.12
14:33:50.593750,32.69
14:33:50.609375,30.31
14:33:50.625000,33.47
14:33:50.640625,43.48
14:33:50.656250,59.59
14:33:50.671875,79.09
14:33:50.687500,98.27
14:33:50.703125,113.72
14:33:50.718750,123.38
14:33:50.734375,126.85
14:33:50.750000,124.95
14:33:50.765625,118.83
14:33:50.781250,109.32
14:33:50.796875,96.80
14:33:50.812500,81.60
14:33:50.828125,64.57
14:33:50.843750,47.19
14:33:50.859375,31.16
14:33:50.875000,17.76
14:33:50.890625,7.43
14:33:50.906250,-0.26
14:33:50.921875,-6.03
14:33:50.937500,-10.45
14:33:50.953125,-13.95
14:33:50.968750,-16.99
14:33:50.984375,-20.55
14:33:51,-25.96
14:33:51.015625,-34.43
14:33:51.031250,-46.30
14:33:51.046875,-60.60
14:33:51.062500,-75.10
14:33:51.078125,-87.14
14:33:51.093750,-94.55
14:33:51.109375,-96.40
14:33:51.125000,-93.26
14:33:51.140625,-86.73
14:33:51.156250,-78.96
14:33:51.171875,-71.80
14:33:51.187500,-66.45
14:33:51.203125,-63.25
14:33:51.218750,-61.84
14:33:51.234375,-61.39
14:33:51.250000,-60.97
14:33:51.265625,-59.76
14:33:51.281250,-57.24
14:33:51.296875,-53.21
14:33:51.312500,-47.82
14:33:51.328125,-41.54
14:33:51.343750,-35.04
14:33:51.359375,-28.91
14:33:51.375000,-23.44
14:33:51.390625,-18.45
14:33:51.406250,-13.42
14:33:51.421875,-7.76
14:33:51.437500,-1.25
14:33:51.453125,5.82
14:33:51.468750,12.80
14:33:51.484375,18.94
14:33:51.500000,23.92
14:33:51.515625,27.89
14:33:51.531250,31.41
14:33:51.546875,35.15
14:33:51.562500,39.53
14:33:51.578125,44.57
14:33:51.593750,49.84
14:33:51.609375,54.77
14:33:51.625000,58.80
14:33:51.640625,61.79
14:33:51.656250,63.99
14:33:51.671875,65.87
14:33:51.687500,67.93
14:33:51.703125,70.40
14:33:51.718750,73.03
14:33:51.734375,75.26
14:33:51.750000,76.40
14:33:51.765625,75.96
14:33:51.781250,73.77
14:33:51.796875,70.00
14:33:51.812500,64.99
14:33:51.828125,59.06
14:33:51.843750,52.40
14:33:51.859375,45.07
14:33:51.875000,37.23
14:33:51.890625,29.19
14:33:51.906250,21.28
14:33:51.921875,13.74
14:33:51.937500,6.46
14:33:51.953125,-1.01
14:33:51.968750,-9.19
14:33:51.984375,-18.34
14:33:52,-28.11
14:33:52.015625,-37.52
14:33:52.031250,-45.24
14:33:52.046875,-50.11
14:33:52.062500,-51.56
14:33:52.078125,-49.86
14:33:52.093750,-45.99
14:33:52.109375,-41.19
14:33:52.125000,-36.52
14:33:52.140625,-32.60
14:33:52.156250,-29.52
14:33:52.171875,-27.05
14:33:52.187500,-24.82
14:33:52.203125,-22.52
14:33:52.218750,-19.97
14:33:52.234375,-17.17
14:33:52.250000,-14.30
14:33:52.265625,-11.65
14:33:52.281250,-9.56
14:33:52.296875,-8.28
14:33:52.312500,-7.87
14:33:52.328125,-8.21
14:33:52.343750,-8.92
14:33:52.359375,-9.60
14:33:52.375000,-9.84
14:33:52.390625,-9.41
14:33:52.406250,-8.30
14:33:52.421875,-6.65
14:33:52.437500,-4.73
14:33:52.453125,-2.81
14:33:52.468750,-1.20
14:33:52.484375,-0.19
14:33:52.500000,-0.06
14:33:52.515625,-0.89
14:33:52.531250,-2.62
14:33:52.546875,-4.88
14:33:52.562500,-7.13
14:33:52.578125,-8.79
14:33:52.593750,-9.44
14:33:52.609375,-9.07
14:33:52.625000,-8.10
14:33:52.640625,-7.37
14:33:52.656250,-7.72
14:33:52.671875,-9.62
14:33:52.687500,-12.91
14:33:52.703125,-16.84
14:33:52.718750,-20.34
14:33:52.734375,-22.53
14:33:52.750000,-22.97
14:33:52.765625,-21.91
14:33:52.781250,-19.99
14:33:52.796875,-17.98
14:33:52.812500,-16.54
14:33:52.828125,-16.13
14:33:52.843750,-16.94
14:33:52.859375,-19.00
14:33:52.875000,-22.04
14:33:52.890625,-25.43
14:33:52.906250,-28.25
14:33:52.921875,-29.54
14:33:52.937500,-28.82
14:33:52.953125,-26.41
14:33:52.968750,-23.58
14:33:52.984375,-21.93
14:33:53,-22.66
14:33:53.015625,-25.92
14:33:53.031250,-30.63
14:33:53.046875,-35.17
14:33:53.062500,-38.12
14:33:53.078125,-38.94
14:33:53.093750,-38.17
14:33:53.109375,-36.96
14:33:53.125000,-36.35
14:33:53.140625,-36.74
14:33:53.156250,-37.82
14:33:53.171875,-38.75
14:33:53.187500,-38.72
14:33:53.203125,-37.25
14:33:53.218750,-34.24
14:33:53.234375,-30.00
14:33:53.250000,-25.01
14:33:53.265625,-19.88
14:33:53.281250,-15.20
14:33:53.296875,-11.42
14:33:53.312500,-8.76
14:33:53.328125,-7.24
14:33:53.343750,-6.86
14:33:53.359375,-7.60
14:33:53.375000,-9.58
14:33:53.390625,-12.70
14:33:53.406250,-16.56
14:33:53.421875,-20.27
14:33:53.437500,-22.76
14:33:53.453125,-23.13
14:33:53.468750,-21.16
14:33:53.484375,-17.47
14:33:53.500000,-13.25
14:33:53.515625,-9.86
14:33:53.531250,-8.11
14:33:53.546875,-7.93
14:33:53.562500,-8.55
14:33:53.578125,-8.82
14:33:53.593750,-7.85
14:33:53.609375,-5.29
14:33:53.625000,-1.46
14:33:53.640625,3.05
14:33:53.656250,7.55
14:33:53.671875,11.63
14:33:53.687500,15.05
14:33:53.703125,17.64
14:33:53.718750,19.33
14:33:53.734375,20.14
14:33:53.750000,20.28
14:33:53.765625,20.17
14:33:53.781250,20.32
14:33:53.796875,20.98
14:33:53.812500,21.99
14:33:53.828125,22.68
14:33:53.843750,22.07
14:33:53.859375,19.30
14:33:53.875000,13.93
14:33:53.890625,6.20
14:33:53.906250,-3.09
14:33:53.921875,-12.82
14:33:53.937500,-21.82
14:33:53.953125,-29.04
14:33:53.968750,-33.74
14:33:53.984375,-35.64
14:33:54,-34.94
14:33:54.015625,-32.32
14:33:54.031250,-28.73
14:33:54.046875,-25.07
14:33:54.062500,-22.09
14:33:54.078125,-20.20
14:33:54.093750,-19.49
14:33:54.109375,-19.92
14:33:54.125000,-21.33
14:33:54.140625,-23.46
14:33:54.156250,-26.03
14:33:54.171875,-28.65
14:33:54.187500,-30.87
14:33:54.203125,-32.31
14:33:54.218750,-32.76
14:33:54.234375,-32.16
14:33:54.250000,-30.53
14:33:54.265625,-27.93
14:33:54.281250,-24.46
14:33:54.296875,-20.42
14:33:54.312500,-16.28
14:33:54.328125,-12.63
14:33:54.343750,-9.84
14:33:54.359375,-7.72
14:33:54.375000,-5.45
14:33:54.390625,-1.90
14:33:54.406250,3.92
14:33:54.421875,12.11
14:33:54.437500,21.60
14:33:54.453125,30.56
14:33:54.468750,36.92
14:33:54.484375,39.54
14:33:54.500000,38.60
14:33:54.515625,35.64
14:33:54.531250,33.11
14:33:54.546875,33.44
14:33:54.562500,38.24
14:33:54.578125,47.56
14:33:54.593750,59.65
14:33:54.609375,71.26
14:33:54.625000,78.73
14:33:54.640625,79.32
14:33:54.656250,72.37
14:33:54.671875,59.91
14:33:54.687500,46.06
14:33:54.703125,35.67
14:33:54.718750,32.50
14:33:54.734375,37.80
14:33:54.750000,50.01
14:33:54.765625,65.42
14:33:54.781250,79.66
14:33:54.796875,89.12
14:33:54.812500,91.91
14:33:54.828125,88.06
14:33:54.843750,79.16
14:33:54.859375,67.87
14:33:54.875000,57.15
14:33:54.890625,49.61
14:33:54.906250,46.89
14:33:54.921875,49.35
14:33:54.937500,56.00
14:33:54.953125,64.93
14:33:54.968750,73.75
14:33:54.984375,80.55
14:33:55,84.31
14:33:55.015625,85.05
14:33:55.031250,83.45
14:33:55.046875,80.27
14:33:55.062500,75.82
14:33:55.078125,69.96
14:33:55.093750,62.32
14:33:55.109375,52.71
14:33:55.125000,41.43
14:33:55.140625,29.15
14:33:55.156250,16.65
14:33:55.171875,4.39
14:33:55.187500,-7.47
14:33:55.203125,-19.08
14:33:55.218750,-30.61
14:33:55.234375,-42.10
14:33:55.250000,-53.29
14:33:55.265625,-63.94
14:33:55.281250,-73.89
14:33:55.296875,-83.31
14:33:55.312500,-92.78
14:33:55.328125,-102.94
14:33:55.343750,-114.22
14:33:55.359375,-126.37
14:33:55.375000,-138.39
14:33:55.390625,-148.80
14:33:55.406250,-156.32
14:33:55.421875,-160.39
14:33:55.437500,-161.42
14:33:55.453125,-160.40
14:33:55.468750,-158.13
14:33:55.484375,-154.67
14:33:55.500000,-149.24
14:33:55.515625,-140.63
14:33:55.531250,-128.00
14:33:55.546875,-111.29
14:33:55.562500,-91.32
14:33:55.578125,-69.15
14:33:55.593750,-45.69
14:33:55.609375,-21.33
14:33:55.625000,3.74
14:33:55.640625,29.02
14:33:55.656250,53.49
14:33:55.671875,75.83
14:33:55.687500,95.09
14:33:55.703125,110.99
14:33:55.718750,123.85
14:33:55.734375,133.88
14:33:55.750000,140.65
14:33:55.765625,143.15
14:33:55.781250,140.53
14:33:55.796875,133.38
14:33:55.812500,124.38
14:33:55.828125,117.88
14:33:55.843750,118.22
14:33:55.859375,127.64
14:33:55.875000,145.04
14:33:55.890625,166.25
14:33:55.906250,185.73
14:33:55.921875,198.72
14:33:55.937500,202.63
14:33:55.953125,197.17
14:33:55.968750,183.44
14:33:55.984375,162.62
14:33:56,135.44
14:33:56.015625,102.44
14:33:56.031250,64.80
14:33:56.046875,24.98
14:33:56.062500,-13.59
14:33:56.078125,-47.31
14:33:56.093750,-73.90
14:33:56.109375,-93.25
14:33:56.125000,-107.20
14:33:56.140625,-118.61
14:33:56.156250,-129.90
14:33:56.171875,-142.03
14:33:56.187500,-154.23
14:33:56.203125,-164.68
14:33:56.218750,-171.60
14:33:56.234375,-174.22
14:33:56.250000,-173.22
14:33:56.265625,-170.22
14:33:56.281250,-167.01
14:33:56.296875,-164.62
14:33:56.312500,-162.98
14:33:56.328125,-160.93
14:33:56.343750,-157.00
14:33:56.359375,-149.95
14:33:56.375000,-139.40
14:33:56.390625,-125.80
14:33:56.406250,-110.16
14:33:56.421875,-93.52
14:33:56.437500,-76.77
14:33:56.453125,-60.49
14:33:56.468750,-44.88
14:33:56.484375,-29.56
14:33:56.500000,-13.37
14:33:56.515625,5.71
14:33:56.531250,29.83
14:33:56.546875,60.37
14:33:56.562500,96.68
14:33:56.578125,135.79
14:33:56.593750,173.14
14:33:56.609375,204.05
14:33:56.625000,225.44
14:33:56.640625,236.77
14:33:56.656250,239.63
14:33:56.671875,236.46
14:33:56.687500,229.01
14:33:56.703125,217.46
14:33:56.718750,200.72
14:33:56.734375,177.57
14:33:56.750000,147.88
14:33:56.765625,113.21
14:33:56.781250,76.49
14:33:56.796875,41.06
14:33:56.812500,9.49
14:33:56.828125,-17.08
14:33:56.843750,-38.96
14:33:56.859375,-57.11
14:33:56.875000,-72.19
14:33:56.890625,-83.92
14:33:56.906250,-91.24
14:33:56.921875,-93.15
14:33:56.937500,-89.67
14:33:56.953125,-82.46
14:33:56.968750,-74.50
14:33:56.984375,-69.14
14:33:57,-68.80
14:33:57.015625,-74.14
14:33:57.031250,-83.86
14:33:57.046875,-95.29
14:33:57.062500,-105.50
14:33:57.078125,-112.40
14:33:57.093750,-115.28
14:33:57.109375,-114.73
14:33:57.125000,-112.10
14:33:57.140625,-108.76
14:33:57.156250,-105.77
14:33:57.171875,-103.77
14:33:57.187500,-102.86
14:33:57.203125,-102.46
14:33:57.218750,-101.07
14:33:57.234375,-96.42
14:33:57.250000,-86.13
14:33:57.265625,-68.80
14:33:57.281250,-45.00
14:33:57.296875,-17.41
14:33:57.312500,10.37
14:33:57.328125,35.63
14:33:57.343750,58.17
14:33:57.359375,80.41
14:33:57.375000,105.71
14:33:57.390625,135.92
14:33:57.406250,169.55
14:33:57.421875,201.96
14:33:57.437500,227.42
14:33:57.453125,241.81
14:33:57.468750,244.41
14:33:57.484375,237.63
14:33:57.500000,225.28
14:33:57.515625,210.32
14:33:57.531250,193.58
14:33:57.546875,173.94
14:33:57.562500,149.72
14:33:57.578125,120.32
14:33:57.593750,87.02
14:33:57.609375,52.63
14:33:57.625000,20.47
14:33:57.640625,-7.02
14:33:57.656250,-28.72
14:33:57.671875,-44.86
14:33:57.687500,-56.18
14:33:57.703125,-63.29
14:33:57.718750,-66.23
14:33:57.734375,-64.69
14:33:57.750000,-58.61
14:33:57.765625,-48.79
14:33:57.781250,-37.29
14:33:57.796875,-27.04
14:33:57.812500,-21.03
14:33:57.828125,-21.18
14:33:57.843750,-27.59
14:33:57.859375,-38.56
14:33:57.875000,-51.31
14:33:57.890625,-63.11
14:33:57.906250,-72.20
14:33:57.921875,-78.21
14:33:57.937500,-81.69
14:33:57.953125,-83.55
14:33:57.968750,-84.23
14:33:57.984375,-83.58
14:33:58,-81.02
14:33:58.015625,-76.06
14:33:58.031250,-68.65
14:33:58.046875,-59.25
14:33:58.062500,-48.64
14:33:58.078125,-37.52
14:33:58.093750,-26.37
14:33:58.109375,-15.37
14:33:58.125000,-4.55
14:33:58.140625,5.99
14:33:58.156250,15.84
14:33:58.171875,24.35
14:33:58.187500,30.74
14:33:58.203125,34.26
14:33:58.218750,34.54
14:33:58.234375,31.77
14:33:58.250000,26.54
14:33:58.265625,19.74
14:33:58.281250,12.21
14:33:58.296875,4.49
14:33:58.312500,-3.03
14:33:58.328125,-10.06
14:33:58.343750,-16.06
14:33:58.359375,-20.23
14:33:58.375000,-21.68
14:33:58.390625,-19.98
14:33:58.406250,-15.41
14:33:58.421875,-9.07
14:33:58.437500,-2.62
14:33:58.453125,2.42
14:33:58.468750,5.08
14:33:58.484375,5.28
14:33:58.500000,3.62
14:33:58.515625,0.92
14:33:58.531250,-2.12
14:33:58.546875,-5.06
14:33:58.562500,-7.68
14:33:58.578125,-9.72
14:33:58.593750,-10.85
14:33:58.609375,-10.79
14:33:58.625000,-9.45
14:33:58.640625,-7.07
14:33:58.656250,-4.22
14:33:58.671875,-1.48
14:33:58.687500,0.68
14:33:58.703125,2.05
14:33:58.718750,2.60
14:33:58.734375,2.38
14:33:58.750000,1.42
14:33:58.765625,-0.11
14:33:58.781250,-1.98
14:33:58.796875,-3.83
14:33:58.812500,-5.34
14:33:58.828125,-6.36
14:33:58.843750,-6.93
14:33:58.859375,-7.27
14:33:58.875000,-7.61
14:33:58.890625,-8.21
14:33:58.906250,-9.19
14:33:58.921875,-10.61
14:33:58.937500,-12.45
14:33:58.953125,-14.61
14:33:58.968750,-16.91
14:33:58.984375,-19.12
14:33:59,-21.00
14:33:59.015625,-22.38
14:33:59.031250,-23.19
14:33:59.046875,-23.51
14:33:59.062500,-23.56
14:33:59.078125,-23.64
14:33:59.093750,-24.06
14:33:59.109375,-25.02
14:33:59.125000,-26.42
14:33:59.140625,-27.90
14:33:59.156250,-28.92
14:33:59.171875,-29.11
14:33:59.187500,-28.36
14:33:59.203125,-26.99
14:33:59.218750,-25.55
14:33:59.234375,-24.53
14:33:59.250000,-24.13
14:33:59.265625,-24.13
14:33:59.281250,-23.99
14:33:59.296875,-22.98
14:33:59.312500,-20.46
14:33:59.328125,-15.97
14:33:59.343750,-9.35
14:33:59.359375,-0.92
14:33:59.375000,8.50
14:33:59.390625,17.64
14:33:59.406250,24.98
14:33:59.421875,29.30
14:33:59.437500,30.13
14:33:59.453125,27.97
14:33:59.468750,24.17
14:33:59.484375,20.39
14:33:59.500000,17.92
14:33:59.515625,17.14
14:33:59.531250,17.56
14:33:59.546875,18.03
14:33:59.562500,17.37
14:33:59.578125,14.89
14:33:59.593750,10.51
14:33:59.609375,4.90
14:33:59.625000,-0.95
14:33:59.640625,-5.94
14:33:59.656250,-9.10
14:33:59.671875,-9.95
14:33:59.687500,-8.62
14:33:59.703125,-5.76
14:33:59.718750,-2.39
14:33:59.734375,0.50
14:33:59.750000,2.32
14:33:59.765625,3.01
14:33:59.781250,2.88
14:33:59.796875,2.35
14:33:59.812500,1.63
14:33:59.828125,0.57
14:33:59.843750,-1.01
14:33:59.859375,-3.18
14:33:59.875000,-5.66
14:33:59.890625,-7.80
14:33:59.906250,-8.81
14:33:59.921875,-8.01
14:33:59.937500,-5.05
14:33:59.953125,-0.02
14:33:59.968750,6.42
14:33:59.984375,13.29
14:34:00,19.35
14:34:00.015625,23.48
14:34:00.031250,24.97
14:34:00.046875,23.75
14:34:00.062500,20.38
14:34:00.078125,15.94
14:34:00.093750,11.63
14:34:00.109375,8.47
14:34:00.125000,6.99
14:34:00.140625,7.14
14:34:00.156250,8.35
14:34:00.171875,9.90
14:34:00.187500,11.08
14:34:00.203125,11.47
14:34:00.218750,11.09
14:34:00.234375,10.26
14:34:00.250000,9.38
14:34:00.265625,8.81
14:34:00.281250,8.60
14:34:00.296875,8.53
14:34:00.312500,8.26
14:34:00.328125,7.48
14:34:00.343750,6.08
14:34:00.359375,4.20
14:34:00.375000,2.13
14:34:00.390625,0.21
14:34:00.406250,-1.41
14:34:00.421875,-2.70
14:34:00.437500,-3.76
14:34:00.453125,-4.54
14:34:00.468750,-4.89
14:34:00.484375,-4.58
14:34:00.500000,-3.56
14:34:00.515625,-2.16
14:34:00.531250,-1.15
14:34:00.546875,-1.41
14:34:00.562500,-3.58
14:34:00.578125,-7.77
14:34:00.593750,-13.51
14:34:00.609375,-19.93
14:34:00.625000,-26.02
14:34:00.640625,-30.84
14:34:00.656250,-33.68
14:34:00.671875,-34.16
14:34:00.687500,-32.43
14:34:00.703125,-29.10
14:34:00.718750,-25.20
14:34:00.734375,-21.76
14:34:00.750000,-19.52
14:34:00.765625,-18.56
14:34:00.781250,-18.43
14:34:00.796875,-18.35
14:34:00.812500,-17.63
14:34:00.828125,-15.88
14:34:00.843750,-13.11
14:34:00.859375,-9.62
14:34:00.875000,-5.70
14:34:00.890625,-1.68
14:34:00.906250,2.15
14:34:00.921875,5.54
14:34:00.937500,8.27
14:34:00.953125,10.18
14:34:00.968750,11.27
14:34:00.984375,11.61
14:34:01,11.23
14:34:01.015625,10.18
14:34:01.031250,8.45
14:34:01.046875,6.16
14:34:01.062500,3.60
14:34:01.078125,1.24
14:34:01.093750,-0.35
14:34:01.109375,-0.79
14:34:01.125000,-0.01
14:34:01.140625,1.63
14:34:01.156250,3.52
14:34:01.171875,5.05
14:34:01.187500,5.88
14:34:01.203125,5.99
14:34:01.218750,5.57
14:34:01.234375,4.81
14:34:01.250000,3.74
14:34:01.265625,2.32
14:34:01.281250,0.57
14:34:01.296875,-1.31
14:34:01.312500,-2.93
14:34:01.328125,-4.03
14:34:01.343750,-4.59
14:34:01.359375,-4.97
14:34:01.375000,-5.77
14:34:01.390625,-7.52
14:34:01.406250,-10.38
14:34:01.421875,-13.99
14:34:01.437500,-17.58
14:34:01.453125,-20.24
14:34:01.468750,-21.30
14:34:01.484375,-20.53
14:34:01.500000,-18.16
14:34:01.515625,-14.81
14:34:01.531250,-11.12
14:34:01.546875,-7.56
14:34:01.562500,-4.28
14:34:01.578125,-1.14
14:34:01.593750,2.11
14:34:01.609375,5.68
14:34:01.625000,9.67
14:34:01.640625,14.01
14:34:01.656250,18.59
14:34:01.671875,23.20
14:34:01.687500,27.63
14:34:01.703125,31.62
14:34:01.718750,35.01
14:34:01.734375,37.77
14:34:01.750000,39.97
14:34:01.765625,41.72
14:34:01.781250,43.04
14:34:01.796875,43.87
14:34:01.812500,44.08
14:34:01.828125,43.55
14:34:01.843750,42.26
14:34:01.859375,40.31
14:34:01.875000,37.79
14:34:01.890625,34.81
14:34:01.906250,31.46
14:34:01.921875,27.85
14:34:01.937500,24.17
14:34:01.953125,20.69
14:34:01.968750,17.63
14:34:01.984375,14.94
14:34:02,12.45
14:34:02.015625,9.89
14:34:02.031250,7.15
14:34:02.046875,4.34
14:34:02.062500,1.78
14:34:02.078125,-0.28
14:34:02.093750,-1.90
14:34:02.109375,-3.57
14:34:02.125000,-6.07
14:34:02.140625,-10.09
14:34:02.156250,-15.87
14:34:02.171875,-23.07
14:34:02.187500,-30.72
14:34:02.203125,-37.58
14:34:02.218750,-42.51
14:34:02.234375,-44.85
14:34:02.250000,-44.63
14:34:02.265625,-42.49
14:34:02.281250,-39.28
14:34:02.296875,-35.74
14:34:02.312500,-32.18
14:34:02.328125,-28.42
14:34:02.343750,-24.04
14:34:02.359375,-18.66
14:34:02.375000,-12.13
14:34:02.390625,-4.54
14:34:02.406250,3.81
14:34:02.421875,12.56
14:34:02.437500,21.26
14:34:02.453125,29.36
14:34:02.468750,36.25
14:34:02.484375,41.56
14:34:02.500000,45.38
14:34:02.515625,48.34
14:34:02.531250,51.55
14:34:02.546875,55.95
14:34:02.562500,61.69
14:34:02.578125,67.76
14:34:02.593750,72.23
14:34:02.609375,73.26
14:34:02.625000,70.23
14:34:02.640625,64.47
14:34:02.656250,58.79
14:34:02.671875,56.05
14:34:02.687500,57.68
14:34:02.703125,63.08
14:34:02.718750,70.29
14:34:02.734375,77.38
14:34:02.750000,83.61
14:34:02.765625,89.08
14:34:02.781250,93.82
14:34:02.796875,96.38
14:34:02.812500,93.57
14:34:02.828125,81.57
14:34:02.843750,57.48
14:34:02.859375,20.54
14:34:02.875000,-28.26
14:34:02.890625,-87.04
14:34:02.906250,-153.74
14:34:02.921875,-225.64
14:34:02.937500,-298.28
14:34:02.953125,-364.92
14:34:02.968750,-417.78
14:34:02.984375,-450.84
14:34:03,-462.47
14:34:03.015625,-456.46
14:34:03.031250,-440.30
14:34:03.046875,-421.95
14:34:03.062500,-406.76
14:34:03.078125,-396.08
14:34:03.093750,-388.18
14:34:03.109375,-380.38
14:34:03.125000,-370.89
14:34:03.140625,-359.41
14:34:03.156250,-346.55
14:34:03.171875,-332.67
14:34:03.187500,-317.31
14:34:03.203125,-299.33
14:34:03.218750,-277.71
14:34:03.234375,-252.25
14:34:03.250000,-223.78
14:34:03.265625,-194.07
14:34:03.281250,-164.96
14:34:03.296875,-137.84
14:34:03.312500,-113.15
14:34:03.328125,-90.41
14:34:03.343750,-68.49
14:34:03.359375,-46.19
14:34:03.375000,-22.67
14:34:03.390625,2.21
14:34:03.406250,27.96
14:34:03.421875,53.72
14:34:03.437500,78.68
14:34:03.453125,102.49
14:34:03.468750,125.30
14:34:03.484375,147.68
14:34:03.500000,170.30
14:34:03.515625,193.57
14:34:03.531250,217.59
14:34:03.546875,242.34
14:34:03.562500,268.11
14:34:03.578125,295.62
14:34:03.593750,325.47
14:34:03.609375,357.25
14:34:03.625000,388.81
14:34:03.640625,416.30
14:34:03.656250,435.33
14:34:03.671875,442.67
14:34:03.687500,437.54
14:34:03.703125,421.87
14:34:03.718750,399.15
14:34:03.734375,372.86
14:34:03.750000,345.36
14:34:03.765625,317.73
14:34:03.781250,290.57
14:34:03.796875,264.78
14:34:03.812500,241.66
14:34:03.828125,221.98
14:34:03.843750,205.15
14:34:03.859375,188.91
14:34:03.875000,170.27
14:34:03.890625,147.24
14:34:03.906250,120.30
14:34:03.921875,92.58
14:34:03.937500,68.61
14:34:03.953125,52.38
14:34:03.968750,45.65
14:34:03.984375,47.43
14:34:04,54.74
14:34:04.015625,64.10
14:34:04.031250,72.89
14:34:04.046875,79.86
14:34:04.062500,84.94
14:34:04.078125,88.75
14:34:04.093750,92.17
14:34:04.109375,96.20
14:34:04.125000,102.09
14:34:04.140625,111.06
14:34:04.156250,123.65
14:34:04.171875,139.03
14:34:04.187500,154.80
14:34:04.203125,167.50
14:34:04.218750,173.78
14:34:04.234375,171.98
14:34:04.250000,163.00
14:34:04.265625,150.12
14:34:04.281250,137.78
14:34:04.296875,129.68
14:34:04.312500,127.34
14:34:04.328125,129.48
14:34:04.343750,132.81
14:34:04.359375,133.73
14:34:04.375000,129.94
14:34:04.390625,121.21
14:34:04.406250,109.17
14:34:04.421875,96.11
14:34:04.437500,83.80
14:34:04.453125,72.88
14:34:04.468750,62.91
14:34:04.484375,53.24
14:34:04.500000,43.54
14:34:04.515625,34.05
14:34:04.531250,25.31
14:34:04.546875,17.43
14:34:04.562500,9.94
14:34:04.578125,1.81
14:34:04.593750,-7.89
14:34:04.609375,-19.66
14:34:04.625000,-33.33
14:34:04.640625,-48.34
14:34:04.656250,-64.42
14:34:04.671875,-81.94
14:34:04.687500,-101.74
14:34:04.703125,-124.44
14:34:04.718750,-149.62
14:34:04.734375,-175.32
14:34:04.750000,-198.37
14:34:04.765625,-215.30
14:34:04.781250,-223.35
14:34:04.796875,-221.26
14:34:04.812500,-209.56
14:34:04.828125,-190.34
14:34:04.843750,-166.99
14:34:04.859375,-143.67
14:34:04.875000,-124.52
14:34:04.890625,-112.85
14:34:04.906250,-110.22
14:34:04.921875,-115.82
14:34:04.937500,-126.86
14:34:04.953125,-139.45
14:34:04.968750,-149.96
14:34:04.984375,-156.14
14:34:05,-157.30
14:34:05.015625,-153.98
14:34:05.031250,-147.17
14:34:05.046875,-137.89
14:34:05.062500,-126.99
14:34:05.078125,-115.31
14:34:05.093750,-103.74
14:34:05.109375,-93.09
14:34:05.125000,-83.68
14:34:05.140625,-75.37
14:34:05.156250,-67.75
14:34:05.171875,-60.56
14:34:05.187500,-53.94
14:34:05.203125,-48.34
14:34:05.218750,-44.15
14:34:05.234375,-41.24
14:34:05.250000,-38.97
14:34:05.265625,-36.50
14:34:05.281250,-33.14
14:34:05.296875,-28.79
14:34:05.312500,-23.79
14:34:05.328125,-18.57
14:34:05.343750,-13.37
14:34:05.359375,-8.37
14:34:05.375000,-3.86
14:34:05.390625,-0.51
14:34:05.406250,0.70
14:34:05.421875,-1.03
14:34:05.437500,-5.69
14:34:05.453125,-12.38
14:34:05.468750,-19.50
14:34:05.484375,-25.50
14:34:05.500000,-29.45
14:34:05.515625,-31.18
14:34:05.531250,-31.13
14:34:05.546875,-30.01
14:34:05.562500,-28.61
14:34:05.578125,-27.48
14:34:05.593750,-26.95
14:34:05.609375,-27.06
14:34:05.625000,-27.49
14:34:05.640625,-27.72
14:34:05.656250,-27.17
14:34:05.671875,-25.50
14:34:05.687500,-22.75
14:34:05.703125,-19.34
14:34:05.718750,-15.80
14:34:05.734375,-12.54
14:34:05.750000,-9.67
14:34:05.765625,-7.07
14:34:05.781250,-4.60
14:34:05.796875,-2.14
14:34:05.812500,0.26
14:34:05.828125,2.48
14:34:05.843750,4.33
14:34:05.859375,5.64
14:34:05.875000,6.17
14:34:05.890625,5.86
14:34:05.906250,4.78
14:34:05.921875,3.14
14:34:05.937500,1.19
14:34:05.953125,-0.84
14:34:05.968750,-2.87
14:34:05.984375,-4.85
14:34:06,-6.57
14:34:06.015625,-7.77
14:34:06.031250,-8.06
14:34:06.046875,-7.33
14:34:06.062500,-5.77
14:34:06.078125,-3.92
14:34:06.093750,-2.41
14:34:06.109375,-1.75
14:34:06.125000,-2.17
14:34:06.140625,-3.77
14:34:06.156250,-6.75
14:34:06.171875,-11.57
14:34:06.187500,-18.85
14:34:06.203125,-28.96
14:34:06.218750,-41.47
14:34:06.234375,-54.90
14:34:06.250000,-67.01
14:34:06.265625,-75.49
14:34:06.281250,-78.94
14:34:06.296875,-77.58
14:34:06.312500,-73.23
14:34:06.328125,-68.70
14:34:06.343750,-66.65
14:34:06.359375,-68.43
14:34:06.375000,-73.67
14:34:06.390625,-80.49
14:34:06.406250,-86.49
14:34:06.421875,-89.95
14:34:06.437500,-90.66
14:34:06.453125,-89.97
14:34:06.468750,-90.21
14:34:06.484375,-93.61
14:34:06.500000,-101.26
14:34:06.515625,-112.45
14:34:06.531250,-124.69
14:34:06.546875,-134.31
14:34:06.562500,-137.44
14:34:06.578125,-131.11
14:34:06.593750,-114.07
14:34:06.609375,-87.13
14:34:06.625000,-53.00
14:34:06.640625,-15.62
14:34:06.656250,20.72
14:34:06.671875,52.32
14:34:06.687500,76.86
14:34:06.703125,93.65
14:34:06.718750,103.59
14:34:06.734375,108.58
14:34:06.750000,110.83
14:34:06.765625,112.12
14:34:06.781250,113.58
14:34:06.796875,115.73
14:34:06.812500,118.73
14:34:06.828125,122.57
14:34:06.843750,126.98
14:34:06.859375,131.35
14:34:06.875000,134.69
14:34:06.890625,136.03
14:34:06.906250,135.03
14:34:06.921875,132.50
14:34:06.937500,130.39
14:34:06.953125,131.01
14:34:06.968750,135.88
14:34:06.984375,144.65
14:34:07,154.98
14:34:07.015625,163.18
14:34:07.031250,165.80
14:34:07.046875,161.08
14:34:07.062500,149.75
14:34:07.078125,134.79
14:34:07.093750,120.28
14:34:07.109375,109.84
14:34:07.125000,105.42
14:34:07.140625,106.83
14:34:07.156250,111.97
14:34:07.171875,117.73
14:34:07.187500,121.02
14:34:07.203125,119.63
14:34:07.218750,112.82
14:34:07.234375,101.36
14:34:07.250000,87.11
14:34:07.265625,72.36
14:34:07.281250,58.98
14:34:07.296875,47.97
14:34:07.312500,39.20
14:34:07.328125,31.71
14:34:07.343750,24.23
14:34:07.359375,15.78
14:34:07.375000,5.93
14:34:07.390625,-4.97
14:34:07.406250,-16.12
14:34:07.421875,-26.57
14:34:07.437500,-35.59
14:34:07.453125,-42.96
14:34:07.468750,-49.07
14:34:07.484375,-55.05
14:34:07.500000,-62.54
14:34:07.515625,-73.29
14:34:07.531250,-88.45
14:34:07.546875,-108.00
14:34:07.562500,-130.45
14:34:07.578125,-153.04
14:34:07.593750,-172.53
14:34:07.609375,-186.06
14:34:07.625000,-191.82
14:34:07.640625,-189.38
14:34:07.656250,-179.41
14:34:07.671875,-163.37
14:34:07.687500,-143.09
14:34:07.703125,-120.61
14:34:07.718750,-98.08
14:34:07.734375,-77.42
14:34:07.750000,-59.92
14:34:07.765625,-45.67
14:34:07.781250,-33.57
14:34:07.796875,-21.77
14:34:07.812500,-8.50
14:34:07.828125,6.95
14:34:07.843750,24.03
14:34:07.859375,41.25
14:34:07.875000,56.84
14:34:07.890625,69.52
14:34:07.906250,78.67
14:34:07.921875,84.23
14:34:07.937500,86.35
14:34:07.953125,85.28
14:34:07.968750,81.25
14:34:07.984375,74.73
14:34:08,66.41
14:34:08.015625,57.09
14:34:08.031250,47.45
14:34:08.046875,37.82
14:34:08.062500,28.16
14:34:08.078125,18.26
14:34:08.093750,7.96
14:34:08.109375,-2.52
14:34:08.125000,-12.52
14:34:08.140625,-21.06
14:34:08.156250,-27.16
14:34:08.171875,-30.24
14:34:08.187500,-30.31
14:34:08.203125,-27.85
14:34:08.218750,-23.46
14:34:08.234375,-17.48
14:34:08.250000,-9.91
14:34:08.265625,-0.58
14:34:08.281250,10.48
14:34:08.296875,22.65
14:34:08.312500,34.77
14:34:08.328125,45.42
14:34:08.343750,53.40
14:34:08.359375,58.12
14:34:08.375000,59.74
14:34:08.390625,58.91
14:34:08.406250,56.41
14:34:08.421875,52.81
14:34:08.437500,48.30
14:34:08.453125,42.83
14:34:08.468750,36.16
14:34:08.484375,28.14
14:34:08.500000,18.88
14:34:08.515625,8.81
14:34:08.531250,-1.28
14:34:08.546875,-10.49
14:34:08.562500,-18.00
14:34:08.578125,-23.31
14:34:08.593750,-26.45
14:34:08.609375,-27.83
14:34:08.625000,-28.07
14:34:08.640625,-27.74
14:34:08.656250,-27.25
14:34:08.671875,-26.88
14:34:08.687500,-26.88
14:34:08.703125,-27.64
14:34:08.718750,-29.59
14:34:08.734375,-32.99
14:34:08.750000,-37.76
14:34:08.765625,-43.14
14:34:08.781250,-47.91
14:34:08.796875,-50.69
14:34:08.812500,-50.58
14:34:08.828125,-47.49
14:34:08.843750,-42.34
14:34:08.859375,-36.66
14:34:08.875000,-32.04
14:34:08.890625,-29.57
14:34:08.906250,-29.49
14:34:08.921875,-31.26
14:34:08.937500,-33.97
14:34:08.953125,-36.69
14:34:08.968750,-38.81
14:34:08.984375,-40.10
14:34:09,-40.71
14:34:09.015625,-40.87
14:34:09.031250,-40.78
14:34:09.046875,-40.56
14:34:09.062500,-40.21
14:34:09.078125,-39.71
14:34:09.093750,-39.12
14:34:09.109375,-38.62
14:34:09.125000,-38.53
14:34:09.140625,-39.14
14:34:09.156250,-40.70
14:34:09.171875,-43.32
14:34:09.187500,-47.10
14:34:09.203125,-52.13
14:34:09.218750,-58.44
14:34:09.234375,-65.80
14:34:09.250000,-73.51
14:34:09.265625,-80.43
14:34:09.281250,-85.38
14:34:09.296875,-87.74
14:34:09.312500,-87.96
14:34:09.328125,-87.39
14:34:09.343750,-87.55
14:34:09.359375,-89.15
14:34:09.375000,-91.56
14:34:09.390625,-93.19
14:34:09.406250,-92.42
14:34:09.421875,-88.56
14:34:09.437500,-82.09
14:34:09.453125,-74.26
14:34:09.468750,-66.10
14:34:09.484375,-57.91
14:34:09.500000,-49.25
14:34:09.515625,-39.64
14:34:09.531250,-29.17
14:34:09.546875,-18.82
14:34:09.562500,-9.96
14:34:09.578125,-3.58
14:34:09.593750,0.19
14:34:09.609375,2.23
14:34:09.625000,3.83
14:34:09.640625,6.10
14:34:09.656250,9.39
14:34:09.671875,13.21
14:34:09.687500,16.65
14:34:09.703125,18.86
14:34:09.718750,19.61
14:34:09.734375,19.44
14:34:09.750000,19.52
14:34:09.765625,21.24
14:34:09.781250,25.64
14:34:09.796875,33.14
14:34:09.812500,43.47
14:34:09.828125,55.90
14:34:09.843750,69.64
14:34:09.859375,84.10
14:34:09.875000,98.90
14:34:09.890625,113.77
14:34:09.906250,128.25
14:34:09.921875,141.75
14:34:09.937500,153.65
14:34:09.953125,163.63
14:34:09.968750,171.86
14:34:09.984375,178.91
14:34:10,185.51
14:34:10.015625,192.10
14:34:10.031250,198.63
14:34:10.046875,204.45
14:34:10.062500,208.49
14:34:10.078125,209.72
14:34:10.093750,207.53
14:34:10.109375,201.88
14:34:10.125000,193.24
14:34:10.140625,182.29
14:34:10.156250,169.62
14:34:10.171875,155.55
14:34:10.187500,140.16
14:34:10.203125,123.57
14:34:10.218750,106.18
14:34:10.234375,88.83
14:34:10.250000,72.69
14:34:10.265625,58.84
14:34:10.281250,47.89
14:34:10.296875,39.71
14:34:10.312500,33.49
14:34:10.328125,28.05
14:34:10.343750,22.28
14:34:10.359375,15.55
14:34:10.375000,7.92
14:34:10.390625,0.22
14:34:10.406250,-6.29
14:34:10.421875,-10.26
14:34:10.437500,-10.83
14:34:10.453125,-7.88
14:34:10.468750,-2.17
14:34:10.484375,4.83
14:34:10.500000,11.19
14:34:10.515625,14.76
14:34:10.531250,13.66
14:34:10.546875,6.70
14:34:10.562500,-6.25
14:34:10.578125,-24.12
14:34:10.593750,-44.78
14:34:10.609375,-65.59
14:34:10.625000,-84.22
14:34:10.640625,-99.18
14:34:10.656250,-110.04
14:34:10.671875,-117.11
14:34:10.687500,-120.88
14:34:10.703125,-121.51
14:34:10.718750,-118.76
14:34:10.734375,-112.32
14:34:10.750000,-102.37
14:34:10.765625,-89.96
14:34:10.781250,-77.04
14:34:10.796875,-65.97
14:34:10.812500,-58.92
14:34:10.828125,-57.17
14:34:10.843750,-60.82
14:34:10.859375,-68.87
14:34:10.875000,-79.67
14:34:10.890625,-91.50
14:34:10.906250,-102.93
14:34:10.921875,-112.87
14:34:10.937500,-120.35
14:34:10.953125,-124.47
14:34:10.968750,-124.39
14:34:10.984375,-119.79
14:34:11,-111.01
14:34:11.015625,-99.39
14:34:11.031250,-86.94
14:34:11.046875,-75.88
14:34:11.062500,-68.03
14:34:11.078125,-64.29
14:34:11.093750,-64.49
14:34:11.109375,-67.44
14:34:11.125000,-71.47
14:34:11.140625,-75.00
14:34:11.156250,-77.01
14:34:11.171875,-77.27
14:34:11.187500,-76.15
14:34:11.203125,-74.29
14:34:11.218750,-72.33
14:34:11.234375,-70.81
14:34:11.250000,-70.10
14:34:11.265625,-70.32
14:34:11.281250,-70.95
14:34:11.296875,-70.47
14:34:11.312500,-66.45
14:34:11.328125,-56.33
14:34:11.343750,-38.51
14:34:11.359375,-13.34
14:34:11.375000,16.79
14:34:11.390625,48.32
14:34:11.406250,77.86
14:34:11.421875,103.21
14:34:11.437500,123.53
14:34:11.453125,138.78
14:34:11.468750,149.05
14:34:11.484375,154.32
14:34:11.500000,154.95
14:34:11.515625,152.23
14:34:11.531250,148.47
14:34:11.546875,146.26
14:34:11.562500,147.31
14:34:11.578125,151.45
14:34:11.593750,156.63
14:34:11.609375,159.98
14:34:11.625000,159.16
14:34:11.640625,153.56
14:34:11.656250,144.42
14:34:11.671875,134.15
14:34:11.687500,125.06
14:34:11.703125,118.35
14:34:11.718750,113.80
14:34:11.734375,110.11
14:34:11.750000,105.80
14:34:11.765625,99.91
14:34:11.781250,92.40
14:34:11.796875,83.94
14:34:11.812500,75.39
14:34:11.828125,67.31
14:34:11.843750,59.70
14:34:11.859375,51.96
14:34:11.875000,43.27
14:34:11.890625,32.91
14:34:11.906250,20.53
14:34:11.921875,6.27
14:34:11.937500,-9.34
14:34:11.953125,-25.49
14:34:11.968750,-41.24
14:34:11.984375,-55.50
14:34:12,-67.05
14:34:12.015625,-74.75
14:34:12.031250,-77.92
14:34:12.046875,-76.72
14:34:12.062500,-72.34
14:34:12.078125,-66.81
14:34:12.093750,-62.42
14:34:12.109375,-60.84
14:34:12.125000,-62.66
14:34:12.140625,-67.08
14:34:12.156250,-72.37
14:34:12.171875,-76.45
14:34:12.187500,-77.44
14:34:12.203125,-74.21
14:34:12.218750,-66.56
14:34:12.234375,-55.18
14:34:12.250000,-41.53
14:34:12.265625,-27.35
14:34:12.281250,-14.31
14:34:12.296875,-3.57
14:34:12.312500,4.41
14:34:12.328125,9.80
14:34:12.343750,13.08
14:34:12.359375,14.80
14:34:12.375000,15.32
14:34:12.390625,14.83
14:34:12.406250,13.45
14:34:12.421875,11.43
14:34:12.437500,9.17
14:34:12.453125,7.12
14:34:12.468750,5.62
14:34:12.484375,4.63
14:34:12.500000,3.87
14:34:12.515625,2.89
14:34:12.531250,1.27
14:34:12.546875,-1.23
14:34:12.562500,-4.59
14:34:12.578125,-8.62
14:34:12.593750,-13.00
14:34:12.609375,-17.43
14:34:12.625000,-21.62
14:34:12.640625,-25.26
14:34:12.656250,-28.09
14:34:12.671875,-29.89
14:34:12.687500,-30.65
14:34:12.703125,-30.60
14:34:12.718750,-30.30
14:34:12.734375,-30.62
14:34:12.750000,-32.43
14:34:12.765625,-36.49
14:34:12.781250,-43.18
14:34:12.796875,-52.40
14:34:12.812500,-63.52
14:34:12.828125,-75.44
14:34:12.843750,-86.84
14:34:12.859375,-96.43
14:34:12.875000,-103.23
14:34:12.890625,-106.88
14:34:12.906250,-107.71
14:34:12.921875,-106.57
14:34:12.937500,-104.46
14:34:12.953125,-101.99
14:34:12.968750,-99.16
14:34:12.984375,-95.31
14:34:13,-89.66
14:34:13.015625,-81.78
14:34:13.031250,-71.89
14:34:13.046875,-60.61
14:34:13.062500,-48.44
14:34:13.078125,-35.39
14:34:13.093750,-20.86
14:34:13.109375,-4.30
14:34:13.125000,14.26
14:34:13.140625,33.76
14:34:13.156250,52.27
14:34:13.171875,67.77
14:34:13.187500,78.83
14:34:13.203125,85.09
14:34:13.218750,87.23
14:34:13.234375,86.28
14:34:13.250000,83.18
14:34:13.265625,78.49
14:34:13.281250,72.49
14:34:13.296875,65.49
14:34:13.312500,58.12
14:34:13.328125,51.29
14:34:13.343750,45.91
14:34:13.359375,42.37
14:34:13.375000,40.36
14:34:13.390625,38.88
14:34:13.406250,36.65
14:34:13.421875,32.58
14:34:13.437500,26.34
14:34:13.453125,18.37
14:34:13.468750,9.68
14:34:13.484375,1.27
14:34:13.500000,-6.24
14:34:13.515625,-12.74
14:34:13.531250,-18.36
14:34:13.546875,-23.13
14:34:13.562500,-26.74
14:34:13.578125,-28.57
14:34:13.593750,-28.03
14:34:13.609375,-24.98
14:34:13.625000,-20.00
14:34:13.640625,-14.37
14:34:13.656250,-9.62
14:34:13.671875,-7.11
14:34:13.687500,-7.56
14:34:13.703125,-10.93
14:34:13.718750,-16.45
14:34:13.734375,-22.87
14:34:13.750000,-28.75
14:34:13.765625,-32.84
14:34:13.781250,-34.42
14:34:13.796875,-33.54
14:34:13.812500,-30.94
14:34:13.828125,-27.78
14:34:13.843750,-25.07
14:34:13.859375,-23.21
14:34:13.875000,-21.76
14:34:13.890625,-19.47
14:34:13.906250,-14.76
14:34:13.921875,-6.48
14:34:13.937500,5.50
14:34:13.953125,20.08
14:34:13.968750,35.11
14:34:13.984375,48.21
14:34:14,57.65
14:34:14.015625,62.78
14:34:14.031250,64.08
14:34:14.046875,62.72
14:34:14.062500,59.95
14:34:14.078125,56.55
14:34:14.093750,52.81
14:34:14.109375,48.59
14:34:14.125000,43.62
14:34:14.140625,37.68
14:34:14.156250,30.65
14:34:14.171875,22.51
14:34:14.187500,13.49
14:34:14.203125,4.22
14:34:14.218750,-4.30
14:34:14.234375,-11.05
14:34:14.250000,-15.37
14:34:14.265625,-17.41
14:34:14.281250,-18.03
14:34:14.296875,-18.43
14:34:14.312500,-19.56
14:34:14.328125,-21.82
14:34:14.343750,-24.94
14:34:14.359375,-28.32
14:34:14.375000,-31.30
14:34:14.390625,-33.51
14:34:14.406250,-34.96
14:34:14.421875,-36.01
14:34:14.437500,-37.27
14:34:14.453125,-39.25
14:34:14.468750,-42.25
14:34:14.484375,-46.10
14:34:14.500000,-50.20
14:34:14.515625,-53.70
14:34:14.531250,-55.68
14:34:14.546875,-55.53
14:34:14.562500,-53.11
14:34:14.578125,-48.83
14:34:14.593750,-43.41
14:34:14.609375,-37.56
14:34:14.625000,-31.78
14:34:14.640625,-26.28
14:34:14.656250,-20.98
14:34:14.671875,-15.70
14:34:14.687500,-10.31
14:34:14.703125,-4.73
14:34:14.718750,0.87
14:34:14.734375,6.05
14:34:14.750000,10.32
14:34:14.765625,13.27
14:34:14.781250,14.81
14:34:14.796875,15.18
14:34:14.812500,14.91
14:34:14.828125,14.56
14:34:14.843750,14.64
14:34:14.859375,15.40
14:34:14.875000,16.84
14:34:14.890625,18.67
14:34:14.906250,20.56
14:34:14.921875,22.20
14:34:14.937500,23.48
14:34:14.953125,24.35
14:34:14.968750,24.66
14:34:14.984375,24.29
14:34:15,23.22
14:34:15.015625,21.51
14:34:15.031250,19.30
14:34:15.046875,16.71
14:34:15.062500,13.78
14:34:15.078125,10.53
14:34:15.093750,7.00
14:34:15.109375,3.32
14:34:15.125000,-0.45
14:34:15.140625,-4.21
14:34:15.156250,-7.90
14:34:15.171875,-11.44
14:34:15.187500,-14.76
14:34:15.203125,-17.80
14:34:15.218750,-20.51
14:34:15.234375,-23.04
14:34:15.250000,-25.65
14:34:15.265625,-28.81
14:34:15.281250,-33.01
14:34:15.296875,-38.47
14:34:15.312500,-44.77
14:34:15.328125,-50.90
14:34:15.343750,-55.47
14:34:15.359375,-57.29
14:34:15.375000,-55.88
14:34:15.390625,-51.67
14:34:15.406250,-45.92
14:34:15.421875,-40.10
14:34:15.437500,-35.32
14:34:15.453125,-31.89
14:34:15.468750,-29.27
14:34:15.484375,-26.48
14:34:15.500000,-22.80
14:34:15.515625,-18.17
14:34:15.531250,-13.39
14:34:15.546875,-9.73
14:34:15.562500,-8.40
14:34:15.578125,-10.02
14:34:15.593750,-14.45
14:34:15.609375,-20.89
14:34:15.625000,-28.16
14:34:15.640625,-35.16
14:34:15.656250,-41.21
14:34:15.671875,-46.37
14:34:15.687500,-51.38
14:34:15.703125,-57.34
14:34:15.718750,-65.34
14:34:15.734375,-75.93
14:34:15.750000,-88.87
14:34:15.765625,-103.02
14:34:15.781250,-116.47
14:34:15.796875,-126.65
14:34:15.812500,-130.60
14:34:15.828125,-125.60
14:34:15.843750,-109.92
14:34:15.859375,-83.83
14:34:15.875000,-50.09
14:34:15.890625,-13.54
14:34:15.906250,20.06
14:34:15.921875,45.83
14:34:15.937500,61.20
14:34:15.953125,66.34
14:34:15.968750,63.43
14:34:15.984375,55.23
14:34:16,43.81
14:34:16.015625,30.08
14:34:16.031250,14.31
14:34:16.046875,-3.14
14:34:16.062500,-21.32
14:34:16.078125,-38.71
14:34:16.093750,-53.53
14:34:16.109375,-64.00
14:34:16.125000,-68.44
14:34:16.140625,-65.40
14:34:16.156250,-54.09
14:34:16.171875,-35.03
14:34:16.187500,-10.55
14:34:16.203125,15.41
14:34:16.218750,38.34
14:34:16.234375,54.68
14:34:16.250000,63.09
14:34:16.265625,64.83
14:34:16.281250,62.72
14:34:16.296875,59.56
14:34:16.312500,56.79
14:34:16.328125,54.22
14:34:16.343750,50.67
14:34:16.359375,45.19
14:34:16.375000,37.92
14:34:16.390625,30.16
14:34:16.406250,23.93
14:34:16.421875,21.28
14:34:16.437500,23.86
14:34:16.453125,32.90
14:34:16.468750,49.43
14:34:16.484375,74.36
14:34:16.500000,108.11
14:34:16.515625,149.82
14:34:16.531250,196.48
14:34:16.546875,242.95
14:34:16.562500,282.80
14:34:16.578125,310.35
14:34:16.593750,322.60
14:34:16.609375,320.27
14:34:16.625000,307.36
14:34:16.640625,289.33
14:34:16.656250,270.94
14:34:16.671875,254.68
14:34:16.687500,240.60
14:34:16.703125,227.19
14:34:16.718750,212.76
14:34:16.734375,196.27
14:34:16.750000,177.38
14:34:16.765625,156.04
14:34:16.781250,131.98
14:34:16.796875,104.80
14:34:16.812500,74.42
14:34:16.828125,41.57
14:34:16.843750,7.78
14:34:16.859375,-25.11
14:34:16.875000,-55.80
14:34:16.890625,-83.96
14:34:16.906250,-110.34
14:34:16.921875,-136.14
14:34:16.937500,-162.18
14:34:16.953125,-188.37
14:34:16.968750,-213.44
14:34:16.984375,-235.52
14:34:17,-252.85
14:34:17.015625,-264.54
14:34:17.031250,-270.88
14:34:17.046875,-273.11
14:34:17.062500,-272.90
14:34:17.078125,-271.74
14:34:17.093750,-270.57
14:34:17.109375,-269.69
14:34:17.125000,-268.80
14:34:17.140625,-266.98
14:34:17.156250,-262.77
14:34:17.171875,-254.25
14:34:17.187500,-239.50
14:34:17.203125,-217.14
14:34:17.218750,-186.96
14:34:17.234375,-150.08
14:34:17.250000,-108.77
14:34:17.265625,-65.65
14:34:17.281250,-22.79
14:34:17.296875,19.05
14:34:17.312500,60.56
14:34:17.328125,103.14
14:34:17.343750,147.71
14:34:17.359375,193.57
14:34:17.375000,237.86
14:34:17.390625,276.26
14:34:17.406250,304.28
14:34:17.421875,318.81
14:34:17.437500,319.07
14:34:17.453125,306.80
14:34:17.468750,285.46
14:34:17.484375,259.33
14:34:17.500000,232.27
14:34:17.515625,207.17
14:34:17.531250,185.66
14:34:17.546875,168.24
14:34:17.562500,154.43
14:34:17.578125,142.89
14:34:17.593750,131.61
14:34:17.609375,118.05
14:34:17.625000,99.59
14:34:17.640625,73.91
14:34:17.656250,39.61
14:34:17.671875,-3.36
14:34:17.687500,-53.30
14:34:17.703125,-106.87
14:34:17.718750,-159.82
14:34:17.734375,-208.14
14:34:17.750000,-249.09
14:34:17.765625,-281.53
14:34:17.781250,-305.57
14:34:17.796875,-321.67
14:34:17.812500,-329.93
14:34:17.828125,-329.88
14:34:17.843750,-320.95
14:34:17.859375,-303.23
14:34:17.875000,-277.89
14:34:17.890625,-247.10
14:34:17.906250,-213.55
14:34:17.921875,-179.79
14:34:17.937500,-147.81
14:34:17.953125,-118.77
14:34:17.968750,-92.97
14:34:17.984375,-69.76
14:34:18,-47.56
14:34:18.015625,-24.22
14:34:18.031250,2.31
14:34:18.046875,33.03
14:34:18.062500,67.35
14:34:18.078125,103.18
14:34:18.093750,137.55
14:34:18.109375,167.62
14:34:18.125000,191.30
14:34:18.140625,207.57
14:34:18.156250,216.48
14:34:18.171875,219.04
14:34:18.187500,217.06
14:34:18.203125,212.98
14:34:18.218750,209.46
14:34:18.234375,208.64
14:34:18.250000,211.52
14:34:18.265625,217.64
14:34:18.281250,225.46
14:34:18.296875,233.08
14:34:18.312500,239.13
14:34:18.328125,243.22
14:34:18.343750,245.71
14:34:18.359375,247.13
14:34:18.375000,247.49
14:34:18.390625,245.94
14:34:18.406250,241.14
14:34:18.421875,231.89
14:34:18.437500,217.93
14:34:18.453125,200.18
14:34:18.468750,180.48
14:34:18.484375,161.04
14:34:18.500000,143.73
14:34:18.515625,129.52
14:34:18.531250,118.41
14:34:18.546875,109.54
14:34:18.562500,101.35
14:34:18.578125,91.97
14:34:18.593750,79.45
14:34:18.609375,62.16
14:34:18.625000,39.22
14:34:18.640625,10.83
14:34:18.656250,-21.66
14:34:18.671875,-56.03
14:34:18.687500,-89.84
14:34:18.703125,-121.06
14:34:18.718750,-148.49
14:34:18.734375,-171.77
14:34:18.750000,-191.03
14:34:18.765625,-206.46
14:34:18.781250,-217.95
14:34:18.796875,-225.16
14:34:18.812500,-227.77
14:34:18.828125,-225.81
14:34:18.843750,-219.90
14:34:18.859375,-211.13
14:34:18.875000,-200.71
14:34:18.890625,-189.55
14:34:18.906250,-178.00
14:34:18.921875,-165.81
14:34:18.937500,-152.46
14:34:18.953125,-137.62
14:34:18.968750,-121.56
14:34:18.984375,-105.18
14:34:19,-89.68
14:34:19.015625,-75.99
14:34:19.031250,-64.13
14:34:19.046875,-53.13
14:34:19.062500,-41.42
14:34:19.078125,-27.72
14:34:19.093750,-11.80
14:34:19.109375,5.07
14:34:19.125000,20.61
14:34:19.140625,32.50
14:34:19.156250,39.39
14:34:19.171875,41.50
14:34:19.187500,40.36
14:34:19.203125,38.05
14:34:19.218750,36.14
14:34:19.234375,35.05
14:34:19.250000,34.07
14:34:19.265625,31.86
14:34:19.281250,27.20
14:34:19.296875,19.44
14:34:19.312500,8.71
14:34:19.328125,-4.18
14:34:19.343750,-18.05
14:34:19.359375,-31.49
14:34:19.375000,-43.17
14:34:19.390625,-51.91
14:34:19.406250,-57.02
14:34:19.421875,-58.38
14:34:19.437500,-56.52
14:34:19.453125,-52.41
14:34:19.468750,-47.13
14:34:19.484375,-41.48
14:34:19.500000,-35.76
14:34:19.515625,-29.92
14:34:19.531250,-23.80
14:34:19.546875,-17.45
14:34:19.562500,-11.25
14:34:19.578125,-5.84
14:34:19.593750,-1.84
14:34:19.609375,0.50
14:34:19.625000,1.37
14:34:19.640625,1.36
14:34:19.656250,1.18
14:34:19.671875,1.41
14:34:19.687500,2.34
14:34:19.703125,4.00
14:34:19.718750,6.23
14:34:19.734375,8.75
14:34:19.750000,11.25
14:34:19.765625,13.34
14:34:19.781250,14.51
14:34:19.796875,14.32
14:34:19.812500,12.58
14:34:19.828125,9.48
14:34:19.843750,5.64
14:34:19.859375,2.06
14:34:19.875000,-0.32
14:34:19.890625,-0.81
14:34:19.906250,0.76
14:34:19.921875,3.94
14:34:19.937500,7.85
14:34:19.953125,11.37
14:34:19.968750,13.49
14:34:19.984375,13.58
14:34:20,11.57
14:34:20.015625,7.91
14:34:20.031250,3.31
14:34:20.046875,-1.56
14:34:20.062500,-6.27
14:34:20.078125,-10.72
14:34:20.093750,-14.91
14:34:20.109375,-18.87
14:34:20.125000,-22.52
14:34:20.140625,-25.76
14:34:20.156250,-28.57
14:34:20.171875,-31.04
14:34:20.187500,-33.20
14:34:20.203125,-34.93
14:34:20.218750,-35.86
14:34:20.234375,-35.58
14:34:20.250000,-33.83
14:34:20.265625,-30.68
14:34:20.281250,-26.58
14:34:20.296875,-22.13
14:34:20.312500,-17.78
14:34:20.328125,-13.59
