18:41:58,-0.00
18:41:58.015625,-0.00
18:41:58.031250,-0.00
18:41:58.046875,-0.00
18:41:58.062500,-0.00
18:41:58.078125,-0.00
18:41:58.093750,-0.00
18:41:58.109375,-0.00
18:41:58.125000,-0.00
18:41:58.140625,-0.01
18:41:58.156250,-0.00
18:41:58.171875,0.00
18:41:58.187500,0.01
18:41:58.203125,0.01
18:41:58.218750,-0.00
18:41:58.234375,-0.03
18:41:58.250000,-0.05
18:41:58.265625,-0.05
18:41:58.281250,-0.00
18:41:58.296875,0.13
18:41:58.312500,0.36
18:41:58.328125,0.66
18:41:58.343750,1.01
18:41:58.359375,1.37
18:41:58.375000,1.72
18:41:58.390625,2.06
18:41:58.406250,2.40
18:41:58.421875,2.77
18:41:58.437500,3.24
18:41:58.453125,3.80
18:41:58.468750,4.42
18:41:58.484375,5.06
18:41:58.500000,5.66
18:41:58.515625,6.20
18:41:58.531250,6.68
18:41:58.546875,7.15
18:41:58.562500,7.64
18:41:58.578125,8.31
18:41:58.593750,9.14
18:41:58.609375,10.09
18:41:58.625000,11.04
18:41:58.640625,11.88
18:41:58.656250,12.56
18:41:58.671875,13.14
18:41:58.687500,13.76
18:41:58.703125,14.58
18:41:58.718750,15.96
18:41:58.734375,17.91
18:41:58.750000,20.32
18:41:58.765625,22.90
18:41:58.781250,25.38
18:41:58.796875,27.58
18:41:58.812500,29.57
18:41:58.828125,31.68
18:41:58.843750,34.20
18:41:58.859375,37.81
18:41:58.875000,42.54
18:41:58.890625,48.15
18:41:58.906250,54.10
18:41:58.921875,59.83
18:41:58.937500,64.97
18:41:58.953125,69.58
18:41:58.968750,74.14
18:41:58.984375,79.19
18:41:59,85.71
18:41:59.015625,93.76
18:41:59.031250,103.00
18:41:59.046875,112.62
18:41:59.062500,121.73
18:41:59.078125,129.77
18:41:59.093750,136.75
18:41:59.109375,144.29
18:41:59.125000,150.58
18:41:59.140625,157.77
18:41:59.156250,166.64
18:41:59.171875,177.95
18:41:59.187500,191.79
18:41:59.203125,206.97
18:41:59.218750,220.57
18:41:59.234375,228.25
18:41:59.250000,225.36
18:41:59.265625,208.37
18:41:59.281250,176.87
18:41:59.296875,132.76
18:41:59.312500,80.05
18:41:59.328125,23.07
18:41:59.343750,-34.94
18:41:59.359375,-92.44
18:41:59.375000,-149.16
18:41:59.390625,-205.23
18:41:59.406250,-260.49
18:41:59.421875,-313.74
18:41:59.437500,-363.87
18:41:59.453125,-409.83
18:41:59.468750,-450.91
18:41:59.484375,-486.50
18:41:59.500000,-515.74
18:41:59.515625,-537.23
18:41:59.531250,-549.22
18:41:59.546875,-550.04
18:41:59.562500,-538.37
18:41:59.578125,-514.20
18:41:59.593750,-478.67
18:41:59.609375,-433.88
18:41:59.625000,-382.45
18:41:59.640625,-327.02
18:41:59.656250,-269.84
18:41:59.671875,-212.63
18:41:59.687500,-156.70
18:41:59.703125,-102.95
18:41:59.718750,-52.37
18:41:59.734375,-5.90
18:41:59.750000,35.58
18:41:59.765625,71.43
18:41:59.781250,101.35
18:41:59.796875,125.50
18:41:59.812500,144.38
18:41:59.828125,158.68
18:41:59.843750,169.15
18:41:59.859375,176.37
18:41:59.875000,180.75
18:41:59.890625,182.57
18:41:59.906250,182.07
18:41:59.921875,179.51
18:41:59.937500,175.23
18:41:59.953125,169.65
18:41:59.968750,163.18
18:41:59.984375,156.15
18:42:00,148.81
18:42:00.015625,141.30
18:42:00.031250,133.69
18:42:00.046875,126.02
18:42:00.062500,118.33
18:42:00.078125,110.69
18:42:00.093750,103.16
18:42:00.109375,95.80
18:42:00.125000,88.68
18:42:00.140625,81.83
18:42:00.156250,75.25
18:42:00.171875,68.95
18:42:00.187500,62.95
18:42:00.203125,57.25
18:42:00.218750,51.86
18:42:00.234375,46.78
18:42:00.250000,42.03
18:42:00.265625,37.59
18:42:00.281250,33.45
18:42:00.296875,29.61
18:42:00.312500,26.07
18:42:00.328125,22.81
18:42:00.343750,19.82
18:42:00.359375,17.11
18:42:00.375000,14.67
18:42:00.390625,12.48
18:42:00.406250,10.54
18:42:00.421875,8.83
18:42:00.437500,7.35
18:42:00.453125,6.07
18:42:00.468750,4.97
18:42:00.484375,4.05
18:42:00.500000,3.27
18:42:00.515625,2.62
18:42:00.531250,2.09
18:42:00.546875,1.65
18:42:00.562500,1.30
18:42:00.578125,1.01
18:42:00.593750,0.79
18:42:00.609375,0.61
18:42:00.625000,0.47
18:42:00.640625,0.37
18:42:00.656250,0.29
18:42:00.671875,0.23
18:42:00.687500,0.19
18:42:00.703125,0.16
18:42:00.718750,0.14
18:42:00.734375,0.14
18:42:00.750000,0.14
18:42:00.765625,0.16
18:42:00.781250,0.18
18:42:00.796875,0.20
18:42:00.812500,0.23
18:42:00.828125,0.27
18:42:00.843750,0.31
18:42:00.859375,0.35
18:42:00.875000,0.40
18:42:00.890625,0.44
18:42:00.906250,0.49
18:42:00.921875,0.54
18:42:00.937500,0.59
18:42:00.953125,0.64
18:42:00.968750,0.70
18:42:00.984375,0.75
18:42:01,0.82
18:42:01.015625,0.89
18:42:01.031250,0.96
18:42:01.046875,1.05
18:42:01.062500,1.14
18:42:01.078125,1.25
18:42:01.093750,1.36
18:42:01.109375,1.50
18:42:01.125000,1.64
18:42:01.140625,1.81
18:42:01.156250,1.99
18:42:01.171875,2.20
18:42:01.187500,2.42
18:42:01.203125,2.67
18:42:01.218750,2.95
18:42:01.234375,3.26
18:42:01.250000,3.59
18:42:01.265625,3.96
18:42:01.281250,4.36
18:42:01.296875,4.79
18:42:01.312500,5.26
18:42:01.328125,5.77
18:42:01.343750,6.33
18:42:01.359375,6.94
18:42:01.375000,7.59
18:42:01.390625,8.26
18:42:01.406250,8.94
18:42:01.421875,9.61
18:42:01.437500,10.29
18:42:01.453125,11.01
18:42:01.468750,11.78
18:42:01.484375,12.65
18:42:01.500000,13.61
18:42:01.515625,14.68
18:42:01.531250,15.80
18:42:01.546875,16.95
18:42:01.562500,18.09
18:42:01.578125,19.23
18:42:01.593750,20.34
18:42:01.609375,21.42
18:42:01.625000,22.40
18:42:01.640625,23.19
18:42:01.656250,23.64
18:42:01.671875,23.53
18:42:01.687500,22.73
18:42:01.703125,21.10
18:42:01.718750,18.62
18:42:01.734375,15.39
18:42:01.750000,11.57
18:42:01.765625,7.33
18:42:01.781250,2.85
18:42:01.796875,-1.75
18:42:01.812500,-6.41
18:42:01.828125,-11.08
18:42:01.843750,-15.65
18:42:01.859375,-19.92
18:42:01.875000,-23.58
18:42:01.890625,-26.34
18:42:01.906250,-28.02
18:42:01.921875,-28.65
18:42:01.937500,-28.52
18:42:01.953125,-28.08
18:42:01.968750,-27.80
18:42:01.984375,-27.97
18:42:02,-28.56
18:42:02.015625,-29.26
18:42:02.031250,-29.65
18:42:02.046875,-29.35
18:42:02.062500,-28.35
18:42:02.078125,-26.99
18:42:02.093750,-25.90
18:42:02.109375,-25.66
18:42:02.125000,-26.60
18:42:02.140625,-28.53
18:42:02.156250,-30.83
18:42:02.171875,-32.78
18:42:02.187500,-33.82
18:42:02.203125,-33.80
18:42:02.218750,-33.10
18:42:02.234375,-32.37
18:42:02.250000,-32.31
18:42:02.265625,-33.48
18:42:02.281250,-36.26
18:42:02.296875,-40.75
18:42:02.312500,-46.53
18:42:02.328125,-52.32
18:42:02.343750,-56.02
18:42:02.359375,-55.09
18:42:02.375000,-47.66
18:42:02.390625,-33.48
18:42:02.406250,-14.46
18:42:02.421875,5.81
18:42:02.437500,23.43
18:42:02.453125,35.61
18:42:02.468750,41.70
18:42:02.484375,42.94
18:42:02.500000,41.49
18:42:02.515625,39.25
18:42:02.531250,37.08
18:42:02.546875,34.92
18:42:02.562500,32.42
18:42:02.578125,29.56
18:42:02.593750,26.82
18:42:02.609375,24.89
18:42:02.625000,24.16
18:42:02.640625,24.33
18:42:02.656250,24.63
18:42:02.671875,24.07
18:42:02.687500,22.05
18:42:02.703125,18.67
18:42:02.718750,14.68
18:42:02.734375,11.08
18:42:02.750000,8.67
18:42:02.765625,7.67
18:42:02.781250,7.71
18:42:02.796875,8.07
18:42:02.812500,8.00
18:42:02.828125,7.18
18:42:02.843750,5.75
18:42:02.859375,4.20
18:42:02.875000,3.11
18:42:02.890625,2.78
18:42:02.906250,3.19
18:42:02.921875,4.05
18:42:02.937500,5.02
18:42:02.953125,5.78
18:42:02.968750,6.18
18:42:02.984375,6.20
18:42:03,5.87
18:42:03.015625,5.23
18:42:03.031250,4.39
18:42:03.046875,3.45
18:42:03.062500,2.51
18:42:03.078125,1.63
18:42:03.093750,0.84
18:42:03.109375,0.09
18:42:03.125000,-0.60
18:42:03.140625,-1.22
18:42:03.156250,-1.71
18:42:03.171875,-2.02
18:42:03.187500,-2.17
18:42:03.203125,-2.26
18:42:03.218750,-2.46
18:42:03.234375,-2.89
18:42:03.250000,-3.59
18:42:03.265625,-4.43
18:42:03.281250,-5.15
18:42:03.296875,-5.49
18:42:03.312500,-5.29
18:42:03.328125,-4.49
18:42:03.343750,-3.22
18:42:03.359375,-1.66
18:42:03.375000,-0.02
18:42:03.390625,1.59
18:42:03.406250,3.13
18:42:03.421875,4.61
18:42:03.437500,6.05
18:42:03.453125,7.45
18:42:03.468750,8.82
18:42:03.484375,10.16
18:42:03.500000,11.47
18:42:03.515625,12.79
18:42:03.531250,14.11
18:42:03.546875,15.34
18:42:03.562500,16.30
18:42:03.578125,16.77
18:42:03.593750,16.55
18:42:03.609375,15.53
18:42:03.625000,13.81
18:42:03.640625,11.64
18:42:03.656250,9.39
18:42:03.671875,7.36
18:42:03.687500,5.73
18:42:03.703125,4.48
18:42:03.718750,3.45
18:42:03.734375,2.46
18:42:03.750000,1.34
18:42:03.765625,0.07
18:42:03.781250,-1.33
18:42:03.796875,-2.79
18:42:03.812500,-4.27
18:42:03.828125,-5.76
18:42:03.843750,-7.21
18:42:03.859375,-8.55
18:42:03.875000,-9.65
18:42:03.890625,-10.34
18:42:03.906250,-10.56
18:42:03.921875,-10.31
18:42:03.937500,-9.77
18:42:03.953125,-9.15
18:42:03.968750,-8.68
18:42:03.984375,-8.45
18:42:04,-8.48
18:42:04.015625,-8.64
18:42:04.031250,-8.81
18:42:04.046875,-8.91
18:42:04.062500,-9.00
18:42:04.078125,-9.21
18:42:04.093750,-9.70
18:42:04.109375,-10.50
18:42:04.125000,-11.55
18:42:04.140625,-12.68
18:42:04.156250,-13.71
18:42:04.171875,-14.50
18:42:04.187500,-14.97
18:42:04.203125,-15.10
18:42:04.218750,-14.86
18:42:04.234375,-14.26
18:42:04.250000,-13.31
18:42:04.265625,-12.09
18:42:04.281250,-10.72
18:42:04.296875,-9.29
18:42:04.312500,-7.87
18:42:04.328125,-6.43
18:42:04.343750,-4.93
18:42:04.359375,-3.36
18:42:04.375000,-1.83
18:42:04.390625,-0.50
18:42:04.406250,0.42
18:42:04.421875,0.88
18:42:04.437500,0.96
18:42:04.453125,0.91
18:42:04.468750,0.96
18:42:04.484375,1.30
18:42:04.500000,1.93
18:42:04.515625,2.68
18:42:04.531250,3.32
18:42:04.546875,3.65
18:42:04.562500,3.60
18:42:04.578125,3.21
18:42:04.593750,2.59
18:42:04.609375,1.82
18:42:04.625000,0.98
18:42:04.640625,0.08
18:42:04.656250,-0.80
18:42:04.671875,-1.57
18:42:04.687500,-2.12
18:42:04.703125,-2.39
18:42:04.718750,-2.42
18:42:04.734375,-2.29
18:42:04.750000,-2.14
18:42:04.765625,-2.06
18:42:04.781250,-2.04
18:42:04.796875,-2.06
18:42:04.812500,-2.04
18:42:04.828125,-1.95
18:42:04.843750,-1.77
18:42:04.859375,-1.52
18:42:04.875000,-1.19
18:42:04.890625,-0.79
18:42:04.906250,-0.35
18:42:04.921875,0.04
18:42:04.937500,0.27
18:42:04.953125,0.25
18:42:04.968750,-0.06
18:42:04.984375,-0.56
18:42:05,-1.08
18:42:05.015625,-1.44
18:42:05.031250,-1.54
18:42:05.046875,-1.40
18:42:05.062500,-1.17
18:42:05.078125,-1.05
18:42:05.093750,-1.19
18:42:05.109375,-1.68
18:42:05.125000,-2.51
18:42:05.140625,-3.60
18:42:05.156250,-4.85
18:42:05.171875,-6.17
18:42:05.187500,-7.39
18:42:05.203125,-8.27
18:42:05.218750,-8.55
18:42:05.234375,-8.01
18:42:05.250000,-6.59
18:42:05.265625,-4.45
18:42:05.281250,-1.95
18:42:05.296875,0.49
18:42:05.312500,2.50
18:42:05.328125,3.96
18:42:05.343750,4.92
18:42:05.359375,5.62
18:42:05.375000,6.29
18:42:05.390625,7.13
18:42:05.406250,8.14
18:42:05.421875,9.25
18:42:05.437500,10.30
18:42:05.453125,11.19
18:42:05.468750,11.85
18:42:05.484375,12.28
18:42:05.500000,12.46
18:42:05.515625,12.34
18:42:05.531250,11.92
18:42:05.546875,11.20
18:42:05.562500,10.29
18:42:05.578125,9.40
18:42:05.593750,8.73
18:42:05.609375,8.44
18:42:05.625000,8.57
18:42:05.640625,9.02
18:42:05.656250,9.64
18:42:05.671875,10.22
18:42:05.687500,10.67
18:42:05.703125,10.91
18:42:05.718750,10.96
18:42:05.734375,10.84
18:42:05.750000,10.61
18:42:05.765625,10.30
18:42:05.781250,9.88
18:42:05.796875,9.35
18:42:05.812500,8.66
18:42:05.828125,7.85
18:42:05.843750,6.94
18:42:05.859375,6.01
18:42:05.875000,5.09
18:42:05.890625,4.15
18:42:05.906250,3.14
18:42:05.921875,1.97
18:42:05.937500,0.63
18:42:05.953125,-0.87
18:42:05.968750,-2.45
18:42:05.984375,-4.07
18:42:06,-5.63
18:42:06.015625,-7.10
18:42:06.031250,-8.47
18:42:06.046875,-9.71
18:42:06.062500,-10.81
18:42:06.078125,-11.81
18:42:06.093750,-12.75
18:42:06.109375,-13.69
18:42:06.125000,-14.67
18:42:06.140625,-15.69
18:42:06.156250,-16.71
18:42:06.171875,-17.62
18:42:06.187500,-18.25
18:42:06.203125,-18.41
18:42:06.218750,-17.95
18:42:06.234375,-16.78
18:42:06.250000,-14.98
18:42:06.265625,-12.74
18:42:06.281250,-10.34
18:42:06.296875,-8.04
18:42:06.312500,-5.99
18:42:06.328125,-4.18
18:42:06.343750,-2.51
18:42:06.359375,-0.91
18:42:06.375000,0.63
18:42:06.390625,1.98
18:42:06.406250,2.98
18:42:06.421875,3.61
18:42:06.437500,3.97
18:42:06.453125,4.30
18:42:06.468750,4.87
18:42:06.484375,5.75
18:42:06.500000,6.81
18:42:06.515625,7.77
18:42:06.531250,8.39
18:42:06.546875,8.53
18:42:06.562500,8.29
18:42:06.578125,7.83
18:42:06.593750,7.33
18:42:06.609375,6.87
18:42:06.625000,6.42
18:42:06.640625,5.95
18:42:06.656250,5.48
18:42:06.671875,5.10
18:42:06.687500,4.89
18:42:06.703125,4.85
18:42:06.718750,4.82
18:42:06.734375,4.56
18:42:06.750000,3.92
18:42:06.765625,2.91
18:42:06.781250,1.79
18:42:06.796875,0.94
18:42:06.812500,0.68
18:42:06.828125,1.14
18:42:06.843750,2.19
18:42:06.859375,3.49
18:42:06.875000,4.66
18:42:06.890625,5.42
18:42:06.906250,5.64
18:42:06.921875,5.38
18:42:06.937500,4.73
18:42:06.953125,3.80
18:42:06.968750,2.66
18:42:06.984375,1.37
18:42:07,-0.00
18:42:07.015625,-1.40
18:42:07.031250,-2.73
18:42:07.046875,-3.97
18:42:07.062500,-5.10
18:42:07.078125,-6.09
18:42:07.093750,-6.90
18:42:07.109375,-7.45
18:42:07.125000,-7.63
18:42:07.140625,-7.32
18:42:07.156250,-6.52
18:42:07.171875,-5.30
18:42:07.187500,-3.80
18:42:07.203125,-2.20
18:42:07.218750,-0.63
18:42:07.234375,0.82
18:42:07.250000,2.07
18:42:07.265625,3.05
18:42:07.281250,3.68
18:42:07.296875,3.98
18:42:07.312500,4.04
18:42:07.328125,4.06
18:42:07.343750,4.22
18:42:07.359375,4.61
18:42:07.375000,5.18
18:42:07.390625,5.76
18:42:07.406250,6.16
18:42:07.421875,6.26
18:42:07.437500,6.08
18:42:07.453125,5.73
18:42:07.468750,5.34
18:42:07.484375,5.01
18:42:07.500000,4.77
18:42:07.515625,4.62
18:42:07.531250,4.59
18:42:07.546875,4.71
18:42:07.562500,4.99
18:42:07.578125,5.41
18:42:07.593750,5.87
18:42:07.609375,6.29
18:42:07.625000,6.62
18:42:07.640625,6.93
18:42:07.656250,7.31
18:42:07.671875,7.87
18:42:07.687500,8.70
18:42:07.703125,9.81
18:42:07.718750,11.12
18:42:07.734375,12.56
18:42:07.750000,14.03
18:42:07.765625,15.45
18:42:07.781250,16.77
18:42:07.796875,17.94
18:42:07.812500,18.89
18:42:07.828125,19.55
18:42:07.843750,19.83
18:42:07.859375,19.68
18:42:07.875000,19.05
18:42:07.890625,17.97
18:42:07.906250,16.51
18:42:07.921875,14.82
18:42:07.937500,12.98
18:42:07.953125,11.09
18:42:07.968750,9.17
18:42:07.984375,7.18
18:42:08,5.07
18:42:08.015625,2.78
18:42:08.031250,0.36
18:42:08.046875,-2.11
18:42:08.062500,-4.43
18:42:08.078125,-6.42
18:42:08.093750,-7.95
18:42:08.109375,-9.00
18:42:08.125000,-9.67
18:42:08.140625,-10.12
18:42:08.156250,-10.48
18:42:08.171875,-10.84
18:42:08.187500,-11.21
18:42:08.203125,-11.55
18:42:08.218750,-11.80
18:42:08.234375,-11.97
18:42:08.250000,-12.03
18:42:08.265625,-11.96
18:42:08.281250,-11.70
18:42:08.296875,-11.23
18:42:08.312500,-10.54
18:42:08.328125,-9.73
18:42:08.343750,-8.90
18:42:08.359375,-8.19
18:42:08.375000,-7.68
18:42:08.390625,-7.36
18:42:08.406250,-7.24
18:42:08.421875,-7.26
18:42:08.437500,-7.39
18:42:08.453125,-7.55
18:42:08.468750,-7.68
18:42:08.484375,-7.69
18:42:08.500000,-7.56
18:42:08.515625,-7.29
18:42:08.531250,-6.97
18:42:08.546875,-6.67
18:42:08.562500,-6.42
18:42:08.578125,-6.15
18:42:08.593750,-5.76
18:42:08.609375,-5.20
18:42:08.625000,-4.52
18:42:08.640625,-3.86
18:42:08.656250,-3.37
18:42:08.671875,-3.13
18:42:08.687500,-3.15
18:42:08.703125,-3.36
18:42:08.718750,-3.66
18:42:08.734375,-4.03
18:42:08.750000,-4.46
18:42:08.765625,-4.95
18:42:08.781250,-5.47
18:42:08.796875,-6.00
18:42:08.812500,-6.52
18:42:08.828125,-7.08
18:42:08.843750,-7.74
18:42:08.859375,-8.53
18:42:08.875000,-9.36
18:42:08.890625,-10.02
18:42:08.906250,-10.30
18:42:08.921875,-10.11
18:42:08.937500,-9.50
18:42:08.953125,-8.69
18:42:08.968750,-7.89
18:42:08.984375,-7.25
18:42:09,-6.72
18:42:09.015625,-6.17
18:42:09.031250,-5.47
18:42:09.046875,-4.58
18:42:09.062500,-3.55
18:42:09.078125,-2.53
18:42:09.093750,-1.56
18:42:09.109375,-0.65
18:42:09.125000,0.31
18:42:09.140625,1.41
18:42:09.156250,2.68
18:42:09.171875,4.02
18:42:09.187500,5.26
18:42:09.203125,6.26
18:42:09.218750,6.98
18:42:09.234375,7.48
18:42:09.250000,7.88
18:42:09.265625,8.26
18:42:09.281250,8.64
18:42:09.296875,8.96
18:42:09.312500,9.11
18:42:09.328125,9.05
18:42:09.343750,8.75
18:42:09.359375,8.29
18:42:09.375000,7.75
18:42:09.390625,7.17
18:42:09.406250,6.59
18:42:09.421875,6.05
18:42:09.437500,5.58
18:42:09.453125,5.26
18:42:09.468750,5.15
18:42:09.484375,5.28
18:42:09.500000,5.64
18:42:09.515625,6.17
18:42:09.531250,6.80
18:42:09.546875,7.48
18:42:09.562500,8.15
18:42:09.578125,8.79
18:42:09.593750,9.32
18:42:09.609375,9.62
18:42:09.625000,9.58
18:42:09.640625,9.06
18:42:09.656250,7.95
18:42:09.671875,6.22
18:42:09.687500,3.94
18:42:09.703125,1.27
18:42:09.718750,-1.57
18:42:09.734375,-4.43
18:42:09.750000,-7.22
18:42:09.765625,-9.97
18:42:09.781250,-12.75
18:42:09.796875,-15.64
18:42:09.812500,-18.62
18:42:09.828125,-21.58
18:42:09.843750,-24.32
18:42:09.859375,-26.60
18:42:09.875000,-28.19
18:42:09.890625,-28.95
18:42:09.906250,-28.87
18:42:09.921875,-28.04
18:42:09.937500,-26.63
18:42:09.953125,-24.77
18:42:09.968750,-22.53
18:42:09.984375,-19.93
18:42:10,-17.03
18:42:10.015625,-13.97
18:42:10.031250,-11.02
18:42:10.046875,-8.47
18:42:10.062500,-6.51
18:42:10.078125,-5.12
18:42:10.093750,-4.11
18:42:10.109375,-3.22
18:42:10.125000,-2.27
18:42:10.140625,-1.26
18:42:10.156250,-0.28
18:42:10.171875,0.61
18:42:10.187500,1.42
18:42:10.203125,2.26
18:42:10.218750,3.24
18:42:10.234375,4.36
18:42:10.250000,5.46
18:42:10.265625,6.28
18:42:10.281250,6.53
18:42:10.296875,6.09
18:42:10.312500,4.95
18:42:10.328125,3.30
18:42:10.343750,1.39
18:42:10.359375,-0.52
18:42:10.375000,-2.28
18:42:10.390625,-3.85
18:42:10.406250,-5.26
18:42:10.421875,-6.61
18:42:10.437500,-7.92
18:42:10.453125,-9.16
18:42:10.468750,-10.30
18:42:10.484375,-11.30
18:42:10.500000,-12.24
18:42:10.515625,-13.24
18:42:10.531250,-14.44
18:42:10.546875,-15.96
18:42:10.562500,-17.88
18:42:10.578125,-20.20
18:42:10.593750,-22.89
18:42:10.609375,-25.91
18:42:10.625000,-29.18
18:42:10.640625,-32.61
18:42:10.656250,-36.09
18:42:10.671875,-39.57
18:42:10.687500,-43.04
18:42:10.703125,-46.58
18:42:10.718750,-50.34
18:42:10.734375,-54.44
18:42:10.750000,-58.91
18:42:10.765625,-63.62
18:42:10.781250,-68.30
18:42:10.796875,-72.50
18:42:10.812500,-75.64
18:42:10.828125,-77.12
18:42:10.843750,-76.33
18:42:10.859375,-72.77
18:42:10.875000,-66.22
18:42:10.890625,-56.70
18:42:10.906250,-44.56
18:42:10.921875,-30.41
18:42:10.937500,-14.95
18:42:10.953125,1.10
18:42:10.968750,17.07
18:42:10.984375,32.44
18:42:11,46.72
18:42:11.015625,59.42
18:42:11.031250,70.14
18:42:11.046875,78.56
18:42:11.062500,84.50
18:42:11.078125,88.06
18:42:11.093750,89.56
18:42:11.109375,89.43
18:42:11.125000,88.14
18:42:11.140625,86.02
18:42:11.156250,83.25
18:42:11.171875,79.90
18:42:11.187500,76.07
18:42:11.203125,71.96
18:42:11.218750,67.87
18:42:11.234375,64.09
18:42:11.250000,60.79
18:42:11.265625,57.92
18:42:11.281250,55.28
18:42:11.296875,52.64
18:42:11.312500,49.88
18:42:11.328125,47.00
18:42:11.343750,44.09
18:42:11.359375,41.23
18:42:11.375000,38.47
18:42:11.390625,35.87
18:42:11.406250,33.46
18:42:11.421875,31.36
18:42:11.437500,29.66
18:42:11.453125,28.41
18:42:11.468750,27.55
18:42:11.484375,26.94
18:42:11.500000,26.40
18:42:11.515625,25.79
18:42:11.531250,25.02
18:42:11.546875,24.02
18:42:11.562500,22.73
18:42:11.578125,21.12
18:42:11.593750,19.23
18:42:11.609375,17.17
18:42:11.625000,15.12
18:42:11.640625,13.20
18:42:11.656250,11.39
18:42:11.671875,9.54
18:42:11.687500,7.43
18:42:11.703125,4.88
18:42:11.718750,1.85
18:42:11.734375,-1.48
18:42:11.750000,-4.85
18:42:11.765625,-7.98
18:42:11.781250,-10.74
18:42:11.796875,-13.10
18:42:11.812500,-15.20
18:42:11.828125,-17.14
18:42:11.843750,-18.97
18:42:11.859375,-20.65
18:42:11.875000,-22.08
18:42:11.890625,-23.21
18:42:11.906250,-24.03
18:42:11.921875,-24.60
18:42:11.937500,-24.93
18:42:11.953125,-24.98
18:42:11.968750,-24.58
18:42:11.984375,-23.59
18:42:12,-21.99
18:42:12.015625,-19.96
18:42:12.031250,-17.83
18:42:12.046875,-15.97
18:42:12.062500,-14.56
18:42:12.078125,-13.55
18:42:12.093750,-12.72
18:42:12.109375,-11.77
18:42:12.125000,-10.55
18:42:12.140625,-9.07
18:42:12.156250,-7.52
18:42:12.171875,-6.09
18:42:12.187500,-4.86
18:42:12.203125,-3.82
18:42:12.218750,-2.90
18:42:12.234375,-2.05
18:42:12.250000,-1.28
18:42:12.265625,-0.64
18:42:12.281250,-0.19
18:42:12.296875,0.10
18:42:12.312500,0.30
18:42:12.328125,0.55
18:42:12.343750,0.89
18:42:12.359375,1.33
18:42:12.375000,1.75
18:42:12.390625,2.05
18:42:12.406250,2.18
18:42:12.421875,2.17
18:42:12.437500,2.13
18:42:12.453125,2.14
18:42:12.468750,2.23
18:42:12.484375,2.35
18:42:12.500000,2.39
18:42:12.515625,2.23
18:42:12.531250,1.82
18:42:12.546875,1.15
18:42:12.562500,0.28
18:42:12.578125,-0.74
18:42:12.593750,-1.84
18:42:12.609375,-2.94
18:42:12.625000,-3.96
18:42:12.640625,-4.88
18:42:12.656250,-5.72
18:42:12.671875,-6.59
18:42:12.687500,-7.64
18:42:12.703125,-8.91
18:42:12.718750,-10.34
18:42:12.734375,-11.64
18:42:12.750000,-12.47
18:42:12.765625,-12.54
18:42:12.781250,-11.76
18:42:12.796875,-10.29
18:42:12.812500,-8.44
18:42:12.828125,-6.56
18:42:12.843750,-4.87
18:42:12.859375,-3.45
18:42:12.875000,-2.22
18:42:12.890625,-1.06
18:42:12.906250,0.13
18:42:12.921875,1.37
18:42:12.937500,2.60
18:42:12.953125,3.76
18:42:12.968750,4.79
18:42:12.984375,5.70
18:42:13,6.47
18:42:13.015625,7.13
18:42:13.031250,7.70
18:42:13.046875,8.16
18:42:13.062500,8.51
18:42:13.078125,8.79
18:42:13.093750,9.01
18:42:13.109375,9.23
18:42:13.125000,9.48
18:42:13.140625,9.77
18:42:13.156250,10.06
18:42:13.171875,10.28
18:42:13.187500,10.36
18:42:13.203125,10.23
18:42:13.218750,9.92
18:42:13.234375,9.52
18:42:13.250000,9.10
18:42:13.265625,8.75
18:42:13.281250,8.48
18:42:13.296875,8.23
18:42:13.312500,7.94
18:42:13.328125,7.53
18:42:13.343750,6.97
18:42:13.359375,6.27
18:42:13.375000,5.50
18:42:13.390625,4.73
18:42:13.406250,4.04
18:42:13.421875,3.49
18:42:13.437500,3.09
18:42:13.453125,2.83
18:42:13.468750,2.62
18:42:13.484375,2.38
18:42:13.500000,2.04
18:42:13.515625,1.52
18:42:13.531250,0.80
18:42:13.546875,-0.13
18:42:13.562500,-1.23
18:42:13.578125,-2.44
18:42:13.593750,-3.67
18:42:13.609375,-4.83
18:42:13.625000,-5.85
18:42:13.640625,-6.69
18:42:13.656250,-7.37
18:42:13.671875,-7.97
18:42:13.687500,-8.62
18:42:13.703125,-9.45
18:42:13.718750,-10.55
18:42:13.734375,-11.90
18:42:13.750000,-13.35
18:42:13.765625,-14.63
18:42:13.781250,-15.39
18:42:13.796875,-15.35
18:42:13.812500,-14.38
18:42:13.828125,-12.59
18:42:13.843750,-10.28
18:42:13.859375,-7.88
18:42:13.875000,-5.76
18:42:13.890625,-4.18
18:42:13.906250,-3.16
18:42:13.921875,-2.58
18:42:13.937500,-2.20
18:42:13.953125,-1.78
18:42:13.968750,-1.10
18:42:13.984375,-0.03
18:42:14,1.48
18:42:14.015625,3.44
18:42:14.031250,5.79
18:42:14.046875,8.46
18:42:14.062500,11.34
18:42:14.078125,14.33
18:42:14.093750,17.38
18:42:14.109375,20.45
18:42:14.125000,23.54
18:42:14.140625,26.68
18:42:14.156250,29.87
18:42:14.171875,33.13
18:42:14.187500,36.50
18:42:14.203125,39.98
18:42:14.218750,43.55
18:42:14.234375,47.15
18:42:14.250000,50.65
18:42:14.265625,53.93
18:42:14.281250,56.90
18:42:14.296875,59.54
18:42:14.312500,61.92
18:42:14.328125,64.20
18:42:14.343750,66.49
18:42:14.359375,68.80
18:42:14.375000,70.98
18:42:14.390625,72.76
18:42:14.406250,73.82
18:42:14.421875,73.98
18:42:14.437500,73.25
18:42:14.453125,71.85
18:42:14.468750,70.14
18:42:14.484375,68.40
18:42:14.500000,66.76
18:42:14.515625,65.15
18:42:14.531250,63.32
18:42:14.546875,61.02
18:42:14.562500,58.05
18:42:14.578125,54.41
18:42:14.593750,50.19
18:42:14.609375,45.52
18:42:14.625000,40.49
18:42:14.640625,35.13
18:42:14.656250,29.42
18:42:14.671875,23.33
18:42:14.687500,16.82
18:42:14.703125,9.93
18:42:14.718750,2.64
18:42:14.734375,-4.96
18:42:14.750000,-12.77
18:42:14.765625,-20.57
18:42:14.781250,-28.03
18:42:14.796875,-34.79
18:42:14.812500,-40.48
18:42:14.828125,-44.91
18:42:14.843750,-48.07
18:42:14.859375,-50.22
18:42:14.875000,-51.74
18:42:14.890625,-52.99
18:42:14.906250,-54.22
18:42:14.921875,-55.44
18:42:14.937500,-56.53
18:42:14.953125,-57.22
18:42:14.968750,-57.33
18:42:14.984375,-56.75
18:42:15,-55.55
18:42:15.015625,-53.89
18:42:15.031250,-51.93
18:42:15.046875,-49.83
18:42:15.062500,-47.66
18:42:15.078125,-45.44
18:42:15.093750,-43.12
18:42:15.109375,-40.66
18:42:15.125000,-38.03
18:42:15.140625,-35.23
18:42:15.156250,-32.35
18:42:15.171875,-29.55
18:42:15.187500,-27.06
18:42:15.203125,-25.07
18:42:15.218750,-23.69
18:42:15.234375,-22.89
18:42:15.250000,-22.54
18:42:15.265625,-22.46
18:42:15.281250,-22.54
18:42:15.296875,-22.74
18:42:15.312500,-23.00
18:42:15.328125,-23.29
18:42:15.343750,-23.47
18:42:15.359375,-23.40
18:42:15.375000,-22.92
18:42:15.390625,-21.95
18:42:15.406250,-20.57
18:42:15.421875,-18.97
18:42:15.437500,-17.37
18:42:15.453125,-15.97
18:42:15.468750,-14.83
18:42:15.484375,-13.87
18:42:15.500000,-12.89
18:42:15.515625,-11.65
18:42:15.531250,-10.10
18:42:15.546875,-8.38
18:42:15.562500,-6.89
18:42:15.578125,-6.06
18:42:15.593750,-6.21
18:42:15.609375,-7.28
18:42:15.625000,-8.84
18:42:15.640625,-10.24
18:42:15.656250,-10.89
18:42:15.671875,-10.54
18:42:15.687500,-9.45
18:42:15.703125,-8.22
18:42:15.718750,-7.56
18:42:15.734375,-7.88
18:42:15.750000,-9.06
18:42:15.765625,-10.40
18:42:15.781250,-10.81
18:42:15.796875,-9.29
18:42:15.812500,-5.34
18:42:15.828125,0.62
18:42:15.843750,7.38
18:42:15.859375,13.19
18:42:15.875000,16.58
18:42:15.890625,16.94
18:42:15.906250,14.74
18:42:15.921875,11.38
18:42:15.937500,8.53
18:42:15.953125,7.45
18:42:15.968750,8.54
18:42:15.984375,11.30
18:42:16,14.16
18:42:16.015625,14.52
18:42:16.031250,8.90
18:42:16.046875,-6.41
18:42:16.062500,-33.58
18:42:16.078125,-71.49
18:42:16.093750,-114.60
18:42:16.109375,-153.94
18:42:16.125000,-179.92
18:42:16.140625,-185.81
18:42:16.156250,-170.17
18:42:16.171875,-136.92
18:42:16.187500,-93.31
18:42:16.203125,-47.08
18:42:16.218750,-4.34
18:42:16.234375,31.15
18:42:16.250000,57.48
18:42:16.265625,74.02
18:42:16.281250,81.22
18:42:16.296875,80.83
18:42:16.312500,75.70
18:42:16.328125,68.91
18:42:16.343750,62.53
18:42:16.359375,56.58
18:42:16.375000,49.36
18:42:16.390625,38.72
18:42:16.406250,23.33
18:42:16.421875,3.52
18:42:16.437500,-19.02
18:42:16.453125,-42.03
18:42:16.468750,-63.40
18:42:16.484375,-81.26
18:42:16.500000,-94.02
18:42:16.515625,-100.43
18:42:16.531250,-99.95
18:42:16.546875,-93.35
18:42:16.562500,-82.94
18:42:16.578125,-71.96
18:42:16.593750,-63.51
18:42:16.609375,-59.33
18:42:16.625000,-59.12
18:42:16.640625,-60.93
18:42:16.656250,-62.24
18:42:16.671875,-61.16
18:42:16.687500,-57.17
18:42:16.703125,-51.04
18:42:16.718750,-44.09
18:42:16.734375,-37.33
18:42:16.750000,-31.02
18:42:16.765625,-24.71
18:42:16.781250,-17.79
18:42:16.796875,-10.07
18:42:16.812500,-2.01
18:42:16.828125,5.50
18:42:16.843750,11.59
18:42:16.859375,16.02
18:42:16.875000,19.38
18:42:16.890625,22.84
18:42:16.906250,27.58
18:42:16.921875,34.22
18:42:16.937500,42.51
18:42:16.953125,51.42
18:42:16.968750,59.72
18:42:16.984375,66.41
18:42:17,71.05
18:42:17.015625,73.79
18:42:17.031250,74.99
18:42:17.046875,75.02
18:42:17.062500,74.10
18:42:17.078125,72.39
18:42:17.093750,70.14
18:42:17.109375,67.77
18:42:17.125000,65.81
18:42:17.140625,64.66
18:42:17.156250,64.48
18:42:17.171875,65.17
18:42:17.187500,66.45
18:42:17.203125,67.98
18:42:17.218750,69.46
18:42:17.234375,70.59
18:42:17.250000,71.08
18:42:17.265625,70.61
18:42:17.281250,69.03
18:42:17.296875,66.40
18:42:17.312500,63.10
18:42:17.328125,59.78
18:42:17.343750,57.03
18:42:17.359375,55.13
18:42:17.375000,53.81
18:42:17.390625,52.31
18:42:17.406250,49.68
18:42:17.421875,45.30
18:42:17.437500,39.15
18:42:17.453125,31.93
18:42:17.468750,24.77
18:42:17.484375,18.75
18:42:17.500000,14.50
18:42:17.515625,11.97
18:42:17.531250,10.65
18:42:17.546875,9.87
18:42:17.562500,9.24
18:42:17.578125,8.74
18:42:17.593750,8.61
18:42:17.609375,9.11
18:42:17.625000,10.35
18:42:17.640625,12.09
18:42:17.656250,13.89
18:42:17.671875,15.19
18:42:17.687500,15.44
18:42:17.703125,14.17
18:42:17.718750,11.13
18:42:17.734375,6.36
18:42:17.750000,0.21
18:42:17.765625,-6.73
18:42:17.781250,-13.78
18:42:17.796875,-20.32
18:42:17.812500,-25.94
18:42:17.828125,-30.41
18:42:17.843750,-33.58
18:42:17.859375,-35.21
18:42:17.875000,-35.00
18:42:17.890625,-32.76
18:42:17.906250,-28.62
18:42:17.921875,-23.20
18:42:17.937500,-17.49
18:42:17.953125,-12.60
18:42:17.968750,-9.38
18:42:17.984375,-8.13
18:42:18,-8.61
18:42:18.015625,-10.22
18:42:18.031250,-12.36
18:42:18.046875,-14.65
18:42:18.062500,-17.01
18:42:18.078125,-19.50
18:42:18.093750,-22.14
18:42:18.109375,-24.65
18:42:18.125000,-26.56
18:42:18.140625,-27.41
18:42:18.156250,-27.00
18:42:18.171875,-25.47
18:42:18.187500,-23.25
18:42:18.203125,-20.81
18:42:18.218750,-18.43
18:42:18.234375,-16.13
18:42:18.250000,-13.74
18:42:18.265625,-11.05
18:42:18.281250,-8.03
18:42:18.296875,-4.83
18:42:18.312500,-1.77
18:42:18.328125,0.80
18:42:18.343750,2.61
18:42:18.359375,3.56
18:42:18.375000,3.72
18:42:18.390625,3.24
18:42:18.406250,2.34
18:42:18.421875,1.19
18:42:18.437500,-0.05
18:42:18.453125,-1.24
18:42:18.468750,-2.19
18:42:18.484375,-2.64
18:42:18.500000,-2.29
18:42:18.515625,-0.96
18:42:18.531250,1.25
18:42:18.546875,3.91
18:42:18.562500,6.32
18:42:18.578125,7.73
18:42:18.593750,7.62
18:42:18.609375,5.85
18:42:18.625000,2.62
18:42:18.640625,-1.64
18:42:18.656250,-6.51
18:42:18.671875,-11.67
18:42:18.687500,-16.87
18:42:18.703125,-21.89
18:42:18.718750,-26.41
18:42:18.734375,-30.10
18:42:18.750000,-32.72
18:42:18.765625,-34.24
18:42:18.781250,-34.83
18:42:18.796875,-34.85
18:42:18.812500,-34.64
18:42:18.828125,-34.39
18:42:18.843750,-34.10
18:42:18.859375,-33.49
18:42:18.875000,-32.12
18:42:18.890625,-29.48
18:42:18.906250,-25.20
18:42:18.921875,-19.22
18:42:18.937500,-11.91
18:42:18.953125,-3.98
18:42:18.968750,3.65
18:42:18.984375,10.18
18:42:19,15.16
18:42:19.015625,18.58
18:42:19.031250,20.82
18:42:19.046875,22.46
18:42:19.062500,24.01
18:42:19.078125,25.81
18:42:19.093750,27.79
18:42:19.109375,29.64
18:42:19.125000,30.83
18:42:19.140625,30.88
18:42:19.156250,29.47
18:42:19.171875,26.60
18:42:19.187500,22.64
18:42:19.203125,18.26
18:42:19.218750,14.18
18:42:19.234375,11.06
18:42:19.250000,9.19
18:42:19.265625,8.44
18:42:19.281250,8.28
18:42:19.296875,7.93
18:42:19.312500,6.57
18:42:19.328125,3.67
18:42:19.343750,-0.99
18:42:19.359375,-7.15
18:42:19.375000,-14.25
18:42:19.390625,-21.47
18:42:19.406250,-27.90
18:42:19.421875,-32.68
18:42:19.437500,-35.14
18:42:19.453125,-35.05
18:42:19.468750,-32.64
18:42:19.484375,-28.65
18:42:19.500000,-24.14
18:42:19.515625,-20.07
18:42:19.531250,-17.08
18:42:19.546875,-15.33
18:42:19.562500,-14.61
18:42:19.578125,-14.59
18:42:19.593750,-15.13
18:42:19.609375,-16.30
18:42:19.625000,-18.30
18:42:19.640625,-21.15
18:42:19.656250,-24.60
18:42:19.671875,-28.05
18:42:19.687500,-30.84
18:42:19.703125,-32.51
18:42:19.718750,-32.97
18:42:19.734375,-32.47
18:42:19.750000,-31.41
18:42:19.765625,-30.03
18:42:19.781250,-28.29
18:42:19.796875,-25.97
18:42:19.812500,-22.92
18:42:19.828125,-19.21
18:42:19.843750,-15.25
18:42:19.859375,-11.62
18:42:19.875000,-8.83
18:42:19.890625,-7.18
18:42:19.906250,-6.60
18:42:19.921875,-6.81
18:42:19.937500,-7.36
18:42:19.953125,-7.78
18:42:19.968750,-7.66
18:42:19.984375,-6.74
18:42:20,-4.97
18:42:20.015625,-2.52
18:42:20.031250,0.24
18:42:20.046875,2.88
18:42:20.062500,5.02
18:42:20.078125,6.48
18:42:20.093750,7.32
18:42:20.109375,7.81
18:42:20.125000,8.22
18:42:20.140625,8.71
18:42:20.156250,9.20
18:42:20.171875,9.45
18:42:20.187500,9.13
18:42:20.203125,8.05
18:42:20.218750,6.21
18:42:20.234375,3.88
18:42:20.250000,1.48
18:42:20.265625,-0.56
18:42:20.281250,-1.91
18:42:20.296875,-2.43
18:42:20.312500,-2.20
18:42:20.328125,-1.43
18:42:20.343750,-0.38
18:42:20.359375,0.69
18:42:20.375000,1.59
18:42:20.390625,2.23
18:42:20.406250,2.64
18:42:20.421875,2.90
18:42:20.437500,3.17
18:42:20.453125,3.57
18:42:20.468750,4.10
18:42:20.484375,4.66
18:42:20.500000,5.06
18:42:20.515625,5.13
18:42:20.531250,4.73
18:42:20.546875,3.89
18:42:20.562500,2.81
18:42:20.578125,1.82
18:42:20.593750,1.37
18:42:20.609375,1.79
18:42:20.625000,3.22
18:42:20.640625,5.48
18:42:20.656250,8.12
18:42:20.671875,10.59
18:42:20.687500,12.46
18:42:20.703125,13.49
18:42:20.718750,13.76
18:42:20.734375,13.55
18:42:20.750000,13.19
18:42:20.765625,12.94
18:42:20.781250,12.88
18:42:20.796875,12.91
18:42:20.812500,12.76
18:42:20.828125,12.12
18:42:20.843750,10.83
18:42:20.859375,8.84
18:42:20.875000,6.40
18:42:20.890625,3.93
18:42:20.906250,1.86
18:42:20.921875,0.45
18:42:20.937500,-0.25
18:42:20.953125,-0.43
18:42:20.968750,-0.34
18:42:20.984375,-0.22
18:42:21,-0.18
18:42:21.015625,-0.22
18:42:21.031250,-0.35
18:42:21.046875,-0.55
18:42:21.062500,-0.84
18:42:21.078125,-1.20
18:42:21.093750,-1.59
18:42:21.109375,-1.97
18:42:21.125000,-2.34
18:42:21.140625,-2.71
18:42:21.156250,-3.17
18:42:21.171875,-3.75
18:42:21.187500,-4.41
18:42:21.203125,-4.99
18:42:21.218750,-5.26
18:42:21.234375,-4.93
18:42:21.250000,-3.80
18:42:21.265625,-1.81
18:42:21.281250,0.86
18:42:21.296875,3.80
18:42:21.312500,6.54
18:42:21.328125,8.62
18:42:21.343750,9.85
18:42:21.359375,10.36
18:42:21.375000,10.49
18:42:21.390625,10.67
18:42:21.406250,11.08
18:42:21.421875,11.62
18:42:21.437500,11.94
18:42:21.453125,11.69
18:42:21.468750,10.72
18:42:21.484375,9.18
18:42:21.500000,7.43
18:42:21.515625,5.84
18:42:21.531250,4.67
18:42:21.546875,3.97
18:42:21.562500,3.63
18:42:21.578125,3.47
18:42:21.593750,3.45
18:42:21.609375,3.55
18:42:21.625000,3.81
18:42:21.640625,4.19
18:42:21.656250,4.58
18:42:21.671875,4.84
18:42:21.687500,4.86
18:42:21.703125,4.58
18:42:21.718750,4.07
18:42:21.734375,3.41
18:42:21.750000,2.63
18:42:21.765625,1.66
18:42:21.781250,0.39
18:42:21.796875,-1.36
18:42:21.812500,-3.64
18:42:21.828125,-6.36
18:42:21.843750,-9.29
18:42:21.859375,-12.07
18:42:21.875000,-14.34
18:42:21.890625,-15.81
18:42:21.906250,-16.35
18:42:21.921875,-15.98
18:42:21.937500,-14.84
18:42:21.953125,-13.16
18:42:21.968750,-11.21
18:42:21.984375,-9.16
18:42:22,-7.15
18:42:22.015625,-5.23
18:42:22.031250,-3.41
18:42:22.046875,-1.71
18:42:22.062500,-0.22
18:42:22.078125,0.96
18:42:22.093750,1.75
18:42:22.109375,2.12
18:42:22.125000,2.21
18:42:22.140625,2.22
18:42:22.156250,2.37
18:42:22.171875,2.80
18:42:22.187500,3.55
18:42:22.203125,4.60
18:42:22.218750,5.87
18:42:22.234375,7.29
18:42:22.250000,8.79
18:42:22.265625,10.26
18:42:22.281250,11.53
18:42:22.296875,12.51
18:42:22.312500,13.14
18:42:22.328125,13.50
18:42:22.343750,13.75
18:42:22.359375,13.98
18:42:22.375000,14.21
18:42:22.390625,14.32
18:42:22.406250,14.06
18:42:22.421875,13.26
18:42:22.437500,11.82
18:42:22.453125,9.78
18:42:22.468750,7.31
18:42:22.484375,4.63
18:42:22.500000,1.96
18:42:22.515625,-0.46
18:42:22.531250,-2.41
18:42:22.546875,-3.69
18:42:22.562500,-4.21
18:42:22.578125,-3.92
18:42:22.593750,-2.93
18:42:22.609375,-1.47
18:42:22.625000,0.12
18:42:22.640625,1.51
18:42:22.656250,2.45
18:42:22.671875,2.86
18:42:22.687500,2.80
18:42:22.703125,2.42
18:42:22.718750,1.79
18:42:22.734375,0.91
18:42:22.750000,-0.31
18:42:22.765625,-1.86
18:42:22.781250,-3.58
18:42:22.796875,-5.14
18:42:22.812500,-6.17
18:42:22.828125,-6.40
18:42:22.843750,-5.79
18:42:22.859375,-4.44
18:42:22.875000,-2.63
18:42:22.890625,-0.59
18:42:22.906250,1.43
18:42:22.921875,3.19
18:42:22.937500,4.48
18:42:22.953125,5.13
18:42:22.968750,5.13
18:42:22.984375,4.65
18:42:23,3.96
18:42:23.015625,3.31
18:42:23.031250,2.83
18:42:23.046875,2.48
18:42:23.062500,2.19
18:42:23.078125,1.95
18:42:23.093750,1.94
18:42:23.109375,2.45
18:42:23.125000,3.73
18:42:23.140625,5.76
18:42:23.156250,8.23
18:42:23.171875,10.59
18:42:23.187500,12.27
18:42:23.203125,12.85
18:42:23.218750,12.18
18:42:23.234375,10.44
18:42:23.250000,7.97
18:42:23.265625,5.24
18:42:23.281250,2.65
18:42:23.296875,0.53
18:42:23.312500,-0.92
18:42:23.328125,-1.55
18:42:23.343750,-1.33
18:42:23.359375,-0.37
18:42:23.375000,1.07
18:42:23.390625,2.58
18:42:23.406250,3.75
18:42:23.421875,4.25
18:42:23.437500,4.01
18:42:23.453125,3.20
18:42:23.468750,2.10
18:42:23.484375,1.05
18:42:23.500000,0.20
18:42:23.515625,-0.41
18:42:23.531250,-0.88
18:42:23.546875,-1.31
18:42:23.562500,-1.74
18:42:23.578125,-2.20
18:42:23.593750,-2.70
18:42:23.609375,-3.27
18:42:23.625000,-3.98
18:42:23.640625,-4.80
18:42:23.656250,-5.65
18:42:23.671875,-6.40
18:42:23.687500,-6.87
18:42:23.703125,-6.99
18:42:23.718750,-6.76
18:42:23.734375,-6.26
18:42:23.750000,-5.64
18:42:23.765625,-5.06
18:42:23.781250,-4.62
18:42:23.796875,-4.37
18:42:23.812500,-4.28
18:42:23.828125,-4.23
18:42:23.843750,-4.09
18:42:23.859375,-3.72
18:42:23.875000,-3.05
18:42:23.890625,-2.10
18:42:23.906250,-0.94
18:42:23.921875,0.30
18:42:23.937500,1.56
18:42:23.953125,2.77
18:42:23.968750,3.94
18:42:23.984375,5.05
18:42:24,6.07
18:42:24.015625,6.95
18:42:24.031250,7.66
18:42:24.046875,8.19
18:42:24.062500,8.56
18:42:24.078125,8.74
18:42:24.093750,8.69
18:42:24.109375,8.35
18:42:24.125000,7.65
18:42:24.140625,6.57
18:42:24.156250,5.21
18:42:24.171875,3.77
18:42:24.187500,2.49
18:42:24.203125,1.64
18:42:24.218750,1.38
18:42:24.234375,1.79
18:42:24.250000,2.73
18:42:24.265625,3.93
18:42:24.281250,5.00
18:42:24.296875,5.63
18:42:24.312500,5.60
18:42:24.328125,4.87
18:42:24.343750,3.59
18:42:24.359375,1.98
18:42:24.375000,0.26
18:42:24.390625,-1.41
18:42:24.406250,-2.99
18:42:24.421875,-4.49
18:42:24.437500,-5.87
18:42:24.453125,-7.09
18:42:24.468750,-8.01
18:42:24.484375,-8.44
18:42:24.500000,-8.25
18:42:24.515625,-7.49
18:42:24.531250,-6.35
18:42:24.546875,-5.14
18:42:24.562500,-4.15
18:42:24.578125,-3.48
18:42:24.593750,-3.05
18:42:24.609375,-2.58
18:42:24.625000,-1.86
18:42:24.640625,-0.78
18:42:24.656250,0.54
18:42:24.671875,1.91
18:42:24.687500,3.14
18:42:24.703125,4.18
18:42:24.718750,5.05
18:42:24.734375,5.76
18:42:24.750000,6.31
18:42:24.765625,6.65
18:42:24.781250,6.78
18:42:24.796875,6.78
18:42:24.812500,6.81
18:42:24.828125,6.99
18:42:24.843750,7.32
18:42:24.859375,7.62
18:42:24.875000,7.57
18:42:24.890625,6.95
18:42:24.906250,5.69
18:42:24.921875,4.01
18:42:24.937500,2.29
18:42:24.953125,0.91
18:42:24.968750,0.07
18:42:24.984375,-0.24
18:42:25,-0.20
18:42:25.015625,0.00
18:42:25.031250,0.29
18:42:25.046875,0.70
18:42:25.062500,1.29
18:42:25.078125,2.03
18:42:25.093750,2.77
18:42:25.109375,3.27
18:42:25.125000,3.29
18:42:25.140625,2.77
18:42:25.156250,1.82
18:42:25.171875,0.69
18:42:25.187500,-0.39
18:42:25.203125,-1.28
18:42:25.218750,-1.98
18:42:25.234375,-2.55
18:42:25.250000,-3.06
18:42:25.265625,-3.58
18:42:25.281250,-4.17
18:42:25.296875,-4.86
18:42:25.312500,-5.67
18:42:25.328125,-6.56
18:42:25.343750,-7.39
18:42:25.359375,-7.95
18:42:25.375000,-8.04
18:42:25.390625,-7.56
18:42:25.406250,-6.55
18:42:25.421875,-5.26
18:42:25.437500,-3.95
18:42:25.453125,-2.85
18:42:25.468750,-2.06
18:42:25.484375,-1.54
18:42:25.500000,-1.14
18:42:25.515625,-0.71
18:42:25.531250,-0.17
18:42:25.546875,0.49
18:42:25.562500,1.22
18:42:25.578125,2.00
18:42:25.593750,2.81
18:42:25.609375,3.70
18:42:25.625000,4.69
18:42:25.640625,5.77
18:42:25.656250,6.85
18:42:25.671875,7.79
18:42:25.687500,8.49
18:42:25.703125,8.93
18:42:25.718750,9.18
18:42:25.734375,9.32
18:42:25.750000,9.38
18:42:25.765625,9.35
18:42:25.781250,9.17
18:42:25.796875,8.81
18:42:25.812500,8.30
18:42:25.828125,7.71
18:42:25.843750,7.12
18:42:25.859375,6.62
18:42:25.875000,6.26
18:42:25.890625,6.06
18:42:25.906250,6.03
18:42:25.921875,6.11
18:42:25.937500,6.23
18:42:25.953125,6.28
18:42:25.968750,6.21
18:42:25.984375,5.98
18:42:26,5.58
18:42:26.015625,5.05
18:42:26.031250,4.41
18:42:26.046875,3.64
18:42:26.062500,2.78
18:42:26.078125,1.89
18:42:26.093750,1.08
18:42:26.109375,0.46
18:42:26.125000,0.07
18:42:26.140625,-0.12
18:42:26.156250,-0.21
18:42:26.171875,-0.31
18:42:26.187500,-0.53
18:42:26.203125,-0.90
18:42:26.218750,-1.39
18:42:26.234375,-1.95
18:42:26.250000,-2.53
18:42:26.265625,-3.14
18:42:26.281250,-3.82
18:42:26.296875,-4.60
18:42:26.312500,-5.47
18:42:26.328125,-6.31
18:42:26.343750,-6.93
18:42:26.359375,-7.14
18:42:26.375000,-6.81
18:42:26.390625,-5.91
18:42:26.406250,-4.56
18:42:26.421875,-2.94
18:42:26.437500,-1.25
18:42:26.453125,0.36
18:42:26.468750,1.81
18:42:26.484375,3.05
18:42:26.500000,3.97
18:42:26.515625,4.52
18:42:26.531250,4.63
18:42:26.546875,4.37
18:42:26.562500,3.85
18:42:26.578125,3.28
18:42:26.593750,2.89
18:42:26.609375,2.86
18:42:26.625000,3.32
18:42:26.640625,4.24
18:42:26.656250,5.55
18:42:26.671875,7.12
18:42:26.687500,8.76
18:42:26.703125,10.34
18:42:26.718750,11.75
18:42:26.734375,12.95
18:42:26.750000,14.02
18:42:26.765625,15.01
18:42:26.781250,15.97
18:42:26.796875,16.90
18:42:26.812500,17.69
18:42:26.828125,18.26
18:42:26.843750,18.56
18:42:26.859375,18.64
18:42:26.875000,18.63
18:42:26.890625,18.70
18:42:26.906250,18.95
18:42:26.921875,19.36
18:42:26.937500,19.80
18:42:26.953125,20.04
18:42:26.968750,19.94
18:42:26.984375,19.42
18:42:27,18.55
18:42:27.015625,17.40
18:42:27.031250,16.01
18:42:27.046875,14.32
18:42:27.062500,12.21
18:42:27.078125,9.65
18:42:27.093750,6.70
18:42:27.109375,3.61
18:42:27.125000,0.64
18:42:27.140625,-2.04
18:42:27.156250,-4.45
18:42:27.171875,-6.72
18:42:27.187500,-9.03
18:42:27.203125,-11.35
18:42:27.218750,-13.50
18:42:27.234375,-15.18
18:42:27.250000,-16.16
18:42:27.265625,-16.47
18:42:27.281250,-16.35
18:42:27.296875,-16.19
18:42:27.312500,-16.33
18:42:27.328125,-16.91
18:42:27.343750,-17.83
18:42:27.359375,-18.81
18:42:27.375000,-19.60
18:42:27.390625,-20.04
18:42:27.406250,-20.13
18:42:27.421875,-19.95
18:42:27.437500,-19.60
18:42:27.453125,-19.08
18:42:27.468750,-18.32
18:42:27.484375,-17.30
18:42:27.500000,-16.04
18:42:27.515625,-14.71
18:42:27.531250,-13.47
18:42:27.546875,-12.48
18:42:27.562500,-11.72
18:42:27.578125,-11.10
18:42:27.593750,-10.43
18:42:27.609375,-9.56
18:42:27.625000,-8.44
18:42:27.640625,-7.09
18:42:27.656250,-5.61
18:42:27.671875,-4.12
18:42:27.687500,-2.73
18:42:27.703125,-1.46
18:42:27.718750,-0.30
18:42:27.734375,0.77
18:42:27.750000,1.76
18:42:27.765625,2.62
18:42:27.781250,3.27
18:42:27.796875,3.61
18:42:27.812500,3.67
18:42:27.828125,3.51
18:42:27.843750,3.30
18:42:27.859375,3.13
18:42:27.875000,3.02
18:42:27.890625,2.90
18:42:27.906250,2.63
18:42:27.921875,2.11
18:42:27.937500,1.32
18:42:27.953125,0.29
18:42:27.968750,-0.84
18:42:27.984375,-1.98
18:42:28,-3.00
18:42:28.015625,-3.83
18:42:28.031250,-4.45
18:42:28.046875,-4.96
18:42:28.062500,-5.50
18:42:28.078125,-6.23
18:42:28.093750,-7.27
18:42:28.109375,-8.59
18:42:28.125000,-10.05
18:42:28.140625,-11.41
18:42:28.156250,-12.48
18:42:28.171875,-13.13
18:42:28.187500,-13.33
18:42:28.203125,-13.11
18:42:28.218750,-12.51
18:42:28.234375,-11.59
18:42:28.250000,-10.42
18:42:28.265625,-9.12
18:42:28.281250,-7.86
18:42:28.296875,-6.80
18:42:28.312500,-6.03
18:42:28.328125,-5.60
18:42:28.343750,-5.43
18:42:28.359375,-5.39
18:42:28.375000,-5.32
18:42:28.390625,-5.08
18:42:28.406250,-4.64
18:42:28.421875,-3.99
18:42:28.437500,-3.24
18:42:28.453125,-2.47
18:42:28.468750,-1.77
18:42:28.484375,-1.12
18:42:28.500000,-0.50
18:42:28.515625,0.17
18:42:28.531250,0.92
18:42:28.546875,1.77
18:42:28.562500,2.64
18:42:28.578125,3.48
18:42:28.593750,4.20
18:42:28.609375,4.77
18:42:28.625000,5.17
18:42:28.640625,5.47
18:42:28.656250,5.69
18:42:28.671875,5.87
18:42:28.687500,6.03
18:42:28.703125,6.19
18:42:28.718750,6.39
18:42:28.734375,6.73
18:42:28.750000,7.30
18:42:28.765625,8.06
18:42:28.781250,8.81
18:42:28.796875,9.19
18:42:28.812500,8.72
18:42:28.828125,7.15
18:42:28.843750,4.52
18:42:28.859375,1.24
18:42:28.875000,-2.00
18:42:28.890625,-4.53
18:42:28.906250,-5.89
18:42:28.921875,-6.01
18:42:28.937500,-5.13
18:42:28.953125,-3.72
18:42:28.968750,-2.29
18:42:28.984375,-1.21
18:42:29,-0.76
18:42:29.015625,-1.13
18:42:29.031250,-2.44
18:42:29.046875,-4.71
18:42:29.062500,-7.81
18:42:29.078125,-11.33
18:42:29.093750,-14.65
18:42:29.109375,-17.08
18:42:29.125000,-18.12
18:42:29.140625,-17.64
18:42:29.156250,-15.99
18:42:29.171875,-13.82
18:42:29.187500,-11.78
18:42:29.203125,-10.27
18:42:29.218750,-9.35
18:42:29.234375,-8.85
18:42:29.250000,-8.60
18:42:29.265625,-8.48
18:42:29.281250,-8.46
18:42:29.296875,-8.48
18:42:29.312500,-8.31
18:42:29.328125,-7.65
18:42:29.343750,-6.26
18:42:29.359375,-4.13
18:42:29.375000,-1.52
18:42:29.390625,1.09
18:42:29.406250,3.22
18:42:29.421875,4.50
18:42:29.437500,4.84
18:42:29.453125,4.43
18:42:29.468750,3.63
18:42:29.484375,2.88
18:42:29.500000,2.51
18:42:29.515625,2.66
18:42:29.531250,3.24
18:42:29.546875,3.97
18:42:29.562500,4.60
18:42:29.578125,5.03
18:42:29.593750,5.29
18:42:29.609375,5.60
18:42:29.625000,6.11
18:42:29.640625,6.83
18:42:29.656250,7.68
18:42:29.671875,8.52
18:42:29.687500,9.24
18:42:29.703125,9.81
18:42:29.718750,10.19
18:42:29.734375,10.33
18:42:29.750000,10.11
18:42:29.765625,9.42
18:42:29.781250,8.27
18:42:29.796875,6.79
18:42:29.812500,5.24
18:42:29.828125,3.83
18:42:29.843750,2.68
18:42:29.859375,1.77
18:42:29.875000,0.92
18:42:29.890625,-0.02
18:42:29.906250,-1.16
18:42:29.921875,-2.53
18:42:29.937500,-4.10
18:42:29.953125,-5.76
18:42:29.968750,-7.43
18:42:29.984375,-9.01
18:42:30,-10.41
18:42:30.015625,-11.50
18:42:30.031250,-12.16
18:42:30.046875,-12.30
18:42:30.062500,-11.88
18:42:30.078125,-10.91
18:42:30.093750,-9.49
18:42:30.109375,-7.78
18:42:30.125000,-5.95
18:42:30.140625,-4.17
18:42:30.156250,-2.59
18:42:30.171875,-1.33
18:42:30.187500,-0.45
18:42:30.203125,0.05
18:42:30.218750,0.27
18:42:30.234375,0.36
18:42:30.250000,0.52
18:42:30.265625,0.89
18:42:30.281250,1.48
18:42:30.296875,2.20
18:42:30.312500,2.86
18:42:30.328125,3.30
18:42:30.343750,3.41
18:42:30.359375,3.23
18:42:30.375000,2.89
18:42:30.390625,2.60
18:42:30.406250,2.57
18:42:30.421875,2.87
18:42:30.437500,3.48
18:42:30.453125,4.27
18:42:30.468750,5.07
18:42:30.484375,5.68
18:42:30.500000,5.96
18:42:30.515625,5.86
18:42:30.531250,5.41
18:42:30.546875,4.76
18:42:30.562500,4.06
18:42:30.578125,3.45
18:42:30.593750,3.00
18:42:30.609375,2.67
18:42:30.625000,2.36
18:42:30.640625,1.89
18:42:30.656250,1.07
18:42:30.671875,-0.22
18:42:30.687500,-2.01
18:42:30.703125,-4.14
18:42:30.718750,-6.33
18:42:30.734375,-8.23
18:42:30.750000,-9.62
18:42:30.765625,-10.42
18:42:30.781250,-10.79
18:42:30.796875,-11.09
18:42:30.812500,-11.63
18:42:30.828125,-12.63
18:42:30.843750,-14.03
18:42:30.859375,-15.61
18:42:30.875000,-17.09
18:42:30.890625,-18.29
18:42:30.906250,-19.31
18:42:30.921875,-20.43
18:42:30.937500,-21.92
18:42:30.953125,-23.90
18:42:30.968750,-26.13
18:42:30.984375,-28.10
18:42:31,-29.19
18:42:31.015625,-28.99
18:42:31.031250,-27.53
18:42:31.046875,-25.40
18:42:31.062500,-23.55
18:42:31.078125,-22.92
18:42:31.093750,-24.05
18:42:31.109375,-26.70
18:42:31.125000,-29.92
18:42:31.140625,-32.34
18:42:31.156250,-32.71
18:42:31.171875,-30.38
18:42:31.187500,-25.65
18:42:31.203125,-19.80
18:42:31.218750,-14.74
18:42:31.234375,-12.53
18:42:31.250000,-14.69
18:42:31.265625,-21.38
18:42:31.281250,-30.96
18:42:31.296875,-40.14
18:42:31.312500,-44.75
18:42:31.328125,-41.26
18:42:31.343750,-28.22
18:42:31.359375,-6.98
18:42:31.375000,18.97
18:42:31.390625,45.41
18:42:31.406250,69.27
18:42:31.421875,89.47
18:42:31.437500,106.94
18:42:31.453125,123.89
18:42:31.468750,142.98
18:42:31.484375,166.74
18:42:31.500000,197.13
18:42:31.515625,234.70
18:42:31.531250,277.51
18:42:31.546875,320.57
18:42:31.562500,356.60
18:42:31.578125,378.40
18:42:31.593750,381.82
18:42:31.609375,367.59
18:42:31.625000,340.98
18:42:31.640625,309.12
18:42:31.656250,277.75
18:42:31.671875,249.15
18:42:31.687500,222.27
18:42:31.703125,194.88
18:42:31.718750,165.78
18:42:31.734375,135.69
18:42:31.750000,106.36
18:42:31.765625,78.88
18:42:31.781250,52.50
18:42:31.796875,25.06
18:42:31.812500,-5.25
18:42:31.828125,-38.02
18:42:31.843750,-69.95
18:42:31.859375,-96.04
18:42:31.875000,-111.85
18:42:31.890625,-115.79
18:42:31.906250,-109.84
18:42:31.921875,-98.57
18:42:31.937500,-86.95
18:42:31.953125,-78.21
18:42:31.968750,-72.88
18:42:31.984375,-69.61
18:42:32,-66.63
18:42:32.015625,-63.26
18:42:32.031250,-60.22
18:42:32.046875,-59.08
18:42:32.062500,-61.15
18:42:32.078125,-66.81
18:42:32.093750,-75.34
18:42:32.109375,-85.46
18:42:32.125000,-95.79
18:42:32.140625,-105.22
18:42:32.156250,-112.96
18:42:32.171875,-118.53
18:42:32.187500,-121.76
18:42:32.203125,-122.91
18:42:32.218750,-122.62
18:42:32.234375,-121.78
18:42:32.250000,-121.45
18:42:32.265625,-122.65
18:42:32.281250,-126.22
18:42:32.296875,-132.44
18:42:32.312500,-140.66
18:42:32.328125,-149.17
18:42:32.343750,-155.44
18:42:32.359375,-156.97
18:42:32.375000,-152.21
18:42:32.390625,-141.32
18:42:32.406250,-126.07
18:42:32.421875,-109.01
18:42:32.437500,-92.44
18:42:32.453125,-77.68
18:42:32.468750,-64.98
18:42:32.484375,-54.11
18:42:32.500000,-44.94
18:42:32.515625,-37.73
18:42:32.531250,-32.96
18:42:32.546875,-30.82
18:42:32.562500,-31.03
18:42:32.578125,-32.85
18:42:32.593750,-35.46
18:42:32.609375,-38.34
18:42:32.625000,-41.36
18:42:32.640625,-44.58
18:42:32.656250,-47.89
18:42:32.671875,-50.80
18:42:32.687500,-52.43
18:42:32.703125,-51.88
18:42:32.718750,-48.63
18:42:32.734375,-42.87
18:42:32.750000,-35.42
18:42:32.765625,-27.43
18:42:32.781250,-19.89
18:42:32.796875,-13.30
18:42:32.812500,-7.62
18:42:32.828125,-2.52
18:42:32.843750,2.23
18:42:32.859375,6.43
18:42:32.875000,9.40
18:42:32.890625,10.20
18:42:32.906250,8.16
18:42:32.921875,3.26
18:42:32.937500,-3.84
18:42:32.953125,-11.97
18:42:32.968750,-19.98
18:42:32.984375,-27.03
18:42:33,-32.79
18:42:33.015625,-37.17
18:42:33.031250,-40.07
18:42:33.046875,-41.30
18:42:33.062500,-40.65
18:42:33.078125,-38.29
18:42:33.093750,-34.92
18:42:33.109375,-31.74
18:42:33.125000,-30.02
18:42:33.140625,-30.52
18:42:33.156250,-33.15
18:42:33.171875,-36.89
18:42:33.187500,-40.22
18:42:33.203125,-41.72
18:42:33.218750,-40.70
18:42:33.234375,-37.38
18:42:33.250000,-32.87
18:42:33.265625,-28.61
18:42:33.281250,-25.80
18:42:33.296875,-24.91
18:42:33.312500,-25.60
18:42:33.328125,-26.95
18:42:33.343750,-27.76
18:42:33.359375,-26.91
18:42:33.375000,-23.40
18:42:33.390625,-16.32
18:42:33.406250,-4.91
18:42:33.421875,11.23
18:42:33.437500,31.84
18:42:33.453125,55.80
18:42:33.468750,81.28
18:42:33.484375,106.35
18:42:33.500000,129.53
18:42:33.515625,150.00
18:42:33.531250,167.25
18:42:33.546875,180.20
18:42:33.562500,186.63
18:42:33.578125,183.40
18:42:33.593750,167.66
18:42:33.609375,138.38
18:42:33.625000,97.50
18:42:33.640625,49.73
18:42:33.656250,1.18
18:42:33.671875,-42.65
18:42:33.687500,-78.41
18:42:33.703125,-105.30
18:42:33.718750,-124.25
18:42:33.734375,-136.65
18:42:33.750000,-143.27
18:42:33.765625,-144.20
18:42:33.781250,-139.38
18:42:33.796875,-129.43
18:42:33.812500,-116.00
18:42:33.828125,-101.44
18:42:33.843750,-87.95
18:42:33.859375,-76.83
18:42:33.875000,-68.13
18:42:33.890625,-60.89
18:42:33.906250,-53.89
18:42:33.921875,-46.26
18:42:33.937500,-37.88
18:42:33.953125,-29.30
18:42:33.968750,-21.33
18:42:33.984375,-14.56
18:42:34,-9.15
18:42:34.015625,-4.72
18:42:34.031250,-0.65
18:42:34.046875,3.60
18:42:34.062500,8.21
18:42:34.078125,12.99
18:42:34.093750,17.46
18:42:34.109375,21.15
18:42:34.125000,23.75
18:42:34.140625,25.24
18:42:34.156250,25.89
18:42:34.171875,26.07
18:42:34.187500,26.11
18:42:34.203125,26.23
18:42:34.218750,26.47
18:42:34.234375,26.75
18:42:34.250000,26.99
18:42:34.265625,27.10
18:42:34.281250,27.06
18:42:34.296875,26.92
18:42:34.312500,26.73
18:42:34.328125,26.60
18:42:34.343750,26.65
18:42:34.359375,26.98
18:42:34.375000,27.65
18:42:34.390625,28.56
18:42:34.406250,29.50
18:42:34.421875,30.21
18:42:34.437500,30.48
18:42:34.453125,30.24
18:42:34.468750,29.60
18:42:34.484375,28.77
18:42:34.500000,27.95
18:42:34.515625,27.28
18:42:34.531250,26.76
18:42:34.546875,26.32
18:42:34.562500,25.89
18:42:34.578125,25.56
18:42:34.593750,25.52
18:42:34.609375,25.99
18:42:34.625000,27.05
18:42:34.640625,28.55
18:42:34.656250,30.14
18:42:34.671875,31.49
18:42:34.687500,32.45
18:42:34.703125,33.28
18:42:34.718750,34.56
18:42:34.734375,37.02
18:42:34.750000,41.30
18:42:34.765625,47.79
18:42:34.781250,56.58
18:42:34.796875,67.42
18:42:34.812500,79.67
18:42:34.828125,92.14
18:42:34.843750,103.24
18:42:34.859375,111.24
18:42:34.875000,114.86
18:42:34.890625,113.71
18:42:34.906250,108.51
18:42:34.921875,100.79
18:42:34.937500,92.37
18:42:34.953125,84.72
18:42:34.968750,78.72
18:42:34.984375,74.63
18:42:35,72.28
18:42:35.015625,71.22
18:42:35.031250,70.52
18:42:35.046875,68.81
18:42:35.062500,64.24
18:42:35.078125,55.03
18:42:35.093750,40.18
18:42:35.109375,20.09
18:42:35.125000,-3.25
18:42:35.140625,-26.84
18:42:35.156250,-47.85
18:42:35.171875,-65.04
18:42:35.187500,-79.44
18:42:35.203125,-93.89
18:42:35.218750,-111.64
18:42:35.234375,-134.75
18:42:35.250000,-162.94
18:42:35.265625,-193.55
18:42:35.281250,-222.35
18:42:35.296875,-244.86
18:42:35.312500,-257.53
18:42:35.328125,-258.50
18:42:35.343750,-247.93
18:42:35.359375,-227.82
18:42:35.375000,-201.44
18:42:35.390625,-172.30
18:42:35.406250,-143.09
18:42:35.421875,-114.49
18:42:35.437500,-84.91
18:42:35.453125,-51.06
18:42:35.468750,-9.80
18:42:35.484375,39.78
18:42:35.500000,94.98
18:42:35.515625,149.71
18:42:35.531250,196.26
18:42:35.546875,227.87
18:42:35.562500,240.79
18:42:35.578125,235.01
18:42:35.593750,214.01
18:42:35.609375,183.51
18:42:35.625000,149.68
18:42:35.640625,117.86
18:42:35.656250,91.28
18:42:35.671875,70.33
18:42:35.687500,52.79
18:42:35.703125,35.42
18:42:35.718750,16.35
18:42:35.734375,-2.94
18:42:35.750000,-17.80
18:42:35.765625,-22.90
18:42:35.781250,-15.89
18:42:35.796875,-0.26
18:42:35.812500,15.08
18:42:35.828125,19.53
18:42:35.843750,5.96
18:42:35.859375,-26.05
18:42:35.875000,-70.40
18:42:35.890625,-118.08
18:42:35.906250,-161.73
18:42:35.921875,-198.14
18:42:35.937500,-227.71
18:42:35.953125,-251.64
18:42:35.968750,-269.42
18:42:35.984375,-278.27
18:42:36,-274.91
18:42:36.015625,-258.05
18:42:36.031250,-229.84
18:42:36.046875,-195.14
18:42:36.062500,-159.42
18:42:36.078125,-126.67
18:42:36.093750,-98.31
18:42:36.109375,-73.34
18:42:36.125000,-49.54
18:42:36.140625,-24.53
18:42:36.156250,3.58
18:42:36.171875,35.75
18:42:36.187500,71.54
18:42:36.203125,108.85
18:42:36.218750,144.15
18:42:36.234375,173.62
18:42:36.250000,194.66
18:42:36.265625,207.23
18:42:36.281250,213.99
18:42:36.296875,218.84
18:42:36.312500,224.70
18:42:36.328125,231.74
18:42:36.343750,237.35
18:42:36.359375,237.54
18:42:36.375000,229.21
18:42:36.390625,211.74
18:42:36.406250,186.99
18:42:36.421875,158.20
18:42:36.437500,128.28
18:42:36.453125,98.86
18:42:36.468750,70.22
18:42:36.484375,42.08
18:42:36.500000,14.55
18:42:36.515625,-11.47
18:42:36.531250,-34.45
18:42:36.546875,-52.95
18:42:36.562500,-66.35
18:42:36.578125,-75.34
18:42:36.593750,-81.65
18:42:36.609375,-87.48
18:42:36.625000,-94.38
18:42:36.640625,-102.61
18:42:36.656250,-110.97
18:42:36.671875,-117.35
18:42:36.687500,-119.78
18:42:36.703125,-117.55
18:42:36.718750,-111.63
18:42:36.734375,-104.37
18:42:36.750000,-98.54
18:42:36.765625,-96.06
18:42:36.781250,-97.26
18:42:36.796875,-100.71
18:42:36.812500,-103.83
18:42:36.828125,-103.70
18:42:36.843750,-97.82
18:42:36.859375,-84.67
18:42:36.875000,-64.10
18:42:36.890625,-37.61
18:42:36.906250,-8.50
18:42:36.921875,18.62
18:42:36.937500,39.07
18:42:36.953125,50.02
18:42:36.968750,52.22
18:42:36.984375,50.43
18:42:37,51.98
18:42:37.015625,63.54
18:42:37.031250,87.87
18:42:37.046875,122.01
18:42:37.062500,158.34
18:42:37.078125,187.91
18:42:37.093750,204.42
18:42:37.109375,206.62
18:42:37.125000,198.18
18:42:37.140625,184.92
18:42:37.156250,171.62
18:42:37.171875,159.96
18:42:37.187500,148.71
18:42:37.203125,135.66
18:42:37.218750,119.80
18:42:37.234375,102.32
18:42:37.250000,85.82
18:42:37.265625,72.55
18:42:37.281250,62.74
18:42:37.296875,54.37
18:42:37.312500,44.28
18:42:37.328125,30.00
18:42:37.343750,11.21
18:42:37.359375,-10.06
18:42:37.375000,-30.53
18:42:37.390625,-47.35
18:42:37.406250,-59.40
18:42:37.421875,-67.55
18:42:37.437500,-73.85
18:42:37.453125,-80.30
18:42:37.468750,-87.78
18:42:37.484375,-95.75
18:42:37.500000,-102.77
18:42:37.515625,-107.22
18:42:37.531250,-108.14
18:42:37.546875,-105.47
18:42:37.562500,-100.03
18:42:37.578125,-93.10
18:42:37.593750,-86.05
18:42:37.609375,-80.06
18:42:37.625000,-75.89
18:42:37.640625,-73.79
18:42:37.656250,-73.45
18:42:37.671875,-73.90
18:42:37.687500,-73.58
18:42:37.703125,-70.49
18:42:37.718750,-62.61
18:42:37.734375,-48.46
18:42:37.750000,-27.77
18:42:37.765625,-1.82
18:42:37.781250,26.48
18:42:37.796875,53.23
18:42:37.812500,74.49
18:42:37.828125,87.40
18:42:37.843750,90.93
18:42:37.859375,86.05
18:42:37.875000,75.19
18:42:37.890625,61.39
18:42:37.906250,47.47
18:42:37.921875,35.49
18:42:37.937500,26.80
18:42:37.953125,22.30
18:42:37.968750,22.65
18:42:37.984375,28.33
18:42:38,39.48
18:42:38.015625,55.74
18:42:38.031250,76.23
18:42:38.046875,99.72
18:42:38.062500,125.00
18:42:38.078125,150.78
18:42:38.093750,175.46
18:42:38.109375,196.71
18:42:38.125000,211.34
18:42:38.140625,215.97
18:42:38.156250,208.03
18:42:38.171875,186.86
18:42:38.187500,154.12
18:42:38.203125,113.23
18:42:38.218750,68.14
18:42:38.234375,22.27
18:42:38.250000,-22.03
18:42:38.265625,-63.24
18:42:38.281250,-100.02
18:42:38.296875,-130.93
18:42:38.312500,-154.66
18:42:38.328125,-170.73
18:42:38.343750,-179.89
18:42:38.359375,-184.05
18:42:38.375000,-185.52
18:42:38.390625,-186.38
18:42:38.406250,-188.26
18:42:38.421875,-192.69
18:42:38.437500,-201.55
18:42:38.453125,-216.75
18:42:38.468750,-239.20
18:42:38.484375,-267.44
18:42:38.500000,-297.00
18:42:38.515625,-321.05
18:42:38.531250,-332.62
18:42:38.546875,-326.94
18:42:38.562500,-302.95
18:42:38.578125,-263.17
18:42:38.593750,-212.32
18:42:38.609375,-155.57
18:42:38.625000,-97.40
18:42:38.640625,-41.41
18:42:38.656250,9.61
18:42:38.671875,53.53
18:42:38.687500,89.46
18:42:38.703125,118.17
18:42:38.718750,141.90
18:42:38.734375,163.52
18:42:38.750000,185.05
18:42:38.765625,206.56
18:42:38.781250,226.05
18:42:38.796875,240.65
18:42:38.812500,248.03
18:42:38.828125,247.76
18:42:38.843750,241.44
18:42:38.859375,232.00
18:42:38.875000,222.40
18:42:38.890625,214.47
18:42:38.906250,208.29
18:42:38.921875,202.31
18:42:38.937500,194.05
18:42:38.953125,181.15
18:42:38.968750,162.30
18:42:38.984375,137.73
18:42:39,108.93
18:42:39.015625,78.11
18:42:39.031250,47.30
18:42:39.046875,17.85
18:42:39.062500,-9.54
18:42:39.078125,-34.37
18:42:39.093750,-55.96
18:42:39.109375,-73.37
18:42:39.125000,-85.93
18:42:39.140625,-93.82
18:42:39.156250,-98.40
18:42:39.171875,-101.81
18:42:39.187500,-106.11
18:42:39.203125,-112.24
18:42:39.218750,-119.65
18:42:39.234375,-126.65
18:42:39.250000,-131.41
18:42:39.265625,-133.06
18:42:39.281250,-132.15
18:42:39.296875,-130.43
18:42:39.312500,-129.87
18:42:39.328125,-131.62
18:42:39.343750,-135.35
18:42:39.359375,-139.39
18:42:39.375000,-141.51
18:42:39.390625,-139.99
18:42:39.406250,-134.45
18:42:39.421875,-125.91
18:42:39.437500,-116.30
18:42:39.453125,-107.75
18:42:39.468750,-101.98
18:42:39.484375,-100.22
18:42:39.500000,-103.03
18:42:39.515625,-110.08
18:42:39.531250,-119.65
18:42:39.546875,-128.22
18:42:39.562500,-130.96
18:42:39.578125,-123.15
18:42:39.593750,-102.30
18:42:39.609375,-69.80
18:42:39.625000,-30.87
18:42:39.640625,7.22
18:42:39.656250,38.11
18:42:39.671875,58.68
18:42:39.687500,69.74
18:42:39.703125,74.67
18:42:39.718750,77.05
18:42:39.734375,78.83
18:42:39.750000,79.98
18:42:39.765625,79.37
18:42:39.781250,76.20
18:42:39.796875,70.80
18:42:39.812500,64.38
18:42:39.828125,58.16
18:42:39.843750,52.68
18:42:39.859375,47.71
18:42:39.875000,42.88
18:42:39.890625,38.39
18:42:39.906250,35.32
18:42:39.921875,35.22
18:42:39.937500,39.18
18:42:39.953125,47.04
18:42:39.968750,57.09
18:42:39.984375,66.49
18:42:40,72.28
18:42:40.015625,72.57
18:42:40.031250,67.26
18:42:40.046875,58.17
18:42:40.062500,48.14
18:42:40.078125,39.87
18:42:40.093750,34.79
18:42:40.109375,32.52
18:42:40.125000,31.29
18:42:40.140625,29.01
18:42:40.156250,24.36
18:42:40.171875,17.36
18:42:40.187500,9.22
18:42:40.203125,1.49
18:42:40.218750,-4.71
18:42:40.234375,-9.02
18:42:40.250000,-11.52
18:42:40.265625,-12.19
18:42:40.281250,-10.49
18:42:40.296875,-5.53
18:42:40.312500,3.26
18:42:40.328125,15.50
18:42:40.343750,29.64
18:42:40.359375,43.35
18:42:40.375000,54.36
18:42:40.390625,61.12
18:42:40.406250,63.11
18:42:40.421875,60.59
18:42:40.437500,54.16
18:42:40.453125,44.55
18:42:40.468750,32.68
18:42:40.484375,19.83
18:42:40.500000,7.61
18:42:40.515625,-2.31
18:42:40.531250,-8.67
18:42:40.546875,-11.02
18:42:40.562500,-9.93
18:42:40.578125,-6.77
18:42:40.593750,-3.29
18:42:40.609375,-1.15
18:42:40.625000,-1.35
18:42:40.640625,-3.98
18:42:40.656250,-8.19
18:42:40.671875,-12.50
18:42:40.687500,-15.36
18:42:40.703125,-15.73
18:42:40.718750,-13.49
18:42:40.734375,-9.33
18:42:40.750000,-4.49
18:42:40.765625,-0.12
18:42:40.781250,3.04
18:42:40.796875,4.81
18:42:40.812500,5.34
18:42:40.828125,4.90
18:42:40.843750,3.71
18:42:40.859375,1.89
18:42:40.875000,-0.40
18:42:40.890625,-2.90
18:42:40.906250,-5.15
18:42:40.921875,-6.64
18:42:40.937500,-6.99
18:42:40.953125,-6.22
18:42:40.968750,-4.75
18:42:40.984375,-3.26
18:42:41,-2.36
18:42:41.015625,-2.22
18:42:41.031250,-2.47
18:42:41.046875,-2.36
18:42:41.062500,-1.17
18:42:41.078125,1.50
18:42:41.093750,5.46
18:42:41.109375,10.10
18:42:41.125000,14.59
18:42:41.140625,18.11
18:42:41.156250,20.09
18:42:41.171875,20.37
18:42:41.187500,19.24
18:42:41.203125,17.40
18:42:41.218750,15.67
18:42:41.234375,14.70
18:42:41.250000,14.60
18:42:41.265625,14.95
18:42:41.281250,15.06
18:42:41.296875,14.43
18:42:41.312500,13.10
18:42:41.328125,11.68
18:42:41.343750,10.97
18:42:41.359375,11.44
18:42:41.375000,12.92
18:42:41.390625,14.60
18:42:41.406250,15.43
18:42:41.421875,14.60
18:42:41.437500,11.82
18:42:41.453125,7.32
18:42:41.468750,1.68
18:42:41.484375,-4.46
18:42:41.500000,-10.42
18:42:41.515625,-15.65
18:42:41.531250,-19.66
18:42:41.546875,-22.09
18:42:41.562500,-22.75
18:42:41.578125,-21.73
18:42:41.593750,-19.41
18:42:41.609375,-16.43
18:42:41.625000,-13.57
18:42:41.640625,-11.65
18:42:41.656250,-11.31
18:42:41.671875,-12.94
18:42:41.687500,-16.51
18:42:41.703125,-21.52
18:42:41.718750,-27.05
18:42:41.734375,-31.89
18:42:41.750000,-34.85
18:42:41.765625,-35.16
18:42:41.781250,-32.68
18:42:41.796875,-28.03
18:42:41.812500,-22.34
18:42:41.828125,-16.91
18:42:41.843750,-12.76
18:42:41.859375,-10.42
18:42:41.875000,-9.84
18:42:41.890625,-10.57
18:42:41.906250,-12.04
18:42:41.921875,-13.88
18:42:41.937500,-15.97
18:42:41.953125,-18.37
18:42:41.968750,-21.15
18:42:41.984375,-24.16
18:42:42,-26.98
18:42:42.015625,-29.09
18:42:42.031250,-30.04
18:42:42.046875,-29.72
18:42:42.062500,-28.36
18:42:42.078125,-26.45
18:42:42.093750,-24.41
18:42:42.109375,-22.48
18:42:42.125000,-20.60
18:42:42.140625,-18.60
18:42:42.156250,-16.38
18:42:42.171875,-14.08
18:42:42.187500,-12.05
18:42:42.203125,-10.63
18:42:42.218750,-10.02
18:42:42.234375,-10.10
18:42:42.250000,-10.57
18:42:42.265625,-11.06
18:42:42.281250,-11.37
18:42:42.296875,-11.54
18:42:42.312500,-11.81
18:42:42.328125,-12.48
18:42:42.343750,-13.70
18:42:42.359375,-15.44
18:42:42.375000,-17.43
18:42:42.390625,-19.24
18:42:42.406250,-20.39
18:42:42.421875,-20.50
18:42:42.437500,-19.34
18:42:42.453125,-16.92
18:42:42.468750,-13.47
18:42:42.484375,-9.43
18:42:42.500000,-5.30
18:42:42.515625,-1.55
18:42:42.531250,1.54
18:42:42.546875,3.96
18:42:42.562500,5.97
18:42:42.578125,7.98
18:42:42.593750,10.38
18:42:42.609375,13.31
18:42:42.625000,16.64
18:42:42.640625,20.02
18:42:42.656250,23.02
18:42:42.671875,25.33
18:42:42.687500,26.87
18:42:42.703125,27.75
18:42:42.718750,28.14
18:42:42.734375,28.22
18:42:42.750000,28.07
18:42:42.765625,27.73
18:42:42.781250,27.26
18:42:42.796875,26.77
18:42:42.812500,26.43
18:42:42.828125,26.35
18:42:42.843750,26.53
18:42:42.859375,26.83
18:42:42.875000,27.01
18:42:42.890625,26.84
18:42:42.906250,26.20
18:42:42.921875,25.17
18:42:42.937500,24.02
18:42:42.953125,23.04
18:42:42.968750,22.45
18:42:42.984375,22.16
18:42:43,21.81
18:42:43.015625,20.97
18:42:43.031250,19.32
18:42:43.046875,16.90
18:42:43.062500,14.13
18:42:43.078125,11.65
18:42:43.093750,10.02
18:42:43.109375,9.47
18:42:43.125000,9.77
18:42:43.140625,10.40
18:42:43.156250,10.74
18:42:43.171875,10.34
18:42:43.187500,9.10
18:42:43.203125,7.29
18:42:43.218750,5.41
18:42:43.234375,4.04
18:42:43.250000,3.69
18:42:43.265625,4.67
18:42:43.281250,7.04
18:42:43.296875,10.67
18:42:43.312500,15.26
18:42:43.328125,20.37
18:42:43.343750,25.52
18:42:43.359375,30.38
18:42:43.375000,34.98
18:42:43.390625,39.94
18:42:43.406250,46.35
18:42:43.421875,55.50
18:42:43.437500,68.12
18:42:43.453125,84.04
18:42:43.468750,102.10
18:42:43.484375,120.66
18:42:43.500000,138.31
18:42:43.515625,154.45
18:42:43.531250,169.15
18:42:43.546875,182.54
18:42:43.562500,194.07
18:42:43.578125,202.26
18:42:43.593750,205.08
18:42:43.609375,200.98
18:42:43.625000,189.82
18:42:43.640625,173.05
18:42:43.656250,153.18
18:42:43.671875,132.74
18:42:43.687500,113.44
18:42:43.703125,95.87
18:42:43.718750,79.92
18:42:43.734375,65.43
18:42:43.750000,52.67
18:42:43.765625,42.36
18:42:43.781250,35.26
18:42:43.796875,31.64
18:42:43.812500,30.95
18:42:43.828125,31.98
18:42:43.843750,33.39
18:42:43.859375,34.30
18:42:43.875000,34.78
18:42:43.890625,35.79
18:42:43.906250,38.56
18:42:43.921875,43.87
18:42:43.937500,51.31
18:42:43.953125,59.11
18:42:43.968750,64.64
18:42:43.984375,65.19
18:42:44,58.93
18:42:44.015625,45.53
18:42:44.031250,26.10
18:42:44.046875,2.77
18:42:44.062500,-22.10
18:42:44.078125,-46.52
18:42:44.093750,-69.17
18:42:44.109375,-89.44
18:42:44.125000,-107.05
18:42:44.140625,-121.95
18:42:44.156250,-134.15
18:42:44.171875,-143.75
18:42:44.187500,-151.03
18:42:44.203125,-156.45
18:42:44.218750,-160.49
18:42:44.234375,-163.46
18:42:44.250000,-165.29
18:42:44.265625,-165.47
18:42:44.281250,-163.33
18:42:44.296875,-158.26
18:42:44.312500,-149.99
18:42:44.328125,-138.69
18:42:44.343750,-124.82
18:42:44.359375,-109.01
18:42:44.375000,-91.82
18:42:44.390625,-73.89
18:42:44.406250,-55.95
18:42:44.421875,-38.97
18:42:44.437500,-24.11
18:42:44.453125,-12.44
18:42:44.468750,-4.58
18:42:44.484375,-0.48
18:42:44.500000,0.56
18:42:44.515625,-0.33
18:42:44.531250,-2.01
18:42:44.546875,-3.58
18:42:44.562500,-4.60
18:42:44.578125,-4.93
18:42:44.593750,-4.71
18:42:44.609375,-4.17
18:42:44.625000,-3.60
18:42:44.640625,-3.34
18:42:44.656250,-3.73
18:42:44.671875,-5.06
18:42:44.687500,-7.35
18:42:44.703125,-10.41
18:42:44.718750,-13.77
18:42:44.734375,-16.98
18:42:44.750000,-19.66
18:42:44.765625,-21.70
18:42:44.781250,-23.17
18:42:44.796875,-24.27
18:42:44.812500,-25.23
18:42:44.828125,-26.15
18:42:44.843750,-27.14
18:42:44.859375,-28.26
18:42:44.875000,-29.59
18:42:44.890625,-31.20
18:42:44.906250,-33.12
18:42:44.921875,-35.26
18:42:44.937500,-37.43
18:42:44.953125,-39.45
18:42:44.968750,-41.18
18:42:44.984375,-42.61
18:42:45,-43.83
18:42:45.015625,-44.92
18:42:45.031250,-45.86
18:42:45.046875,-46.46
18:42:45.062500,-46.41
18:42:45.078125,-45.37
18:42:45.093750,-43.13
18:42:45.109375,-39.73
18:42:45.125000,-35.49
18:42:45.140625,-30.90
18:42:45.156250,-26.51
18:42:45.171875,-22.72
18:42:45.187500,-19.72
18:42:45.203125,-17.51
18:42:45.218750,-15.99
18:42:45.234375,-15.03
18:42:45.250000,-14.48
18:42:45.265625,-14.18
18:42:45.281250,-13.88
18:42:45.296875,-13.27
18:42:45.312500,-12.12
18:42:45.328125,-10.37
18:42:45.343750,-8.15
18:42:45.359375,-5.74
18:42:45.375000,-3.39
18:42:45.390625,-1.27
18:42:45.406250,0.65
18:42:45.421875,2.42
18:42:45.437500,4.07
18:42:45.453125,5.58
18:42:45.468750,6.85
18:42:45.484375,7.86
18:42:45.500000,8.63
18:42:45.515625,9.25
18:42:45.531250,9.80
18:42:45.546875,10.31
18:42:45.562500,10.74
18:42:45.578125,11.05
18:42:45.593750,11.22
18:42:45.609375,11.31
18:42:45.625000,11.38
18:42:45.640625,11.49
18:42:45.656250,11.59
18:42:45.671875,11.60
18:42:45.687500,11.45
18:42:45.703125,11.09
18:42:45.718750,10.55
18:42:45.734375,9.92
18:42:45.750000,9.29
18:42:45.765625,8.75
18:42:45.781250,8.32
18:42:45.796875,8.01
18:42:45.812500,7.78
18:42:45.828125,7.59
18:42:45.843750,7.40
18:42:45.859375,7.18
18:42:45.875000,6.91
18:42:45.890625,6.55
18:42:45.906250,6.08
18:42:45.921875,5.48
18:42:45.937500,4.79
18:42:45.953125,4.09
18:42:45.968750,3.45
18:42:45.984375,2.85
18:42:46,2.19
18:42:46.015625,1.29
18:42:46.031250,-0.05
18:42:46.046875,-1.84
18:42:46.062500,-3.93
18:42:46.078125,-5.99
18:42:46.093750,-7.66
18:42:46.109375,-8.80
18:42:46.125000,-9.54
18:42:46.140625,-10.22
18:42:46.156250,-11.24
18:42:46.171875,-12.82
18:42:46.187500,-14.90
18:42:46.203125,-17.17
18:42:46.218750,-19.23
18:42:46.234375,-20.77
18:42:46.250000,-21.67
18:42:46.265625,-21.94
18:42:46.281250,-21.61
18:42:46.296875,-20.64
18:42:46.312500,-18.89
18:42:46.328125,-16.25
18:42:46.343750,-12.77
18:42:46.359375,-8.78
18:42:46.375000,-4.81
18:42:46.390625,-1.39
18:42:46.406250,1.22
18:42:46.421875,3.05
18:42:46.437500,4.48
18:42:46.453125,5.94
18:42:46.468750,7.69
18:42:46.484375,9.72
18:42:46.500000,11.75
18:42:46.515625,13.45
18:42:46.531250,14.60
18:42:46.546875,15.23
18:42:46.562500,15.51
18:42:46.578125,15.73
18:42:46.593750,16.08
18:42:46.609375,16.65
18:42:46.625000,17.46
18:42:46.640625,18.46
18:42:46.656250,19.61
18:42:46.671875,20.83
18:42:46.687500,22.05
18:42:46.703125,23.10
18:42:46.718750,23.76
18:42:46.734375,23.70
18:42:46.750000,22.60
18:42:46.765625,20.25
18:42:46.781250,16.61
18:42:46.796875,11.84
18:42:46.812500,6.34
18:42:46.828125,0.58
18:42:46.843750,-4.98
18:42:46.859375,-9.98
18:42:46.875000,-14.18
18:42:46.890625,-17.43
18:42:46.906250,-19.66
18:42:46.921875,-20.90
18:42:46.937500,-21.30
18:42:46.953125,-21.09
18:42:46.968750,-20.60
18:42:46.984375,-20.08
18:42:47,-19.68
18:42:47.015625,-19.39
18:42:47.031250,-19.09
18:42:47.046875,-18.74
18:42:47.062500,-18.34
18:42:47.078125,-18.03
18:42:47.093750,-17.98
18:42:47.109375,-18.32
18:42:47.125000,-19.07
18:42:47.140625,-20.17
18:42:47.156250,-21.47
18:42:47.171875,-22.82
18:42:47.187500,-24.05
18:42:47.203125,-25.00
18:42:47.218750,-25.59
18:42:47.234375,-25.84
18:42:47.250000,-25.91
18:42:47.265625,-25.92
18:42:47.281250,-25.87
18:42:47.296875,-25.57
18:42:47.312500,-24.61
18:42:47.328125,-22.72
18:42:47.343750,-19.92
18:42:47.359375,-16.75
18:42:47.375000,-14.11
18:42:47.390625,-12.97
18:42:47.406250,-14.11
18:42:47.421875,-17.83
18:42:47.437500,-23.92
18:42:47.453125,-31.77
18:42:47.468750,-40.54
18:42:47.484375,-49.26
18:42:47.500000,-57.00
18:42:47.515625,-63.02
18:42:47.531250,-66.91
18:42:47.546875,-68.77
18:42:47.562500,-69.16
18:42:47.578125,-68.85
18:42:47.593750,-68.53
18:42:47.609375,-68.54
18:42:47.625000,-68.64
18:42:47.640625,-68.07
18:42:47.656250,-65.63
18:42:47.671875,-60.16
18:42:47.687500,-51.05
18:42:47.703125,-38.85
18:42:47.718750,-25.43
18:42:47.734375,-13.42
18:42:47.750000,-4.98
18:42:47.765625,-0.40
18:42:47.781250,2.26
18:42:47.796875,6.51
18:42:47.812500,15.79
18:42:47.828125,32.09
18:42:47.843750,55.64
18:42:47.859375,85.42
18:42:47.875000,120.07
18:42:47.890625,157.93
18:42:47.906250,196.40
18:42:47.921875,231.25
18:42:47.937500,256.90
18:42:47.953125,268.13
18:42:47.968750,262.34
18:42:47.984375,241.06
18:42:48,209.44
18:42:48.015625,174.07
18:42:48.031250,140.30
18:42:48.046875,110.67
18:42:48.062500,84.95
18:42:48.078125,61.64
18:42:48.093750,39.43
18:42:48.109375,18.04
18:42:48.125000,-1.99
18:42:48.140625,-19.84
18:42:48.156250,-34.84
18:42:48.171875,-46.70
18:42:48.187500,-55.40
18:42:48.203125,-61.25
18:42:48.218750,-64.81
18:42:48.234375,-66.84
18:42:48.250000,-68.06
18:42:48.265625,-68.91
18:42:48.281250,-69.42
18:42:48.296875,-69.30
18:42:48.312500,-68.19
18:42:48.328125,-65.93
18:42:48.343750,-62.56
18:42:48.359375,-58.37
18:42:48.375000,-53.78
18:42:48.390625,-49.28
18:42:48.406250,-45.32
18:42:48.421875,-42.25
18:42:48.437500,-40.15
18:42:48.453125,-38.88
18:42:48.468750,-38.05
18:42:48.484375,-37.27
18:42:48.500000,-36.27
18:42:48.515625,-34.94
18:42:48.531250,-33.35
18:42:48.546875,-31.57
18:42:48.562500,-29.63
18:42:48.578125,-27.50
18:42:48.593750,-25.16
18:42:48.609375,-22.72
18:42:48.625000,-20.37
18:42:48.640625,-18.35
18:42:48.656250,-16.83
18:42:48.671875,-15.78
18:42:48.687500,-15.01
18:42:48.703125,-14.27
18:42:48.718750,-13.33
18:42:48.734375,-12.15
18:42:48.750000,-10.82
18:42:48.765625,-9.55
18:42:48.781250,-8.52
18:42:48.796875,-7.79
18:42:48.812500,-7.22
18:42:48.828125,-6.57
18:42:48.843750,-5.58
18:42:48.859375,-4.12
18:42:48.875000,-2.24
18:42:48.890625,-0.20
18:42:48.906250,1.64
18:42:48.921875,2.94
18:42:48.937500,3.51
18:42:48.953125,3.38
18:42:48.968750,2.81
18:42:48.984375,2.16
18:42:49,1.71
18:42:49.015625,1.56
18:42:49.031250,1.63
18:42:49.046875,1.66
18:42:49.062500,1.43
18:42:49.078125,0.85
18:42:49.093750,-0.00
18:42:49.109375,-0.98
18:42:49.125000,-1.92
18:42:49.140625,-2.79
18:42:49.156250,-3.63
18:42:49.171875,-4.52
18:42:49.187500,-5.43
18:42:49.203125,-6.28
18:42:49.218750,-6.95
18:42:49.234375,-7.38
18:42:49.250000,-7.60
18:42:49.265625,-7.72
18:42:49.281250,-7.91
18:42:49.296875,-8.20
18:42:49.312500,-8.52
18:42:49.328125,-8.63
18:42:49.343750,-8.27
18:42:49.359375,-7.25
18:42:49.375000,-5.56
18:42:49.390625,-3.36
18:42:49.406250,-1.00
18:42:49.421875,1.19
18:42:49.437500,2.96
18:42:49.453125,4.23
18:42:49.468750,5.03
18:42:49.484375,5.53
18:42:49.500000,5.87
18:42:49.515625,6.12
18:42:49.531250,6.33
18:42:49.546875,6.46
18:42:49.562500,6.49
18:42:49.578125,6.41
18:42:49.593750,6.24
18:42:49.609375,6.01
18:42:49.625000,5.79
18:42:49.640625,5.65
18:42:49.656250,5.68
18:42:49.671875,5.99
18:42:49.687500,6.66
18:42:49.703125,7.66
18:42:49.718750,8.88
18:42:49.734375,10.04
18:42:49.750000,10.84
18:42:49.765625,11.04
18:42:49.781250,10.62
18:42:49.796875,9.72
18:42:49.812500,8.59
18:42:49.828125,7.43
18:42:49.843750,6.31
18:42:49.859375,5.16
18:42:49.875000,3.92
18:42:49.890625,2.65
18:42:49.906250,1.49
18:42:49.921875,0.63
18:42:49.937500,0.17
18:42:49.953125,0.06
18:42:49.968750,0.16
18:42:49.984375,0.32
18:42:50,0.45
18:42:50.015625,0.55
18:42:50.031250,0.62
18:42:50.046875,0.65
18:42:50.062500,0.60
18:42:50.078125,0.49
18:42:50.093750,0.36
18:42:50.109375,0.30
18:42:50.125000,0.34
18:42:50.140625,0.43
18:42:50.156250,0.40
18:42:50.171875,0.13
18:42:50.187500,-0.41
18:42:50.203125,-1.16
18:42:50.218750,-2.00
18:42:50.234375,-2.81
18:42:50.250000,-3.52
18:42:50.265625,-4.09
18:42:50.281250,-4.45
18:42:50.296875,-4.47
18:42:50.312500,-4.06
18:42:50.328125,-3.15
18:42:50.343750,-1.81
18:42:50.359375,-0.22
18:42:50.375000,1.39
18:42:50.390625,2.78
18:42:50.406250,3.77
18:42:50.421875,4.21
18:42:50.437500,4.08
18:42:50.453125,3.51
18:42:50.468750,2.77
18:42:50.484375,2.22
18:42:50.500000,2.19
18:42:50.515625,2.81
18:42:50.531250,3.95
18:42:50.546875,5.26
18:42:50.562500,6.42
18:42:50.578125,7.22
18:42:50.593750,7.71
18:42:50.609375,8.09
18:42:50.625000,8.49
18:42:50.640625,8.92
18:42:50.656250,9.20
18:42:50.671875,9.15
18:42:50.687500,8.71
18:42:50.703125,8.01
18:42:50.718750,7.32
18:42:50.734375,6.90
18:42:50.750000,6.86
18:42:50.765625,7.06
18:42:50.781250,7.30
18:42:50.796875,7.35
18:42:50.812500,7.13
18:42:50.828125,6.72
18:42:50.843750,6.26
18:42:50.859375,5.89
18:42:50.875000,5.66
18:42:50.890625,5.55
18:42:50.906250,5.45
18:42:50.921875,5.24
18:42:50.937500,4.83
18:42:50.953125,4.16
18:42:50.968750,3.25
18:42:50.984375,2.20
18:42:51,1.14
18:42:51.015625,0.21
18:42:51.031250,-0.52
18:42:51.046875,-1.07
18:42:51.062500,-1.53
18:42:51.078125,-2.01
18:42:51.093750,-2.55
18:42:51.109375,-3.14
18:42:51.125000,-3.74
18:42:51.140625,-4.35
18:42:51.156250,-5.04
18:42:51.171875,-5.93
18:42:51.187500,-7.14
18:42:51.203125,-8.60
18:42:51.218750,-10.08
18:42:51.234375,-11.19
18:42:51.250000,-11.53
18:42:51.265625,-10.88
18:42:51.281250,-9.25
18:42:51.296875,-6.89
18:42:51.312500,-4.18
18:42:51.328125,-1.49
18:42:51.343750,0.88
18:42:51.359375,2.81
18:42:51.375000,4.29
18:42:51.390625,5.35
18:42:51.406250,6.05
18:42:51.421875,6.44
18:42:51.437500,6.58
18:42:51.453125,6.60
18:42:51.468750,6.66
18:42:51.484375,6.92
18:42:51.500000,7.45
18:42:51.515625,8.21
18:42:51.531250,9.09
18:42:51.546875,9.92
18:42:51.562500,10.56
18:42:51.578125,10.97
18:42:51.593750,11.16
18:42:51.609375,11.18
18:42:51.625000,11.09
18:42:51.640625,10.89
18:42:51.656250,10.61
18:42:51.671875,10.22
18:42:51.687500,9.79
18:42:51.703125,9.38
18:42:51.718750,9.07
18:42:51.734375,8.91
18:42:51.750000,8.89
18:42:51.765625,8.92
18:42:51.781250,8.96
18:42:51.796875,8.96
18:42:51.812500,8.94
18:42:51.828125,8.97
18:42:51.843750,9.14
18:42:51.859375,9.48
18:42:51.875000,9.97
18:42:51.890625,10.51
18:42:51.906250,10.88
18:42:51.921875,10.93
18:42:51.937500,10.51
18:42:51.953125,9.63
18:42:51.968750,8.41
18:42:51.984375,7.05
18:42:52,5.76
18:42:52.015625,4.64
18:42:52.031250,3.67
18:42:52.046875,2.69
18:42:52.062500,1.56
18:42:52.078125,0.21
18:42:52.093750,-1.28
18:42:52.109375,-2.65
18:42:52.125000,-3.58
18:42:52.140625,-3.83
18:42:52.156250,-3.30
18:42:52.171875,-2.13
18:42:52.187500,-0.66
18:42:52.203125,0.72
18:42:52.218750,1.64
18:42:52.234375,1.95
18:42:52.250000,1.73
18:42:52.265625,1.27
18:42:52.281250,0.99
18:42:52.296875,1.23
18:42:52.312500,2.12
18:42:52.328125,3.45
18:42:52.343750,4.81
18:42:52.359375,5.75
18:42:52.375000,6.05
18:42:52.390625,5.82
18:42:52.406250,5.48
18:42:52.421875,5.51
18:42:52.437500,6.18
18:42:52.453125,7.43
18:42:52.468750,8.87
18:42:52.484375,9.96
18:42:52.500000,10.24
18:42:52.515625,9.57
18:42:52.531250,8.06
18:42:52.546875,6.09
18:42:52.562500,4.04
18:42:52.578125,2.21
18:42:52.593750,0.65
18:42:52.609375,-0.74
18:42:52.625000,-2.06
18:42:52.640625,-3.30
18:42:52.656250,-4.23
18:42:52.671875,-4.52
18:42:52.687500,-3.91
18:42:52.703125,-2.53
18:42:52.718750,-0.92
18:42:52.734375,0.09
18:42:52.750000,-0.28
18:42:52.765625,-2.39
18:42:52.781250,-5.95
18:42:52.796875,-10.10
18:42:52.812500,-13.68
18:42:52.828125,-15.74
18:42:52.843750,-15.87
18:42:52.859375,-14.41
18:42:52.875000,-12.28
18:42:52.890625,-10.67
18:42:52.906250,-10.45
18:42:52.921875,-11.79
18:42:52.937500,-14.02
18:42:52.953125,-15.89
18:42:52.968750,-16.07
18:42:52.984375,-13.71
18:42:53,-8.77
18:42:53.015625,-1.99
18:42:53.031250,5.32
18:42:53.046875,11.61
18:42:53.062500,15.20
18:42:53.078125,14.55
18:42:53.093750,8.70
18:42:53.109375,-2.01
18:42:53.125000,-15.52
18:42:53.140625,-28.18
18:42:53.156250,-35.88
18:42:53.171875,-35.61
18:42:53.187500,-26.79
18:42:53.203125,-11.60
18:42:53.218750,6.06
18:42:53.234375,22.41
18:42:53.250000,35.40
18:42:53.265625,45.22
18:42:53.281250,53.47
18:42:53.296875,61.59
18:42:53.312500,69.63
18:42:53.328125,76.16
18:42:53.343750,79.26
18:42:53.359375,77.91
18:42:53.375000,72.77
18:42:53.390625,65.93
18:42:53.406250,59.73
18:42:53.421875,55.64
18:42:53.437500,53.51
18:42:53.453125,51.96
18:42:53.468750,49.26
18:42:53.484375,44.33
18:42:53.500000,37.24
18:42:53.515625,29.02
18:42:53.531250,20.99
18:42:53.546875,14.10
18:42:53.562500,8.60
18:42:53.578125,4.13
18:42:53.593750,0.09
18:42:53.609375,-3.96
18:42:53.625000,-8.02
18:42:53.640625,-11.76
18:42:53.656250,-14.72
18:42:53.671875,-16.62
18:42:53.687500,-17.60
18:42:53.703125,-18.31
18:42:53.718750,-19.67
18:42:53.734375,-22.57
18:42:53.750000,-27.45
18:42:53.765625,-34.03
18:42:53.781250,-41.42
18:42:53.796875,-48.41
18:42:53.812500,-53.87
18:42:53.828125,-57.17
18:42:53.843750,-58.29
18:42:53.859375,-57.70
18:42:53.875000,-56.02
18:42:53.890625,-53.70
18:42:53.906250,-50.86
18:42:53.921875,-47.40
18:42:53.937500,-43.31
18:42:53.953125,-38.84
18:42:53.968750,-34.60
18:42:53.984375,-31.23
18:42:54,-29.10
18:42:54.015625,-28.24
18:42:54.031250,-28.28
18:42:54.046875,-28.78
18:42:54.062500,-29.30
18:42:54.078125,-29.36
18:42:54.093750,-28.20
18:42:54.109375,-24.68
18:42:54.125000,-17.57
18:42:54.140625,-6.11
18:42:54.156250,9.31
18:42:54.171875,27.03
18:42:54.187500,44.49
18:42:54.203125,59.07
18:42:54.218750,68.98
18:42:54.234375,73.57
18:42:54.250000,73.30
18:42:54.265625,69.22
18:42:54.281250,62.57
18:42:54.296875,54.51
18:42:54.312500,46.20
18:42:54.328125,38.69
18:42:54.343750,32.85
18:42:54.359375,29.07
18:42:54.375000,27.08
18:42:54.390625,26.00
18:42:54.406250,24.75
18:42:54.421875,22.36
18:42:54.437500,18.42
18:42:54.453125,13.04
18:42:54.468750,6.76
18:42:54.484375,0.20
18:42:54.500000,-6.07
18:42:54.515625,-11.67
18:42:54.531250,-16.43
18:42:54.546875,-20.38
18:42:54.562500,-23.69
18:42:54.578125,-26.57
18:42:54.593750,-29.24
18:42:54.609375,-31.82
18:42:54.625000,-34.38
18:42:54.640625,-36.95
18:42:54.656250,-39.57
18:42:54.671875,-42.28
18:42:54.687500,-45.12
18:42:54.703125,-48.00
18:42:54.718750,-50.69
18:42:54.734375,-52.80
18:42:54.750000,-53.88
18:42:54.765625,-53.55
18:42:54.781250,-51.64
18:42:54.796875,-48.22
18:42:54.812500,-43.63
18:42:54.828125,-38.35
18:42:54.843750,-32.92
18:42:54.859375,-27.78
18:42:54.875000,-23.15
18:42:54.890625,-19.04
18:42:54.906250,-15.29
18:42:54.921875,-11.69
18:42:54.937500,-8.06
18:42:54.953125,-4.33
18:42:54.968750,-0.53
18:42:54.984375,3.29
18:42:55,7.07
18:42:55.015625,10.70
18:42:55.031250,14.11
18:42:55.046875,17.18
18:42:55.062500,19.75
18:42:55.078125,21.76
18:42:55.093750,23.16
18:42:55.109375,23.94
18:42:55.125000,24.12
18:42:55.140625,23.64
18:42:55.156250,22.40
18:42:55.171875,20.29
18:42:55.187500,17.26
18:42:55.203125,13.36
18:42:55.218750,8.80
18:42:55.234375,3.93
18:42:55.250000,-0.88
18:42:55.265625,-5.31
18:42:55.281250,-9.16
18:42:55.296875,-12.41
18:42:55.312500,-15.23
18:42:55.328125,-17.79
18:42:55.343750,-20.25
18:42:55.359375,-22.61
18:42:55.375000,-24.72
18:42:55.390625,-26.33
18:42:55.406250,-27.29
18:42:55.421875,-27.61
18:42:55.437500,-27.51
18:42:55.453125,-27.35
18:42:55.468750,-27.34
18:42:55.484375,-27.52
18:42:55.500000,-27.69
18:42:55.515625,-27.60
18:42:55.531250,-27.10
18:42:55.546875,-26.30
18:42:55.562500,-25.48
18:42:55.578125,-24.93
18:42:55.593750,-24.88
18:42:55.609375,-25.36
18:42:55.625000,-26.36
18:42:55.640625,-27.89
18:42:55.656250,-30.01
18:42:55.671875,-32.76
18:42:55.687500,-35.90
18:42:55.703125,-38.97
18:42:55.718750,-41.35
18:42:55.734375,-42.69
18:42:55.750000,-43.18
18:42:55.765625,-43.70
18:42:55.781250,-45.46
18:42:55.796875,-49.32
18:42:55.812500,-55.12
18:42:55.828125,-61.34
18:42:55.843750,-65.54
18:42:55.859375,-65.13
18:42:55.875000,-58.27
18:42:55.890625,-44.39
18:42:55.906250,-24.08
18:42:55.921875,1.30
18:42:55.937500,30.05
18:42:55.953125,60.33
18:42:55.968750,90.15
18:42:55.984375,117.36
18:42:56,139.96
18:42:56.015625,156.44
18:42:56.031250,166.27
18:42:56.046875,169.87
18:42:56.062500,168.33
18:42:56.078125,162.87
18:42:56.093750,154.48
18:42:56.109375,143.82
18:42:56.125000,131.47
18:42:56.140625,118.12
18:42:56.156250,104.60
18:42:56.171875,91.69
18:42:56.187500,79.92
18:42:56.203125,69.47
18:42:56.218750,60.41
18:42:56.234375,52.71
18:42:56.250000,46.39
18:42:56.265625,41.39
18:42:56.281250,37.46
18:42:56.296875,33.98
18:42:56.312500,30.06
18:42:56.328125,24.72
18:42:56.343750,17.21
18:42:56.359375,7.34
18:42:56.375000,-4.44
18:42:56.390625,-17.10
18:42:56.406250,-29.32
18:42:56.421875,-39.88
18:42:56.437500,-47.93
18:42:56.453125,-53.04
18:42:56.468750,-55.11
18:42:56.484375,-54.29
18:42:56.500000,-50.96
18:42:56.515625,-45.80
18:42:56.531250,-39.79
18:42:56.546875,-33.93
18:42:56.562500,-28.96
18:42:56.578125,-24.98
18:42:56.593750,-21.40
18:42:56.609375,-17.29
18:42:56.625000,-12.02
18:42:56.640625,-5.71
18:42:56.656250,0.71
18:42:56.671875,6.01
18:42:56.687500,9.35
18:42:56.703125,10.76
18:42:56.718750,11.18
18:42:56.734375,11.91
18:42:56.750000,14.08
18:42:56.765625,18.09
18:42:56.781250,23.69
18:42:56.796875,30.26
18:42:56.812500,37.17
18:42:56.828125,44.10
18:42:56.843750,50.95
18:42:56.859375,57.72
18:42:56.875000,64.32
18:42:56.890625,70.46
18:42:56.906250,75.79
18:42:56.921875,80.01
18:42:56.937500,83.01
18:42:56.953125,84.84
18:42:56.968750,85.56
18:42:56.984375,85.16
18:42:57,83.52
18:42:57.015625,80.29
18:42:57.031250,74.93
18:42:57.046875,66.77
18:42:57.062500,55.28
18:42:57.078125,40.27
18:42:57.093750,22.04
18:42:57.109375,1.36
18:42:57.125000,-20.82
18:42:57.140625,-43.58
18:42:57.156250,-66.18
18:42:57.171875,-87.91
18:42:57.187500,-107.88
18:42:57.203125,-124.84
18:42:57.218750,-137.34
18:42:57.234375,-144.23
18:42:57.250000,-145.19
18:42:57.265625,-141.06
18:42:57.281250,-133.68
18:42:57.296875,-125.24
18:42:57.312500,-117.51
18:42:57.328125,-111.31
18:42:57.343750,-106.50
18:42:57.359375,-102.42
18:42:57.375000,-98.38
18:42:57.390625,-94.09
18:42:57.406250,-89.71
18:42:57.421875,-85.68
18:42:57.437500,-82.41
18:42:57.453125,-80.04
18:42:57.468750,-78.40
18:42:57.484375,-77.15
18:42:57.500000,-75.86
18:42:57.515625,-74.19
18:42:57.531250,-71.84
18:42:57.546875,-68.63
18:42:57.562500,-64.50
18:42:57.578125,-59.54
18:42:57.593750,-54.06
18:42:57.609375,-48.43
18:42:57.625000,-43.04
18:42:57.640625,-38.03
18:42:57.656250,-33.36
18:42:57.671875,-28.83
18:42:57.687500,-24.28
18:42:57.703125,-19.75
18:42:57.718750,-15.58
18:42:57.734375,-12.27
18:42:57.750000,-10.38
18:42:57.765625,-10.32
18:42:57.781250,-12.08
18:42:57.796875,-15.02
18:42:57.812500,-17.89
18:42:57.828125,-18.95
18:42:57.843750,-16.55
18:42:57.859375,-9.80
18:42:57.875000,0.81
18:42:57.890625,13.29
18:42:57.906250,24.65
18:42:57.921875,31.96
18:42:57.937500,33.49
18:42:57.953125,29.40
18:42:57.968750,21.62
18:42:57.984375,12.99
18:42:58,5.99
18:42:58.015625,1.91
18:42:58.031250,0.55
18:42:58.046875,0.70
18:42:58.062500,0.98
18:42:58.078125,0.65
18:42:58.093750,-0.16
18:42:58.109375,-0.54
18:42:58.125000,0.64
18:42:58.140625,4.16
18:42:58.156250,10.09
18:42:58.171875,17.71
18:42:58.187500,25.84
18:42:58.203125,33.30
18:42:58.218750,39.34
18:42:58.234375,43.89
18:42:58.250000,47.37
18:42:58.265625,50.36
18:42:58.281250,53.14
18:42:58.296875,55.56
18:42:58.312500,57.16
18:42:58.328125,57.61
18:42:58.343750,57.15
18:42:58.359375,56.57
18:42:58.375000,56.83
18:42:58.390625,58.45
18:42:58.406250,60.96
18:42:58.421875,62.87
18:42:58.437500,62.17
18:42:58.453125,57.17
18:42:58.468750,47.25
18:42:58.484375,33.09
18:42:58.500000,16.44
18:42:58.515625,-0.50
18:42:58.531250,-15.67
18:42:58.546875,-27.41
18:42:58.562500,-34.63
18:42:58.578125,-36.80
18:42:58.593750,-34.16
18:42:58.609375,-27.81
18:42:58.625000,-19.62
18:42:58.640625,-11.85
18:42:58.656250,-6.52
18:42:58.671875,-4.86
18:42:58.687500,-7.10
18:42:58.703125,-12.67
18:42:58.718750,-20.54
18:42:58.734375,-29.56
18:42:58.750000,-38.47
18:42:58.765625,-45.85
18:42:58.781250,-50.16
18:42:58.796875,-50.01
18:42:58.812500,-44.70
18:42:58.828125,-34.58
18:42:58.843750,-21.04
18:42:58.859375,-6.11
18:42:58.875000,8.18
18:42:58.890625,20.29
18:42:58.906250,29.41
18:42:58.921875,35.37
18:42:58.937500,38.57
18:42:58.953125,39.78
18:42:58.968750,39.90
18:42:58.984375,39.71
18:42:59,39.61
18:42:59.015625,39.46
18:42:59.031250,38.65
18:42:59.046875,36.40
18:42:59.062500,32.14
18:42:59.078125,25.81
18:42:59.093750,17.88
18:42:59.109375,9.07
18:42:59.125000,0.12
18:42:59.140625,-8.48
18:42:59.156250,-16.39
18:42:59.171875,-23.31
18:42:59.187500,-28.80
18:42:59.203125,-32.33
18:42:59.218750,-33.50
18:42:59.234375,-32.33
18:42:59.250000,-29.32
18:42:59.265625,-25.31
18:42:59.281250,-21.16
18:42:59.296875,-17.37
18:42:59.312500,-13.96
18:42:59.328125,-10.61
18:42:59.343750,-6.92
18:42:59.359375,-2.69
18:42:59.375000,1.90
18:42:59.390625,6.48
18:42:59.406250,10.69
18:42:59.421875,14.47
18:42:59.437500,18.20
18:42:59.453125,22.62
18:42:59.468750,28.57
18:42:59.484375,36.64
18:42:59.500000,46.76
18:42:59.515625,58.06
18:42:59.531250,69.05
18:42:59.546875,78.13
18:42:59.562500,84.11
18:42:59.578125,86.77
18:42:59.593750,86.69
18:42:59.609375,84.97
18:42:59.625000,82.51
18:42:59.640625,79.64
18:42:59.656250,76.14
18:42:59.671875,71.64
18:42:59.687500,66.09
18:42:59.703125,60.04
18:42:59.718750,54.34
18:42:59.734375,49.63
18:42:59.750000,45.99
18:42:59.765625,42.89
18:42:59.781250,39.71
18:42:59.796875,36.36
18:42:59.812500,33.47
18:42:59.828125,32.15
18:42:59.843750,33.21
18:42:59.859375,36.54
18:42:59.875000,40.89
18:42:59.890625,44.26
18:42:59.906250,44.78
18:42:59.921875,41.43
18:42:59.937500,34.34
18:42:59.953125,24.53
18:42:59.968750,13.32
18:42:59.984375,1.84
18:43:00,-9.06
18:43:00.015625,-18.71
18:43:00.031250,-26.36
18:43:00.046875,-31.19
18:43:00.062500,-32.58
18:43:00.078125,-30.46
18:43:00.093750,-25.57
18:43:00.109375,-19.28
18:43:00.125000,-13.16
18:43:00.140625,-8.50
18:43:00.156250,-5.83
18:43:00.171875,-4.89
18:43:00.187500,-4.87
18:43:00.203125,-4.93
18:43:00.218750,-4.62
18:43:00.234375,-4.06
18:43:00.250000,-3.81
18:43:00.265625,-4.39
18:43:00.281250,-5.90
18:43:00.296875,-7.81
18:43:00.312500,-9.20
18:43:00.328125,-9.26
18:43:00.343750,-7.85
18:43:00.359375,-5.64
18:43:00.375000,-3.92
18:43:00.390625,-3.98
18:43:00.406250,-6.49
18:43:00.421875,-11.27
18:43:00.437500,-17.37
18:43:00.453125,-23.58
18:43:00.468750,-28.92
18:43:00.484375,-32.99
18:43:00.500000,-35.95
18:43:00.515625,-38.34
18:43:00.531250,-40.69
18:43:00.546875,-43.19
18:43:00.562500,-45.65
18:43:00.578125,-47.54
18:43:00.593750,-48.30
18:43:00.609375,-47.64
18:43:00.625000,-45.69
18:43:00.640625,-42.96
18:43:00.656250,-40.10
18:43:00.671875,-37.53
18:43:00.687500,-35.25
18:43:00.703125,-32.90
18:43:00.718750,-30.06
18:43:00.734375,-26.58
18:43:00.750000,-22.82
18:43:00.765625,-19.48
18:43:00.781250,-17.30
18:43:00.796875,-16.68
18:43:00.812500,-17.42
18:43:00.828125,-18.86
18:43:00.843750,-20.12
18:43:00.859375,-20.42
18:43:00.875000,-19.35
18:43:00.890625,-16.89
18:43:00.906250,-13.33
18:43:00.921875,-9.07
18:43:00.937500,-4.53
18:43:00.953125,-0.02
18:43:00.968750,4.26
18:43:00.984375,8.16
18:43:01,11.55
18:43:01.015625,14.29
18:43:01.031250,16.24
18:43:01.046875,17.30
18:43:01.062500,17.46
18:43:01.078125,16.84
18:43:01.093750,15.67
18:43:01.109375,14.23
18:43:01.125000,12.75
18:43:01.140625,11.38
18:43:01.156250,10.18
18:43:01.171875,9.17
18:43:01.187500,8.43
18:43:01.203125,8.06
18:43:01.218750,8.18
18:43:01.234375,8.83
18:43:01.250000,9.95
18:43:01.265625,11.31
18:43:01.281250,12.64
18:43:01.296875,13.63
18:43:01.312500,14.11
18:43:01.328125,14.06
18:43:01.343750,13.55
18:43:01.359375,12.71
18:43:01.375000,11.62
18:43:01.390625,10.37
18:43:01.406250,9.02
18:43:01.421875,7.71
18:43:01.437500,6.62
18:43:01.453125,5.94
18:43:01.468750,5.73
18:43:01.484375,5.91
18:43:01.500000,6.22
18:43:01.515625,6.37
18:43:01.531250,6.22
18:43:01.546875,5.90
18:43:01.562500,5.71
18:43:01.578125,6.00
18:43:01.593750,6.84
18:43:01.609375,7.94
18:43:01.625000,8.67
18:43:01.640625,8.44
18:43:01.656250,6.98
18:43:01.671875,4.64
18:43:01.687500,2.20
18:43:01.703125,0.50
18:43:01.718750,-0.02
18:43:01.734375,0.48
18:43:01.750000,1.46
18:43:01.765625,2.59
18:43:01.781250,4.15
18:43:01.796875,7.07
18:43:01.812500,12.53
18:43:01.828125,21.42
18:43:01.843750,33.99
18:43:01.859375,49.76
18:43:01.875000,67.72
18:43:01.890625,86.39
18:43:01.906250,103.74
18:43:01.921875,117.23
18:43:01.937500,123.96
18:43:01.953125,121.42
18:43:01.968750,108.23
18:43:01.984375,84.91
18:43:02,53.81
18:43:02.015625,18.51
18:43:02.031250,-17.27
18:43:02.046875,-50.61
18:43:02.062500,-79.91
18:43:02.078125,-104.65
18:43:02.093750,-124.84
18:43:02.109375,-140.39
18:43:02.125000,-150.68
18:43:02.140625,-154.57
18:43:02.156250,-150.89
18:43:02.171875,-139.12
18:43:02.187500,-120.07
18:43:02.203125,-96.15
18:43:02.218750,-70.96
18:43:02.234375,-48.30
18:43:02.250000,-30.98
18:43:02.265625,-20.06
18:43:02.281250,-14.79
18:43:02.296875,-13.32
18:43:02.312500,-13.78
18:43:02.328125,-15.13
18:43:02.343750,-17.31
18:43:02.359375,-20.71
18:43:02.375000,-25.37
18:43:02.390625,-30.45
18:43:02.406250,-34.34
18:43:02.421875,-35.50
18:43:02.437500,-33.33
18:43:02.453125,-28.74
18:43:02.468750,-23.92
18:43:02.484375,-21.33
18:43:02.500000,-22.64
18:43:02.515625,-27.93
18:43:02.531250,-35.70
18:43:02.546875,-43.51
18:43:02.562500,-48.99
18:43:02.578125,-50.60
18:43:02.593750,-48.03
18:43:02.609375,-42.02
18:43:02.625000,-33.88
18:43:02.640625,-25.14
18:43:02.656250,-17.27
18:43:02.671875,-11.66
18:43:02.687500,-9.51
18:43:02.703125,-11.68
18:43:02.718750,-17.96
18:43:02.734375,-26.59
18:43:02.750000,-34.00
18:43:02.765625,-35.55
18:43:02.781250,-26.70
18:43:02.796875,-4.85
18:43:02.812500,29.16
18:43:02.828125,70.84
18:43:02.843750,113.15
18:43:02.859375,148.77
18:43:02.875000,172.71
18:43:02.890625,183.96
18:43:02.906250,185.35
18:43:02.921875,181.93
18:43:02.937500,178.57
18:43:02.953125,178.20
18:43:02.968750,181.10
18:43:02.984375,185.57
18:43:03,189.07
18:43:03.015625,189.25
18:43:03.031250,184.74
18:43:03.046875,175.42
18:43:03.062500,162.12
18:43:03.078125,146.25
18:43:03.093750,129.23
18:43:03.109375,112.20
18:43:03.125000,95.82
18:43:03.140625,80.64
18:43:03.156250,67.21
18:43:03.171875,56.07
18:43:03.187500,47.44
18:43:03.203125,40.57
18:43:03.218750,33.57
18:43:03.234375,23.87
18:43:03.250000,9.32
18:43:03.265625,-10.69
18:43:03.281250,-34.56
18:43:03.296875,-59.02
18:43:03.312500,-80.54
18:43:03.328125,-96.63
18:43:03.343750,-106.55
18:43:03.359375,-111.07
18:43:03.375000,-111.65
18:43:03.390625,-109.85
18:43:03.406250,-107.05
18:43:03.421875,-104.59
18:43:03.437500,-103.78
18:43:03.453125,-105.47
18:43:03.468750,-109.48
18:43:03.484375,-114.10
18:43:03.500000,-116.34
18:43:03.515625,-112.86
18:43:03.531250,-101.49
18:43:03.546875,-82.41
18:43:03.562500,-58.47
18:43:03.578125,-34.39
18:43:03.593750,-15.19
18:43:03.609375,-4.72
18:43:03.625000,-4.79
18:43:03.640625,-15.21
18:43:03.656250,-34.36
18:43:03.671875,-59.81
18:43:03.687500,-88.57
18:43:03.703125,-117.17
18:43:03.718750,-141.79
18:43:03.734375,-159.00
18:43:03.750000,-166.91
18:43:03.765625,-166.23
18:43:03.781250,-160.42
18:43:03.796875,-154.35
18:43:03.812500,-152.01
18:43:03.828125,-154.12
18:43:03.843750,-157.25
18:43:03.859375,-155.11
18:43:03.875000,-141.51
18:43:03.890625,-113.58
18:43:03.906250,-73.42
18:43:03.921875,-27.27
18:43:03.937500,17.27
18:43:03.953125,54.33
18:43:03.968750,81.45
18:43:03.984375,99.16
18:43:04,109.10
18:43:04.015625,112.21
18:43:04.031250,108.31
18:43:04.046875,97.05
18:43:04.062500,79.44
18:43:04.078125,58.48
18:43:04.093750,38.28
18:43:04.109375,22.17
18:43:04.125000,11.21
18:43:04.140625,4.06
18:43:04.156250,-1.59
18:43:04.171875,-7.12
18:43:04.187500,-11.57
18:43:04.203125,-12.02
18:43:04.218750,-5.16
18:43:04.234375,10.67
18:43:04.250000,34.24
18:43:04.265625,61.57
18:43:04.281250,87.35
18:43:04.296875,106.57
18:43:04.312500,116.00
18:43:04.328125,114.67
18:43:04.343750,103.73
18:43:04.359375,85.89
18:43:04.375000,64.76
18:43:04.390625,44.26
18:43:04.406250,28.13
18:43:04.421875,19.16
18:43:04.437500,18.63
18:43:04.453125,25.83
18:43:04.468750,38.03
18:43:04.484375,51.07
18:43:04.500000,60.60
18:43:04.515625,63.52
18:43:04.531250,59.26
18:43:04.546875,50.04
18:43:04.562500,40.07
18:43:04.578125,33.95
18:43:04.593750,34.81
18:43:04.609375,43.00
18:43:04.625000,56.10
18:43:04.640625,70.13
18:43:04.656250,81.27
18:43:04.671875,87.43
18:43:04.687500,88.77
18:43:04.703125,87.17
18:43:04.718750,84.99
18:43:04.734375,83.84
18:43:04.750000,84.00
18:43:04.765625,84.68
18:43:04.781250,84.73
18:43:04.796875,83.45
18:43:04.812500,81.00
18:43:04.828125,78.20
18:43:04.843750,76.09
18:43:04.859375,75.43
18:43:04.875000,76.63
18:43:04.890625,79.80
18:43:04.906250,85.23
18:43:04.921875,93.40
18:43:04.937500,104.62
18:43:04.953125,118.35
18:43:04.968750,132.42
18:43:04.984375,143.07
18:43:05,145.63
18:43:05.015625,135.96
18:43:05.031250,112.01
18:43:05.046875,74.48
18:43:05.062500,26.51
18:43:05.078125,-27.65
18:43:05.093750,-84.03
18:43:05.109375,-139.71
18:43:05.125000,-192.59
18:43:05.140625,-240.78
18:43:05.156250,-282.06
18:43:05.171875,-314.16
18:43:05.187500,-335.51
18:43:05.203125,-345.78
18:43:05.218750,-345.91
18:43:05.234375,-337.49
18:43:05.250000,-322.06
18:43:05.265625,-300.74
18:43:05.281250,-274.55
18:43:05.296875,-244.98
18:43:05.312500,-214.20
18:43:05.328125,-184.67
18:43:05.343750,-158.31
18:43:05.359375,-135.90
18:43:05.375000,-116.85
18:43:05.390625,-99.85
18:43:05.406250,-83.64
18:43:05.421875,-67.64
18:43:05.437500,-52.07
18:43:05.453125,-37.73
18:43:05.468750,-25.75
18:43:05.484375,-16.97
18:43:05.500000,-11.57
18:43:05.515625,-8.64
18:43:05.531250,-5.83
18:43:05.546875,-0.20
18:43:05.562500,10.97
18:43:05.578125,28.85
18:43:05.593750,52.20
18:43:05.609375,77.22
18:43:05.625000,98.70
18:43:05.640625,111.75
18:43:05.656250,113.59
18:43:05.671875,104.95
18:43:05.687500,90.27
18:43:05.703125,76.88
18:43:05.718750,72.58
18:43:05.734375,82.77
18:43:05.750000,107.40
18:43:05.765625,140.11
18:43:05.781250,169.28
18:43:05.796875,181.75
18:43:05.812500,167.93
18:43:05.828125,126.04
18:43:05.843750,63.66
18:43:05.859375,-4.35
18:43:05.875000,-60.99
18:43:05.890625,-93.06
18:43:05.906250,-95.41
18:43:05.921875,-71.87
18:43:05.937500,-32.71
18:43:05.953125,9.89
18:43:05.968750,46.13
18:43:05.984375,70.93
18:43:06,83.69
18:43:06.015625,86.40
18:43:06.031250,81.92
18:43:06.046875,72.48
18:43:06.062500,59.89
18:43:06.078125,46.19
18:43:06.093750,34.19
18:43:06.109375,27.01
18:43:06.125000,27.03
18:43:06.140625,34.84
18:43:06.156250,48.85
18:43:06.171875,65.98
18:43:06.187500,82.71
18:43:06.203125,96.57
18:43:06.218750,106.80
18:43:06.234375,114.38
18:43:06.250000,121.06
18:43:06.265625,128.54
18:43:06.281250,137.59
18:43:06.296875,147.85
18:43:06.312500,158.19
18:43:06.328125,167.33
18:43:06.343750,174.34
18:43:06.359375,178.96
18:43:06.375000,181.43
18:43:06.390625,182.14
18:43:06.406250,181.45
18:43:06.421875,179.37
18:43:06.437500,175.47
18:43:06.453125,168.63
18:43:06.468750,157.04
18:43:06.484375,138.50
18:43:06.500000,111.19
18:43:06.515625,74.74
18:43:06.531250,30.99
18:43:06.546875,-16.16
18:43:06.562500,-61.83
18:43:06.578125,-101.80
18:43:06.593750,-133.88
18:43:06.609375,-158.25
18:43:06.625000,-176.71
18:43:06.640625,-191.34
18:43:06.656250,-203.46
18:43:06.671875,-213.24
18:43:06.687500,-220.20
18:43:06.703125,-224.00
18:43:06.718750,-224.93
18:43:06.734375,-223.91
18:43:06.750000,-221.89
18:43:06.765625,-219.34
18:43:06.781250,-215.94
18:43:06.796875,-210.82
18:43:06.812500,-203.03
18:43:06.828125,-192.04
18:43:06.843750,-178.11
18:43:06.859375,-162.37
18:43:06.875000,-146.56
18:43:06.890625,-132.44
18:43:06.906250,-121.18
18:43:06.921875,-112.77
18:43:06.937500,-105.95
18:43:06.953125,-98.77
18:43:06.968750,-89.36
18:43:06.984375,-76.79
18:43:07,-61.52
18:43:07.015625,-45.14
18:43:07.031250,-29.72
18:43:07.046875,-17.03
18:43:07.062500,-8.00
18:43:07.078125,-2.65
18:43:07.093750,-0.42
18:43:07.109375,-0.45
18:43:07.125000,-1.95
18:43:07.140625,-4.25
18:43:07.156250,-6.80
18:43:07.171875,-9.18
18:43:07.187500,-11.14
18:43:07.203125,-12.66
18:43:07.218750,-13.89
18:43:07.234375,-15.03
18:43:07.250000,-16.14
18:43:07.265625,-17.12
18:43:07.281250,-17.72
18:43:07.296875,-17.80
18:43:07.312500,-17.47
18:43:07.328125,-17.13
18:43:07.343750,-17.28
18:43:07.359375,-18.35
18:43:07.375000,-20.43
18:43:07.390625,-23.33
18:43:07.406250,-26.63
18:43:07.421875,-29.92
18:43:07.437500,-32.87
18:43:07.453125,-35.30
18:43:07.468750,-37.26
18:43:07.484375,-38.98
18:43:07.500000,-40.99
18:43:07.515625,-43.93
18:43:07.531250,-48.35
18:43:07.546875,-54.38
18:43:07.562500,-61.36
18:43:07.578125,-67.87
18:43:07.593750,-72.06
18:43:07.609375,-72.27
18:43:07.625000,-67.68
18:43:07.640625,-58.63
18:43:07.656250,-46.43
18:43:07.671875,-32.78
18:43:07.687500,-19.10
18:43:07.703125,-6.10
18:43:07.718750,6.13
18:43:07.734375,17.79
18:43:07.750000,28.94
18:43:07.765625,39.36
18:43:07.781250,48.68
18:43:07.796875,56.69
18:43:07.812500,63.46
18:43:07.828125,69.15
18:43:07.843750,73.82
18:43:07.859375,77.16
18:43:07.875000,78.62
18:43:07.890625,77.88
18:43:07.906250,75.33
18:43:07.921875,71.95
18:43:07.937500,68.67
18:43:07.953125,65.53
18:43:07.968750,61.16
18:43:07.984375,53.31
18:43:08,39.88
18:43:08.015625,19.96
18:43:08.031250,-6.00
18:43:08.046875,-36.64
18:43:08.062500,-70.36
18:43:08.078125,-105.73
18:43:08.093750,-140.98
18:43:08.109375,-173.47
18:43:08.125000,-199.51
18:43:08.140625,-215.22
18:43:08.156250,-217.90
18:43:08.171875,-207.39
18:43:08.187500,-186.21
18:43:08.203125,-158.67
18:43:08.218750,-129.19
18:43:08.234375,-100.96
18:43:08.250000,-75.47
18:43:08.265625,-52.80
18:43:08.281250,-32.42
18:43:08.296875,-13.64
18:43:08.312500,4.13
18:43:08.328125,21.21
18:43:08.343750,37.70
18:43:08.359375,53.52
18:43:08.375000,68.50
18:43:08.390625,82.67
18:43:08.406250,96.35
18:43:08.421875,110.00
18:43:08.437500,124.05
18:43:08.453125,138.69
18:43:08.468750,153.87
18:43:08.484375,169.46
18:43:08.500000,185.22
18:43:08.515625,200.66
18:43:08.531250,214.63
18:43:08.546875,225.29
18:43:08.562500,230.59
18:43:08.578125,229.02
18:43:08.593750,220.33
18:43:08.609375,205.68
18:43:08.625000,187.15
18:43:08.640625,166.87
18:43:08.656250,146.41
18:43:08.671875,126.61
18:43:08.687500,107.94
18:43:08.703125,90.81
18:43:08.718750,75.74
18:43:08.734375,63.05
18:43:08.750000,52.56
18:43:08.765625,43.58
18:43:08.781250,35.15
18:43:08.796875,26.62
18:43:08.812500,17.90
18:43:08.828125,9.37
18:43:08.843750,1.67
18:43:08.859375,-4.73
18:43:08.875000,-9.59
18:43:08.890625,-12.85
18:43:08.906250,-14.49
18:43:08.921875,-14.32
18:43:08.937500,-12.02
18:43:08.953125,-7.31
18:43:08.968750,-0.19
18:43:08.984375,8.97
18:43:09,19.46
18:43:09.015625,30.37
18:43:09.031250,40.67
18:43:09.046875,49.31
18:43:09.062500,55.09
18:43:09.078125,56.78
18:43:09.093750,53.24
18:43:09.109375,43.81
18:43:09.125000,28.75
18:43:09.140625,9.35
18:43:09.156250,-12.21
18:43:09.171875,-33.45
18:43:09.187500,-52.21
18:43:09.203125,-67.06
18:43:09.218750,-77.45
18:43:09.234375,-83.42
18:43:09.250000,-85.28
18:43:09.265625,-83.41
18:43:09.281250,-78.22
18:43:09.296875,-70.10
18:43:09.312500,-59.63
18:43:09.328125,-47.57
18:43:09.343750,-34.92
18:43:09.359375,-22.87
18:43:09.375000,-12.75
18:43:09.390625,-5.76
18:43:09.406250,-2.62
18:43:09.421875,-3.37
18:43:09.437500,-7.18
18:43:09.453125,-12.59
18:43:09.468750,-17.99
18:43:09.484375,-22.00
18:43:09.500000,-23.81
18:43:09.515625,-23.27
18:43:09.531250,-20.73
18:43:09.546875,-16.82
18:43:09.562500,-12.28
18:43:09.578125,-7.72
18:43:09.593750,-3.50
18:43:09.609375,0.33
18:43:09.625000,4.00
18:43:09.640625,7.79
18:43:09.656250,11.74
18:43:09.671875,15.44
18:43:09.687500,18.05
18:43:09.703125,18.44
18:43:09.718750,15.59
18:43:09.734375,8.92
18:43:09.750000,-1.45
18:43:09.765625,-14.72
18:43:09.781250,-29.36
18:43:09.796875,-43.37
18:43:09.812500,-54.46
18:43:09.828125,-60.44
18:43:09.843750,-59.77
18:43:09.859375,-52.01
18:43:09.875000,-38.14
18:43:09.890625,-20.38
18:43:09.906250,-1.57
18:43:09.921875,15.60
18:43:09.937500,29.28
18:43:09.953125,38.75
18:43:09.968750,44.29
18:43:09.984375,46.66
18:43:10,46.79
18:43:10.015625,45.38
18:43:10.031250,42.97
18:43:10.046875,40.01
18:43:10.062500,36.93
18:43:10.078125,34.11
18:43:10.093750,31.73
18:43:10.109375,29.76
18:43:10.125000,27.96
18:43:10.140625,26.14
18:43:10.156250,24.21
18:43:10.171875,22.30
18:43:10.187500,20.60
18:43:10.203125,19.24
18:43:10.218750,18.22
18:43:10.234375,17.44
18:43:10.250000,16.81
18:43:10.265625,16.31
18:43:10.281250,16.01
18:43:10.296875,16.04
18:43:10.312500,16.48
18:43:10.328125,17.39
18:43:10.343750,18.82
18:43:10.359375,20.85
18:43:10.375000,23.67
18:43:10.390625,27.50
18:43:10.406250,32.47
18:43:10.421875,38.54
18:43:10.437500,45.44
18:43:10.453125,52.77
18:43:10.468750,60.11
18:43:10.484375,67.07
18:43:10.500000,73.32
18:43:10.515625,78.64
18:43:10.531250,82.88
18:43:10.546875,86.08
18:43:10.562500,88.49
18:43:10.578125,90.60
18:43:10.593750,92.96
18:43:10.609375,96.03
18:43:10.625000,99.91
18:43:10.640625,104.31
18:43:10.656250,108.70
18:43:10.671875,112.45
18:43:10.687500,114.98
18:43:10.703125,115.74
18:43:10.718750,114.02
18:43:10.734375,108.97
18:43:10.750000,99.71
18:43:10.765625,85.71
18:43:10.781250,67.24
18:43:10.796875,45.52
18:43:10.812500,22.47
18:43:10.828125,0.28
18:43:10.843750,-19.32
18:43:10.859375,-35.35
18:43:10.875000,-47.69
18:43:10.890625,-56.83
18:43:10.906250,-63.55
18:43:10.921875,-68.62
18:43:10.937500,-72.66
18:43:10.953125,-76.18
18:43:10.968750,-79.55
18:43:10.984375,-82.94
18:43:11,-86.28
18:43:11.015625,-89.19
18:43:11.031250,-91.10
18:43:11.046875,-91.44
18:43:11.062500,-89.97
18:43:11.078125,-86.87
18:43:11.093750,-82.83
18:43:11.109375,-78.78
18:43:11.125000,-75.66
18:43:11.140625,-74.07
18:43:11.156250,-74.14
18:43:11.171875,-75.49
18:43:11.187500,-77.46
18:43:11.203125,-79.32
18:43:11.218750,-80.58
18:43:11.234375,-81.04
18:43:11.250000,-80.75
18:43:11.265625,-79.83
18:43:11.281250,-78.32
18:43:11.296875,-76.12
18:43:11.312500,-73.06
18:43:11.328125,-69.08
18:43:11.343750,-64.32
18:43:11.359375,-59.19
18:43:11.375000,-54.19
18:43:11.390625,-49.69
18:43:11.406250,-45.77
18:43:11.421875,-42.23
18:43:11.437500,-38.78
18:43:11.453125,-35.33
18:43:11.468750,-32.05
18:43:11.484375,-29.34
18:43:11.500000,-27.54
18:43:11.515625,-26.70
18:43:11.531250,-26.47
18:43:11.546875,-26.32
18:43:11.562500,-25.73
18:43:11.578125,-24.54
18:43:11.593750,-23.05
18:43:11.609375,-21.87
18:43:11.625000,-21.67
18:43:11.640625,-22.89
18:43:11.656250,-25.40
18:43:11.671875,-28.53
18:43:11.687500,-31.13
18:43:11.703125,-32.01
18:43:11.718750,-30.36
18:43:11.734375,-26.12
18:43:11.750000,-19.99
18:43:11.765625,-13.24
18:43:11.781250,-7.12
18:43:11.796875,-2.41
18:43:11.812500,0.84
18:43:11.828125,3.11
18:43:11.843750,5.02
18:43:11.859375,6.97
18:43:11.875000,8.96
18:43:11.890625,10.80
18:43:11.906250,12.40
18:43:11.921875,13.92
18:43:11.937500,15.68
18:43:11.953125,17.85
18:43:11.968750,20.16
18:43:11.984375,21.87
18:43:12,22.08
18:43:12.015625,20.21
18:43:12.031250,16.44
18:43:12.046875,11.72
18:43:12.062500,7.41
18:43:12.078125,4.75
18:43:12.093750,4.27
18:43:12.109375,5.70
18:43:12.125000,8.13
18:43:12.140625,10.49
18:43:12.156250,11.97
18:43:12.171875,12.23
18:43:12.187500,11.35
18:43:12.203125,9.82
18:43:12.218750,8.44
18:43:12.234375,8.46
18:43:12.250000,11.35
18:43:12.265625,18.31
18:43:12.281250,29.47
18:43:12.296875,43.30
18:43:12.312500,56.74
18:43:12.328125,66.17
18:43:12.343750,68.97
18:43:12.359375,64.61
18:43:12.375000,54.90
18:43:12.390625,42.84
18:43:12.406250,31.17
18:43:12.421875,21.10
18:43:12.437500,12.18
18:43:12.453125,3.24
18:43:12.468750,-6.44
18:43:12.484375,-16.40
18:43:12.500000,-25.13
18:43:12.515625,-31.03
18:43:12.531250,-33.29
18:43:12.546875,-32.35
18:43:12.562500,-29.51
18:43:12.578125,-26.19
18:43:12.593750,-23.31
18:43:12.609375,-21.12
18:43:12.625000,-19.40
18:43:12.640625,-17.90
18:43:12.656250,-16.58
18:43:12.671875,-15.64
18:43:12.687500,-15.33
18:43:12.703125,-15.71
18:43:12.718750,-16.65
18:43:12.734375,-17.82
18:43:12.750000,-18.94
18:43:12.765625,-19.73
18:43:12.781250,-20.07
18:43:12.796875,-19.80
18:43:12.812500,-18.78
18:43:12.828125,-16.89
18:43:12.843750,-14.05
18:43:12.859375,-10.30
18:43:12.875000,-5.77
18:43:12.890625,-0.67
18:43:12.906250,4.73
18:43:12.921875,10.13
18:43:12.937500,15.15
18:43:12.953125,19.37
18:43:12.968750,22.39
18:43:12.984375,23.89
18:43:13,23.72
18:43:13.015625,21.86
18:43:13.031250,18.40
18:43:13.046875,13.53
18:43:13.062500,7.60
18:43:13.078125,1.21
18:43:13.093750,-4.82
18:43:13.109375,-9.62
18:43:13.125000,-12.53
18:43:13.140625,-13.38
18:43:13.156250,-12.59
18:43:13.171875,-11.01
18:43:13.187500,-9.51
18:43:13.203125,-8.62
18:43:13.218750,-8.25
18:43:13.234375,-7.74
18:43:13.250000,-6.11
18:43:13.265625,-2.58
18:43:13.281250,3.08
18:43:13.296875,10.34
18:43:13.312500,17.98
18:43:13.328125,24.64
18:43:13.343750,29.35
18:43:13.359375,31.99
18:43:13.375000,33.49
18:43:13.390625,35.38
18:43:13.406250,39.09
18:43:13.421875,45.33
18:43:13.437500,53.61
18:43:13.453125,62.46
18:43:13.468750,70.02
18:43:13.484375,74.78
18:43:13.500000,76.17
18:43:13.515625,74.59
18:43:13.531250,71.24
18:43:13.546875,67.63
18:43:13.562500,65.21
18:43:13.578125,65.17
18:43:13.593750,68.27
18:43:13.609375,74.55
18:43:13.625000,82.91
18:43:13.640625,90.99
18:43:13.656250,95.51
18:43:13.671875,93.30
18:43:13.687500,82.62
18:43:13.703125,64.09
18:43:13.718750,40.67
18:43:13.734375,16.62
18:43:13.750000,-4.18
18:43:13.765625,-19.57
18:43:13.781250,-29.52
18:43:13.796875,-35.55
18:43:13.812500,-39.59
18:43:13.828125,-42.93
18:43:13.843750,-45.97
18:43:13.859375,-48.58
18:43:13.875000,-50.67
18:43:13.890625,-52.53
18:43:13.906250,-54.66
18:43:13.921875,-57.35
18:43:13.937500,-60.33
18:43:13.953125,-62.74
18:43:13.968750,-63.49
18:43:13.984375,-61.72
18:43:14,-57.30
18:43:14.015625,-51.08
18:43:14.031250,-44.77
18:43:14.046875,-40.58
18:43:14.062500,-40.59
18:43:14.078125,-46.10
18:43:14.093750,-57.03
18:43:14.109375,-71.80
18:43:14.125000,-87.69
18:43:14.140625,-101.66
18:43:14.156250,-111.25
18:43:14.171875,-115.23
18:43:14.187500,-113.80
18:43:14.203125,-108.10
18:43:14.218750,-99.61
18:43:14.234375,-89.56
18:43:14.250000,-78.80
18:43:14.265625,-67.89
18:43:14.281250,-57.53
18:43:14.296875,-48.56
18:43:14.312500,-41.93
18:43:14.328125,-38.35
18:43:14.343750,-37.88
18:43:14.359375,-39.89
18:43:14.375000,-43.30
18:43:14.390625,-46.98
18:43:14.406250,-50.13
18:43:14.421875,-52.47
18:43:14.437500,-54.03
18:43:14.453125,-54.91
18:43:14.468750,-54.99
18:43:14.484375,-53.87
18:43:14.500000,-51.08
18:43:14.515625,-46.35
18:43:14.531250,-39.96
18:43:14.546875,-32.62
18:43:14.562500,-25.22
18:43:14.578125,-18.28
18:43:14.593750,-11.68
18:43:14.609375,-4.72
18:43:14.625000,3.44
18:43:14.640625,13.19
18:43:14.656250,24.06
18:43:14.671875,34.88
18:43:14.687500,44.22
18:43:14.703125,51.05
18:43:14.718750,55.09
18:43:14.734375,56.83
18:43:14.750000,57.21
18:43:14.765625,57.11
18:43:14.781250,57.13
18:43:14.796875,57.49
18:43:14.812500,58.11
18:43:14.828125,58.73
18:43:14.843750,58.91
18:43:14.859375,58.09
18:43:14.875000,55.60
18:43:14.890625,50.91
18:43:14.906250,43.86
18:43:14.921875,34.80
18:43:14.937500,24.64
18:43:14.953125,14.72
18:43:14.968750,6.49
18:43:14.984375,1.18
18:43:15,-0.57
18:43:15.015625,1.12
18:43:15.031250,5.33
18:43:15.046875,10.57
18:43:15.062500,15.18
18:43:15.078125,17.92
18:43:15.093750,18.31
18:43:15.109375,16.69
18:43:15.125000,14.04
18:43:15.140625,11.37
18:43:15.156250,9.33
18:43:15.171875,7.95
18:43:15.187500,6.75
18:43:15.203125,5.11
18:43:15.218750,2.56
18:43:15.234375,-0.92
18:43:15.250000,-4.94
18:43:15.265625,-8.85
18:43:15.281250,-11.89
18:43:15.296875,-13.41
18:43:15.312500,-12.95
18:43:15.328125,-10.47
18:43:15.343750,-6.51
18:43:15.359375,-2.24
18:43:15.375000,0.73
18:43:15.390625,0.79
18:43:15.406250,-3.17
18:43:15.421875,-11.33
18:43:15.437500,-23.06
18:43:15.453125,-37.22
18:43:15.468750,-52.79
18:43:15.484375,-69.33
18:43:15.500000,-87.12
18:43:15.515625,-106.87
18:43:15.531250,-129.14
18:43:15.546875,-153.70
18:43:15.562500,-178.99
18:43:15.578125,-202.12
18:43:15.593750,-219.21
18:43:15.609375,-226.25
18:43:15.625000,-220.20
18:43:15.640625,-200.10
18:43:15.656250,-167.50
18:43:15.671875,-126.27
18:43:15.687500,-81.46
18:43:15.703125,-37.97
18:43:15.718750,0.74
18:43:15.734375,33.14
18:43:15.750000,59.31
18:43:15.765625,80.17
18:43:15.781250,96.53
18:43:15.796875,108.72
18:43:15.812500,116.56
18:43:15.828125,119.95
18:43:15.843750,119.26
18:43:15.859375,115.42
18:43:15.875000,109.67
18:43:15.890625,103.02
18:43:15.906250,95.88
18:43:15.921875,88.05
18:43:15.937500,79.23
18:43:15.953125,69.59
18:43:15.968750,60.23
18:43:15.984375,53.00
18:43:16,49.83
18:43:16.015625,51.75
18:43:16.031250,58.32
18:43:16.046875,67.64
18:43:16.062500,77.10
18:43:16.078125,84.45
18:43:16.093750,88.54
18:43:16.109375,89.51
18:43:16.125000,88.23
18:43:16.140625,85.54
18:43:16.156250,81.66
18:43:16.171875,76.19
18:43:16.187500,68.61
18:43:16.203125,58.84
18:43:16.218750,47.65
18:43:16.234375,36.42
18:43:16.250000,26.67
18:43:16.265625,19.38
18:43:16.281250,14.67
18:43:16.296875,11.79
18:43:16.312500,9.48
18:43:16.328125,6.42
18:43:16.343750,1.67
18:43:16.359375,-5.08
18:43:16.375000,-13.58
18:43:16.390625,-23.07
18:43:16.406250,-32.50
18:43:16.421875,-40.76
18:43:16.437500,-46.85
18:43:16.453125,-50.03
18:43:16.468750,-49.91
18:43:16.484375,-46.55
18:43:16.500000,-40.38
18:43:16.515625,-32.23
18:43:16.531250,-23.08
18:43:16.546875,-13.91
18:43:16.562500,-5.47
18:43:16.578125,1.86
18:43:16.593750,8.06
18:43:16.609375,13.33
18:43:16.625000,17.84
18:43:16.640625,21.64
18:43:16.656250,24.49
18:43:16.671875,26.00
18:43:16.687500,25.79
18:43:16.703125,23.82
18:43:16.718750,20.45
18:43:16.734375,16.35
18:43:16.750000,12.35
18:43:16.765625,9.26
18:43:16.781250,7.72
18:43:16.796875,8.19
18:43:16.812500,10.92
18:43:16.828125,15.92
18:43:16.843750,22.77
18:43:16.859375,30.51
18:43:16.875000,37.73
18:43:16.890625,42.92
18:43:16.906250,44.95
18:43:16.921875,43.54
18:43:16.937500,39.30
18:43:16.953125,33.44
18:43:16.968750,27.19
18:43:16.984375,21.27
18:43:17,15.70
18:43:17.015625,9.99
18:43:17.031250,3.59
18:43:17.046875,-3.69
18:43:17.062500,-11.44
18:43:17.078125,-18.74
18:43:17.093750,-24.52
18:43:17.109375,-27.79
18:43:17.125000,-27.99
18:43:17.140625,-24.95
18:43:17.156250,-19.01
18:43:17.171875,-10.85
18:43:17.187500,-1.50
18:43:17.203125,7.81
18:43:17.218750,15.92
18:43:17.234375,21.90
18:43:17.250000,25.37
18:43:17.265625,26.57
18:43:17.281250,26.24
18:43:17.296875,25.32
18:43:17.312500,24.54
18:43:17.328125,24.20
18:43:17.343750,24.14
18:43:17.359375,23.96
18:43:17.375000,23.32
18:43:17.390625,22.06
18:43:17.406250,20.26
18:43:17.421875,18.06
18:43:17.437500,15.51
18:43:17.453125,12.55
18:43:17.468750,9.09
18:43:17.484375,5.19
18:43:17.500000,1.15
18:43:17.515625,-2.48
18:43:17.531250,-5.08
18:43:17.546875,-6.15
18:43:17.562500,-5.57
18:43:17.578125,-3.57
18:43:17.593750,-0.73
18:43:17.609375,2.28
18:43:17.625000,4.87
18:43:17.640625,6.66
18:43:17.656250,7.55
18:43:17.671875,7.59
18:43:17.687500,6.87
18:43:17.703125,5.45
18:43:17.718750,3.34
18:43:17.734375,0.61
18:43:17.750000,-2.59
18:43:17.765625,-5.92
18:43:17.781250,-8.90
18:43:17.796875,-11.07
18:43:17.812500,-12.12
18:43:17.828125,-11.96
18:43:17.843750,-10.84
18:43:17.859375,-9.24
18:43:17.875000,-7.71
18:43:17.890625,-6.74
18:43:17.906250,-6.60
18:43:17.921875,-7.24
18:43:17.937500,-8.33
18:43:17.953125,-9.48
18:43:17.968750,-10.26
18:43:17.984375,-10.38
18:43:18,-9.71
18:43:18.015625,-8.24
18:43:18.031250,-6.07
18:43:18.046875,-3.43
18:43:18.062500,-0.65
18:43:18.078125,1.86
18:43:18.093750,3.75
18:43:18.109375,4.88
18:43:18.125000,5.36
18:43:18.140625,5.53
18:43:18.156250,5.80
18:43:18.171875,6.45
18:43:18.187500,7.52
18:43:18.203125,8.90
18:43:18.218750,10.40
18:43:18.234375,11.92
18:43:18.250000,13.52
18:43:18.265625,15.33
18:43:18.281250,17.58
18:43:18.296875,20.54
18:43:18.312500,24.56
18:43:18.328125,29.99
18:43:18.343750,37.01
18:43:18.359375,45.31
18:43:18.375000,53.91
18:43:18.390625,61.20
18:43:18.406250,65.32
18:43:18.421875,64.78
18:43:18.437500,59.12
18:43:18.453125,49.04
18:43:18.468750,36.31
18:43:18.484375,23.13
18:43:18.500000,11.42
18:43:18.515625,2.34
18:43:18.531250,-3.90
18:43:18.546875,-7.91
18:43:18.562500,-10.67
18:43:18.578125,-13.15
18:43:18.593750,-15.97
18:43:18.609375,-19.36
18:43:18.625000,-23.23
18:43:18.640625,-27.36
18:43:18.656250,-31.54
18:43:18.671875,-35.65
18:43:18.687500,-39.66
18:43:18.703125,-43.58
18:43:18.718750,-47.40
18:43:18.734375,-51.05
18:43:18.750000,-54.44
18:43:18.765625,-57.37
18:43:18.781250,-59.63
18:43:18.796875,-61.06
18:43:18.812500,-61.59
18:43:18.828125,-61.39
18:43:18.843750,-60.81
18:43:18.859375,-60.31
18:43:18.875000,-60.28
18:43:18.890625,-60.85
18:43:18.906250,-61.81
18:43:18.921875,-62.51
18:43:18.937500,-61.79
18:43:18.953125,-58.07
18:43:18.968750,-49.52
18:43:18.984375,-34.69
18:43:19,-13.23
18:43:19.015625,13.67
18:43:19.031250,43.24
18:43:19.046875,71.76
18:43:19.062500,95.54
18:43:19.078125,111.87
18:43:19.093750,119.56
18:43:19.109375,119.01
18:43:19.125000,111.87
18:43:19.140625,100.49
18:43:19.156250,87.50
18:43:19.171875,75.25
18:43:19.187500,65.45
18:43:19.203125,58.83
18:43:19.218750,54.98
18:43:19.234375,52.64
18:43:19.250000,50.27
18:43:19.265625,46.73
18:43:19.281250,41.74
18:43:19.296875,35.85
18:43:19.312500,30.04
18:43:19.328125,25.11
18:43:19.343750,21.25
18:43:19.359375,17.69
18:43:19.375000,12.93
18:43:19.390625,4.88
18:43:19.406250,-8.75
18:43:19.421875,-30.14
18:43:19.437500,-60.74
18:43:19.453125,-100.56
18:43:19.468750,-147.30
18:43:19.484375,-196.02
18:43:19.500000,-239.70
18:43:19.515625,-270.61
18:43:19.531250,-282.39
18:43:19.546875,-271.69
18:43:19.562500,-238.85
18:43:19.578125,-187.32
18:43:19.593750,-122.61
18:43:19.609375,-51.19
18:43:19.625000,19.91
18:43:19.640625,83.33
18:43:19.656250,132.00
18:43:19.671875,160.50
18:43:19.687500,166.91
18:43:19.703125,154.14
18:43:19.718750,129.55
18:43:19.734375,102.90
18:43:19.750000,83.21
18:43:19.765625,75.87
18:43:19.781250,81.34
18:43:19.796875,95.73
18:43:19.812500,112.80
18:43:19.828125,126.42
18:43:19.843750,132.44
18:43:19.859375,129.51
18:43:19.875000,118.83
18:43:19.890625,103.11
18:43:19.906250,85.32
18:43:19.921875,67.44
18:43:19.937500,50.01
18:43:19.953125,32.32
18:43:19.968750,13.40
18:43:19.984375,-6.95
18:43:20,-27.40
18:43:20.015625,-45.25
18:43:20.031250,-57.19
18:43:20.046875,-60.64
18:43:20.062500,-54.72
18:43:20.078125,-40.83
18:43:20.093750,-22.30
18:43:20.109375,-3.71
18:43:20.125000,10.23
18:43:20.140625,15.60
18:43:20.156250,10.02
18:43:20.171875,-6.94
18:43:20.187500,-33.39
18:43:20.203125,-65.05
18:43:20.218750,-95.61
18:43:20.234375,-117.76
18:43:20.250000,-124.95
18:43:20.265625,-113.49
18:43:20.281250,-84.17
18:43:20.296875,-42.54
18:43:20.312500,2.58
18:43:20.328125,41.93
18:43:20.343750,68.71
18:43:20.359375,80.49
18:43:20.375000,79.17
18:43:20.390625,69.35
18:43:20.406250,56.05
18:43:20.421875,42.88
18:43:20.437500,31.52
18:43:20.453125,22.30
18:43:20.468750,15.15
18:43:20.484375,10.25
18:43:20.500000,8.03
18:43:20.515625,8.59
18:43:20.531250,11.36
18:43:20.546875,15.12
18:43:20.562500,18.49
18:43:20.578125,20.42
18:43:20.593750,20.50
18:43:20.609375,18.76
18:43:20.625000,15.32
18:43:20.640625,10.25
18:43:20.656250,3.48
18:43:20.671875,-4.89
18:43:20.687500,-14.37
18:43:20.703125,-24.06
18:43:20.718750,-32.89
18:43:20.734375,-39.99
18:43:20.750000,-44.85
18:43:20.765625,-47.36
18:43:20.781250,-47.69
18:43:20.796875,-46.15
18:43:20.812500,-43.15
18:43:20.828125,-39.19
18:43:20.843750,-34.99
18:43:20.859375,-31.34
18:43:20.875000,-28.86
18:43:20.890625,-27.73
18:43:20.906250,-27.58
18:43:20.921875,-27.72
18:43:20.937500,-27.52
18:43:20.953125,-26.74
18:43:20.968750,-25.66
18:43:20.984375,-24.88
18:43:21,-24.95
18:43:21.015625,-25.97
18:43:21.031250,-27.55
18:43:21.046875,-28.90
18:43:21.062500,-29.30
18:43:21.078125,-28.51
18:43:21.093750,-26.93
18:43:21.109375,-25.49
18:43:21.125000,-25.20
18:43:21.140625,-26.66
18:43:21.156250,-29.75
18:43:21.171875,-33.60
18:43:21.187500,-37.01
18:43:21.203125,-38.90
18:43:21.218750,-38.90
18:43:21.234375,-37.51
18:43:21.250000,-35.96
18:43:21.265625,-35.77
18:43:21.281250,-38.21
18:43:21.296875,-43.97
18:43:21.312500,-53.00
18:43:21.328125,-64.56
18:43:21.343750,-77.16
18:43:21.359375,-88.69
18:43:21.375000,-96.56
18:43:21.390625,-98.31
18:43:21.406250,-92.28
18:43:21.421875,-78.44
18:43:21.437500,-58.56
18:43:21.453125,-35.73
18:43:21.468750,-13.32
18:43:21.484375,6.12
18:43:21.500000,21.54
18:43:21.515625,33.32
18:43:21.531250,42.52
18:43:21.546875,50.16
18:43:21.562500,56.67
18:43:21.578125,61.99
18:43:21.593750,65.91
18:43:21.609375,68.46
18:43:21.625000,70.00
18:43:21.640625,71.01
18:43:21.656250,71.81
18:43:21.671875,72.48
18:43:21.687500,72.94
18:43:21.703125,73.27
18:43:21.718750,73.86
18:43:21.734375,75.31
18:43:21.750000,78.11
18:43:21.765625,82.27
18:43:21.781250,87.13
18:43:21.796875,91.49
18:43:21.812500,93.97
18:43:21.828125,93.52
18:43:21.843750,89.78
18:43:21.859375,83.08
18:43:21.875000,74.34
18:43:21.890625,64.60
18:43:21.906250,54.82
18:43:21.921875,45.57
18:43:21.937500,37.12
18:43:21.953125,29.50
18:43:21.968750,22.70
18:43:21.984375,16.69
18:43:22,11.55
18:43:22.015625,7.43
18:43:22.031250,4.62
18:43:22.046875,3.48
18:43:22.062500,4.29
18:43:22.078125,7.08
18:43:22.093750,11.44
18:43:22.109375,16.38
18:43:22.125000,20.53
18:43:22.140625,22.38
18:43:22.156250,20.68
18:43:22.171875,14.74
18:43:22.187500,4.68
18:43:22.203125,-8.67
18:43:22.218750,-23.96
18:43:22.234375,-39.69
18:43:22.250000,-54.56
18:43:22.265625,-67.78
18:43:22.281250,-79.13
18:43:22.296875,-88.79
18:43:22.312500,-97.05
18:43:22.328125,-104.04
18:43:22.343750,-109.57
18:43:22.359375,-113.24
18:43:22.375000,-114.69
18:43:22.390625,-113.93
18:43:22.406250,-111.38
18:43:22.421875,-107.73
18:43:22.437500,-103.66
18:43:22.453125,-99.59
18:43:22.468750,-95.50
18:43:22.484375,-91.08
18:43:22.500000,-85.92
18:43:22.515625,-79.70
18:43:22.531250,-72.31
18:43:22.546875,-63.93
18:43:22.562500,-54.80
18:43:22.578125,-45.17
18:43:22.593750,-35.08
18:43:22.609375,-24.37
18:43:22.625000,-12.88
18:43:22.640625,-0.69
18:43:22.656250,11.59
18:43:22.671875,22.76
18:43:22.687500,31.23
18:43:22.703125,35.43
18:43:22.718750,34.25
18:43:22.734375,27.40
