13:40:27,-0.00
13:40:27.015625,-0.00
13:40:27.031250,-0.00
13:40:27.046875,-0.00
13:40:27.062500,-0.00
13:40:27.078125,-0.00
13:40:27.093750,-0.00
13:40:27.109375,-0.00
13:40:27.125000,-0.00
13:40:27.140625,-0.01
13:40:27.156250,-0.00
13:40:27.171875,0.00
13:40:27.187500,0.01
13:40:27.203125,0.01
13:40:27.218750,-0.00
13:40:27.234375,-0.03
13:40:27.250000,-0.05
13:40:27.265625,-0.05
13:40:27.281250,-0.00
13:40:27.296875,0.13
13:40:27.312500,0.36
13:40:27.328125,0.66
13:40:27.343750,1.01
13:40:27.359375,1.37
13:40:27.375000,1.72
13:40:27.390625,2.06
13:40:27.406250,2.40
13:40:27.421875,2.77
13:40:27.437500,3.24
13:40:27.453125,3.80
13:40:27.468750,4.42
13:40:27.484375,5.06
13:40:27.500000,5.66
13:40:27.515625,6.20
13:40:27.531250,6.68
13:40:27.546875,7.15
13:40:27.562500,7.64
13:40:27.578125,8.31
13:40:27.593750,9.14
13:40:27.609375,10.09
13:40:27.625000,11.04
13:40:27.640625,11.88
13:40:27.656250,12.56
13:40:27.671875,13.14
13:40:27.687500,13.76
13:40:27.703125,14.58
13:40:27.718750,15.96
13:40:27.734375,17.91
13:40:27.750000,20.32
13:40:27.765625,22.90
13:40:27.781250,25.38
13:40:27.796875,27.58
13:40:27.812500,29.57
13:40:27.828125,31.68
13:40:27.843750,34.20
13:40:27.859375,37.81
13:40:27.875000,42.54
13:40:27.890625,48.15
13:40:27.906250,54.10
13:40:27.921875,59.83
13:40:27.937500,64.97
13:40:27.953125,69.58
13:40:27.968750,74.14
13:40:27.984375,79.19
13:40:28,85.71
13:40:28.015625,93.76
13:40:28.031250,103.00
13:40:28.046875,112.62
13:40:28.062500,121.73
13:40:28.078125,129.77
13:40:28.093750,136.75
13:40:28.109375,144.29
13:40:28.125000,150.58
13:40:28.140625,157.77
13:40:28.156250,166.64
13:40:28.171875,177.95
13:40:28.187500,191.79
13:40:28.203125,206.97
13:40:28.218750,220.57
13:40:28.234375,228.25
13:40:28.250000,225.36
13:40:28.265625,208.37
13:40:28.281250,176.87
13:40:28.296875,132.76
13:40:28.312500,80.05
13:40:28.328125,23.07
13:40:28.343750,-34.94
13:40:28.359375,-92.44
13:40:28.375000,-149.16
13:40:28.390625,-205.23
13:40:28.406250,-260.49
13:40:28.421875,-313.74
13:40:28.437500,-363.87
13:40:28.453125,-409.83
13:40:28.468750,-450.91
13:40:28.484375,-486.50
13:40:28.500000,-515.74
13:40:28.515625,-537.23
13:40:28.531250,-549.22
13:40:28.546875,-550.04
13:40:28.562500,-538.37
13:40:28.578125,-514.20
13:40:28.593750,-478.67
13:40:28.609375,-433.88
13:40:28.625000,-382.45
13:40:28.640625,-327.02
13:40:28.656250,-269.84
13:40:28.671875,-212.63
13:40:28.687500,-156.70
13:40:28.703125,-102.95
13:40:28.718750,-52.37
13:40:28.734375,-5.90
13:40:28.750000,35.58
13:40:28.765625,71.43
13:40:28.781250,101.35
13:40:28.796875,125.50
13:40:28.812500,144.38
13:40:28.828125,158.68
13:40:28.843750,169.15
13:40:28.859375,176.37
13:40:28.875000,180.75
13:40:28.890625,182.57
13:40:28.906250,182.07
13:40:28.921875,179.51
13:40:28.937500,175.23
13:40:28.953125,169.65
13:40:28.968750,163.18
13:40:28.984375,156.15
13:40:29,148.81
13:40:29.015625,141.30
13:40:29.031250,133.69
13:40:29.046875,126.02
13:40:29.062500,118.33
13:40:29.078125,110.69
13:40:29.093750,103.16
13:40:29.109375,95.80
13:40:29.125000,88.68
13:40:29.140625,81.83
13:40:29.156250,75.25
13:40:29.171875,68.95
13:40:29.187500,62.95
13:40:29.203125,57.25
13:40:29.218750,51.86
13:40:29.234375,46.78
13:40:29.250000,42.03
13:40:29.265625,37.59
13:40:29.281250,33.45
13:40:29.296875,29.61
13:40:29.312500,26.07
13:40:29.328125,22.81
13:40:29.343750,19.82
13:40:29.359375,17.11
13:40:29.375000,14.67
13:40:29.390625,12.48
13:40:29.406250,10.54
13:40:29.421875,8.83
13:40:29.437500,7.35
13:40:29.453125,6.07
13:40:29.468750,4.97
13:40:29.484375,4.05
13:40:29.500000,3.27
13:40:29.515625,2.62
13:40:29.531250,2.09
13:40:29.546875,1.65
13:40:29.562500,1.30
13:40:29.578125,1.01
13:40:29.593750,0.79
13:40:29.609375,0.61
13:40:29.625000,0.47
13:40:29.640625,0.37
13:40:29.656250,0.28
13:40:29.671875,0.22
13:40:29.687500,0.18
13:40:29.703125,0.15
13:40:29.718750,0.13
13:40:29.734375,0.13
13:40:29.750000,0.13
13:40:29.765625,0.14
13:40:29.781250,0.15
13:40:29.796875,0.18
13:40:29.812500,0.20
13:40:29.828125,0.24
13:40:29.843750,0.27
13:40:29.859375,0.31
13:40:29.875000,0.35
13:40:29.890625,0.40
13:40:29.906250,0.44
13:40:29.921875,0.49
13:40:29.937500,0.54
13:40:29.953125,0.59
13:40:29.968750,0.64
13:40:29.984375,0.70
13:40:30,0.76
13:40:30.015625,0.82
13:40:30.031250,0.89
13:40:30.046875,0.97
13:40:30.062500,1.05
13:40:30.078125,1.14
13:40:30.093750,1.25
13:40:30.109375,1.38
13:40:30.125000,1.53
13:40:30.140625,1.69
13:40:30.156250,1.87
13:40:30.171875,2.03
13:40:30.187500,2.17
13:40:30.203125,2.30
13:40:30.218750,2.42
13:40:30.234375,2.59
13:40:30.250000,2.82
13:40:30.265625,3.12
13:40:30.281250,3.49
13:40:30.296875,3.91
13:40:30.312500,4.34
13:40:30.328125,4.75
13:40:30.343750,5.16
13:40:30.359375,5.57
13:40:30.375000,6.04
13:40:30.390625,6.60
13:40:30.406250,7.27
13:40:30.421875,8.01
13:40:30.437500,8.80
13:40:30.453125,9.56
13:40:30.468750,10.25
13:40:30.484375,10.88
13:40:30.500000,11.49
13:40:30.515625,12.20
13:40:30.531250,13.09
13:40:30.546875,14.20
13:40:30.562500,15.47
13:40:30.578125,16.76
13:40:30.593750,17.88
13:40:30.609375,18.69
13:40:30.625000,19.12
13:40:30.640625,19.25
13:40:30.656250,19.18
13:40:30.671875,19.00
13:40:30.687500,18.68
13:40:30.703125,18.00
13:40:30.718750,16.60
13:40:30.734375,14.09
13:40:30.750000,10.28
13:40:30.765625,5.26
13:40:30.781250,-0.59
13:40:30.796875,-6.65
13:40:30.812500,-12.28
13:40:30.828125,-17.11
13:40:30.843750,-21.13
13:40:30.859375,-24.67
13:40:30.875000,-28.19
13:40:30.890625,-32.01
13:40:30.906250,-36.09
13:40:30.921875,-40.02
13:40:30.937500,-43.16
13:40:30.953125,-45.04
13:40:30.968750,-45.49
13:40:30.984375,-44.84
13:40:31,-43.74
13:40:31.015625,-42.87
13:40:31.031250,-42.85
13:40:31.046875,-44.06
13:40:31.062500,-46.76
13:40:31.078125,-50.79
13:40:31.093750,-55.36
13:40:31.109375,-58.77
13:40:31.125000,-58.76
13:40:31.140625,-53.25
13:40:31.156250,-41.49
13:40:31.171875,-24.68
13:40:31.187500,-5.81
13:40:31.203125,11.43
13:40:31.218750,24.15
13:40:31.234375,31.22
13:40:31.250000,33.45
13:40:31.265625,32.74
13:40:31.281250,30.94
13:40:31.296875,29.07
13:40:31.312500,27.22
13:40:31.328125,25.13
13:40:31.343750,22.69
13:40:31.359375,20.23
13:40:31.375000,18.36
13:40:31.390625,17.45
13:40:31.406250,17.43
13:40:31.421875,17.75
13:40:31.437500,17.77
13:40:31.453125,16.92
13:40:31.468750,15.16
13:40:31.484375,12.88
13:40:31.500000,10.74
13:40:31.515625,9.33
13:40:31.531250,8.91
13:40:31.546875,9.25
13:40:31.562500,9.79
13:40:31.578125,9.86
13:40:31.593750,8.99
13:40:31.609375,7.15
13:40:31.625000,4.70
13:40:31.640625,2.23
13:40:31.656250,0.26
13:40:31.671875,-0.94
13:40:31.687500,-1.40
13:40:31.703125,-1.47
13:40:31.718750,-1.48
13:40:31.734375,-1.69
13:40:31.750000,-2.10
13:40:31.765625,-2.53
13:40:31.781250,-2.65
13:40:31.796875,-2.25
13:40:31.812500,-1.33
13:40:31.828125,-0.05
13:40:31.843750,1.35
13:40:31.859375,2.67
13:40:31.875000,3.85
13:40:31.890625,4.94
13:40:31.906250,6.06
13:40:31.921875,7.23
13:40:31.937500,8.45
13:40:31.953125,9.60
13:40:31.968750,10.57
13:40:31.984375,11.21
13:40:32,11.38
13:40:32.015625,10.95
13:40:32.031250,9.85
13:40:32.046875,8.11
13:40:32.062500,5.89
13:40:32.078125,3.47
13:40:32.093750,1.14
13:40:32.109375,-0.83
13:40:32.125000,-2.32
13:40:32.140625,-3.27
13:40:32.156250,-3.76
13:40:32.171875,-3.90
13:40:32.187500,-3.83
13:40:32.203125,-3.73
13:40:32.218750,-3.76
13:40:32.234375,-4.06
13:40:32.250000,-4.68
13:40:32.265625,-5.62
13:40:32.281250,-6.75
13:40:32.296875,-7.90
13:40:32.312500,-8.90
13:40:32.328125,-9.61
13:40:32.343750,-9.90
13:40:32.359375,-9.69
13:40:32.375000,-8.97
13:40:32.390625,-7.79
13:40:32.406250,-6.28
13:40:32.421875,-4.61
13:40:32.437500,-2.95
13:40:32.453125,-1.40
13:40:32.468750,-0.04
13:40:32.484375,1.14
13:40:32.500000,2.19
13:40:32.515625,3.15
13:40:32.531250,4.04
13:40:32.546875,4.84
13:40:32.562500,5.48
13:40:32.578125,5.92
13:40:32.593750,6.13
13:40:32.609375,6.14
13:40:32.625000,6.03
13:40:32.640625,5.87
13:40:32.656250,5.73
13:40:32.671875,5.60
13:40:32.687500,5.45
13:40:32.703125,5.24
13:40:32.718750,4.95
13:40:32.734375,4.58
13:40:32.750000,4.14
13:40:32.765625,3.60
13:40:32.781250,2.92
13:40:32.796875,2.08
13:40:32.812500,1.02
13:40:32.828125,-0.21
13:40:32.843750,-1.55
13:40:32.859375,-2.93
13:40:32.875000,-4.23
13:40:32.890625,-5.43
13:40:32.906250,-6.49
13:40:32.921875,-7.42
13:40:32.937500,-8.24
13:40:32.953125,-8.97
13:40:32.968750,-9.56
13:40:32.984375,-9.92
13:40:33,-9.90
13:40:33.015625,-9.38
13:40:33.031250,-8.36
13:40:33.046875,-6.94
13:40:33.062500,-5.37
13:40:33.078125,-3.87
13:40:33.093750,-2.58
13:40:33.109375,-1.48
13:40:33.125000,-0.42
13:40:33.140625,0.72
13:40:33.156250,1.96
13:40:33.171875,3.18
13:40:33.187500,4.18
13:40:33.203125,4.79
13:40:33.218750,5.02
13:40:33.234375,4.98
13:40:33.250000,4.88
13:40:33.265625,4.89
13:40:33.281250,5.08
13:40:33.296875,5.43
13:40:33.312500,5.82
13:40:33.328125,6.09
13:40:33.343750,6.14
13:40:33.359375,5.87
13:40:33.375000,5.25
13:40:33.390625,4.34
13:40:33.406250,3.25
13:40:33.421875,2.14
13:40:33.437500,1.16
13:40:33.453125,0.39
13:40:33.468750,-0.18
13:40:33.484375,-0.65
13:40:33.500000,-1.15
13:40:33.515625,-1.88
13:40:33.531250,-2.94
13:40:33.546875,-4.35
13:40:33.562500,-5.99
13:40:33.578125,-7.59
13:40:33.593750,-8.80
13:40:33.609375,-9.31
13:40:33.625000,-8.95
13:40:33.640625,-7.81
13:40:33.656250,-6.17
13:40:33.671875,-4.40
13:40:33.687500,-2.79
13:40:33.703125,-1.48
13:40:33.718750,-0.42
13:40:33.734375,0.55
13:40:33.750000,1.54
13:40:33.765625,2.60
13:40:33.781250,3.69
13:40:33.796875,4.70
13:40:33.812500,5.51
13:40:33.828125,6.06
13:40:33.843750,6.34
13:40:33.859375,6.39
13:40:33.875000,6.27
13:40:33.890625,6.05
13:40:33.906250,5.84
13:40:33.921875,5.72
13:40:33.937500,5.72
13:40:33.953125,5.82
13:40:33.968750,5.90
13:40:33.984375,5.83
13:40:34,5.54
13:40:34.015625,5.05
13:40:34.031250,4.48
13:40:34.046875,3.94
13:40:34.062500,3.52
13:40:34.078125,3.18
13:40:34.093750,2.77
13:40:34.109375,2.13
13:40:34.125000,1.15
13:40:34.140625,-0.18
13:40:34.156250,-1.71
13:40:34.171875,-3.28
13:40:34.187500,-4.71
13:40:34.203125,-5.91
13:40:34.218750,-6.78
13:40:34.234375,-7.21
13:40:34.250000,-7.14
13:40:34.265625,-6.52
13:40:34.281250,-5.40
13:40:34.296875,-3.95
13:40:34.312500,-2.39
13:40:34.328125,-0.93
13:40:34.343750,0.32
13:40:34.359375,1.36
13:40:34.375000,2.30
13:40:34.390625,3.19
13:40:34.406250,4.04
13:40:34.421875,4.77
13:40:34.437500,5.30
13:40:34.453125,5.63
13:40:34.468750,5.84
13:40:34.484375,6.05
13:40:34.500000,6.36
13:40:34.515625,6.77
13:40:34.531250,7.19
13:40:34.546875,7.50
13:40:34.562500,7.57
13:40:34.578125,7.37
13:40:34.593750,6.95
13:40:34.609375,6.37
13:40:34.625000,5.75
13:40:34.640625,5.17
13:40:34.656250,4.67
13:40:34.671875,4.19
13:40:34.687500,3.69
13:40:34.703125,3.05
13:40:34.718750,2.24
13:40:34.734375,1.33
13:40:34.750000,0.46
13:40:34.765625,-0.18
13:40:34.781250,-0.58
13:40:34.796875,-0.85
13:40:34.812500,-1.28
13:40:34.828125,-2.13
13:40:34.843750,-3.54
13:40:34.859375,-5.42
13:40:34.875000,-7.51
13:40:34.890625,-9.49
13:40:34.906250,-11.11
13:40:34.921875,-12.25
13:40:34.937500,-12.90
13:40:34.953125,-13.06
13:40:34.968750,-12.72
13:40:34.984375,-11.93
13:40:35,-10.75
13:40:35.015625,-9.36
13:40:35.031250,-7.98
13:40:35.046875,-6.77
13:40:35.062500,-5.79
13:40:35.078125,-4.92
13:40:35.093750,-3.95
13:40:35.109375,-2.72
13:40:35.125000,-1.20
13:40:35.140625,0.46
13:40:35.156250,2.05
13:40:35.171875,3.37
13:40:35.187500,4.32
13:40:35.203125,4.95
13:40:35.218750,5.37
13:40:35.234375,5.65
13:40:35.250000,5.81
13:40:35.265625,5.83
13:40:35.281250,5.67
13:40:35.296875,5.39
13:40:35.312500,5.07
13:40:35.328125,4.84
13:40:35.343750,4.79
13:40:35.359375,4.94
13:40:35.375000,5.20
13:40:35.390625,5.42
13:40:35.406250,5.45
13:40:35.421875,5.19
13:40:35.437500,4.63
13:40:35.453125,3.85
13:40:35.468750,2.96
13:40:35.484375,2.05
13:40:35.500000,1.17
13:40:35.515625,0.32
13:40:35.531250,-0.51
13:40:35.546875,-1.32
13:40:35.562500,-2.11
13:40:35.578125,-2.90
13:40:35.593750,-3.76
13:40:35.609375,-4.77
13:40:35.625000,-6.01
13:40:35.640625,-7.45
13:40:35.656250,-9.00
13:40:35.671875,-10.44
13:40:35.687500,-11.57
13:40:35.703125,-12.23
13:40:35.718750,-12.34
13:40:35.734375,-11.91
13:40:35.750000,-11.04
13:40:35.765625,-9.88
13:40:35.781250,-8.56
13:40:35.796875,-7.17
13:40:35.812500,-5.73
13:40:35.828125,-4.19
13:40:35.843750,-2.47
13:40:35.859375,-0.58
13:40:35.875000,1.39
13:40:35.890625,3.26
13:40:35.906250,4.80
13:40:35.921875,5.84
13:40:35.937500,6.34
13:40:35.953125,6.45
13:40:35.968750,6.39
13:40:35.984375,6.39
13:40:36,6.60
13:40:36.015625,7.00
13:40:36.031250,7.45
13:40:36.046875,7.70
13:40:36.062500,7.58
13:40:36.078125,7.03
13:40:36.093750,6.17
13:40:36.109375,5.24
13:40:36.125000,4.50
13:40:36.140625,4.08
13:40:36.156250,3.92
13:40:36.171875,3.82
13:40:36.187500,3.56
13:40:36.203125,3.01
13:40:36.218750,2.19
13:40:36.234375,1.23
13:40:36.250000,0.26
13:40:36.265625,-0.71
13:40:36.281250,-1.77
13:40:36.296875,-3.03
13:40:36.312500,-4.55
13:40:36.328125,-6.22
13:40:36.343750,-7.80
13:40:36.359375,-9.00
13:40:36.375000,-9.59
13:40:36.390625,-9.50
13:40:36.406250,-8.82
13:40:36.421875,-7.68
13:40:36.437500,-6.25
13:40:36.453125,-4.61
13:40:36.468750,-2.82
13:40:36.484375,-0.87
13:40:36.500000,1.22
13:40:36.515625,3.38
13:40:36.531250,5.47
13:40:36.546875,7.33
13:40:36.562500,8.78
13:40:36.578125,9.72
13:40:36.593750,10.16
13:40:36.609375,10.16
13:40:36.625000,9.87
13:40:36.640625,9.41
13:40:36.656250,8.90
13:40:36.671875,8.35
13:40:36.687500,7.77
13:40:36.703125,7.14
13:40:36.718750,6.44
13:40:36.734375,5.71
13:40:36.750000,5.01
13:40:36.765625,4.42
13:40:36.781250,4.00
13:40:36.796875,3.75
13:40:36.812500,3.58
13:40:36.828125,3.39
13:40:36.843750,3.07
13:40:36.859375,2.56
13:40:36.875000,1.88
13:40:36.890625,1.08
13:40:36.906250,0.18
13:40:36.921875,-0.87
13:40:36.937500,-2.14
13:40:36.953125,-3.66
13:40:36.968750,-5.40
13:40:36.984375,-7.25
13:40:37,-9.04
13:40:37.015625,-10.62
13:40:37.031250,-11.84
13:40:37.046875,-12.58
13:40:37.062500,-12.76
13:40:37.078125,-12.34
13:40:37.093750,-11.34
13:40:37.109375,-9.84
13:40:37.125000,-8.00
13:40:37.140625,-6.03
13:40:37.156250,-4.11
13:40:37.171875,-2.40
13:40:37.187500,-1.00
13:40:37.203125,0.08
13:40:37.218750,0.88
13:40:37.234375,1.49
13:40:37.250000,2.04
13:40:37.265625,2.64
13:40:37.281250,3.33
13:40:37.296875,4.09
13:40:37.312500,4.82
13:40:37.328125,5.43
13:40:37.343750,5.87
13:40:37.359375,6.15
13:40:37.375000,6.29
13:40:37.390625,6.39
13:40:37.406250,6.48
13:40:37.421875,6.59
13:40:37.437500,6.70
13:40:37.453125,6.77
13:40:37.468750,6.75
13:40:37.484375,6.64
13:40:37.500000,6.49
13:40:37.515625,6.39
13:40:37.531250,6.41
13:40:37.546875,6.51
13:40:37.562500,6.55
13:40:37.578125,6.32
13:40:37.593750,5.61
13:40:37.609375,4.33
13:40:37.625000,2.53
13:40:37.640625,0.41
13:40:37.656250,-1.77
13:40:37.671875,-3.75
13:40:37.687500,-5.32
13:40:37.703125,-6.38
13:40:37.718750,-6.89
13:40:37.734375,-6.89
13:40:37.750000,-6.46
13:40:37.765625,-5.74
13:40:37.781250,-4.84
13:40:37.796875,-3.87
13:40:37.812500,-2.88
13:40:37.828125,-1.85
13:40:37.843750,-0.77
13:40:37.859375,0.38
13:40:37.875000,1.54
13:40:37.890625,2.60
13:40:37.906250,3.47
13:40:37.921875,4.04
13:40:37.937500,4.30
13:40:37.953125,4.33
13:40:37.968750,4.24
13:40:37.984375,4.18
13:40:38,4.25
13:40:38.015625,4.44
13:40:38.031250,4.72
13:40:38.046875,5.00
13:40:38.062500,5.16
13:40:38.078125,5.16
13:40:38.093750,4.99
13:40:38.109375,4.68
13:40:38.125000,4.29
13:40:38.140625,3.83
13:40:38.156250,3.29
13:40:38.171875,2.58
13:40:38.187500,1.60
13:40:38.203125,0.35
13:40:38.218750,-1.13
13:40:38.234375,-2.72
13:40:38.250000,-4.29
13:40:38.265625,-5.77
13:40:38.281250,-7.13
13:40:38.296875,-8.37
13:40:38.312500,-9.44
13:40:38.328125,-10.23
13:40:38.343750,-10.60
13:40:38.359375,-10.44
13:40:38.375000,-9.75
13:40:38.390625,-8.57
13:40:38.406250,-7.07
13:40:38.421875,-5.39
13:40:38.437500,-3.68
13:40:38.453125,-2.02
13:40:38.468750,-0.49
13:40:38.484375,0.93
13:40:38.500000,2.25
13:40:38.515625,3.47
13:40:38.531250,4.57
13:40:38.546875,5.46
13:40:38.562500,5.99
13:40:38.578125,6.07
13:40:38.593750,5.70
13:40:38.609375,5.00
13:40:38.625000,4.16
13:40:38.640625,3.34
13:40:38.656250,2.63
13:40:38.671875,1.98
13:40:38.687500,1.30
13:40:38.703125,0.53
13:40:38.718750,-0.36
13:40:38.734375,-1.24
13:40:38.750000,-2.03
13:40:38.765625,-2.66
13:40:38.781250,-3.16
13:40:38.796875,-3.64
13:40:38.812500,-4.23
13:40:38.828125,-5.00
13:40:38.843750,-5.93
13:40:38.859375,-6.96
13:40:38.875000,-7.96
13:40:38.890625,-8.84
13:40:38.906250,-9.52
13:40:38.921875,-9.92
13:40:38.937500,-9.98
13:40:38.953125,-9.55
13:40:38.968750,-8.55
13:40:38.984375,-6.94
13:40:39,-4.80
13:40:39.015625,-2.34
13:40:39.031250,0.18
13:40:39.046875,2.51
13:40:39.062500,4.50
13:40:39.078125,6.15
13:40:39.093750,7.56
13:40:39.109375,8.82
13:40:39.125000,9.99
13:40:39.140625,11.03
13:40:39.156250,11.83
13:40:39.171875,12.30
13:40:39.187500,12.39
13:40:39.203125,12.13
13:40:39.218750,11.61
13:40:39.234375,10.92
13:40:39.250000,10.12
13:40:39.265625,9.23
13:40:39.281250,8.21
13:40:39.296875,7.03
13:40:39.312500,5.68
13:40:39.328125,4.20
13:40:39.343750,2.63
13:40:39.359375,1.02
13:40:39.375000,-0.57
13:40:39.390625,-2.14
13:40:39.406250,-3.75
13:40:39.421875,-5.47
13:40:39.437500,-7.40
13:40:39.453125,-9.52
13:40:39.468750,-11.77
13:40:39.484375,-14.02
13:40:39.500000,-16.15
13:40:39.515625,-18.05
13:40:39.531250,-19.65
13:40:39.546875,-20.90
13:40:39.562500,-21.74
13:40:39.578125,-22.07
13:40:39.593750,-21.77
13:40:39.609375,-20.76
13:40:39.625000,-19.02
13:40:39.640625,-16.60
13:40:39.656250,-13.64
13:40:39.671875,-10.33
13:40:39.687500,-6.87
13:40:39.703125,-3.42
13:40:39.718750,-0.13
13:40:39.734375,2.91
13:40:39.750000,5.62
13:40:39.765625,7.91
13:40:39.781250,9.73
13:40:39.796875,11.02
13:40:39.812500,11.78
13:40:39.828125,12.10
13:40:39.843750,12.10
13:40:39.859375,11.96
13:40:39.875000,11.82
13:40:39.890625,11.74
13:40:39.906250,11.69
13:40:39.921875,11.51
13:40:39.937500,11.05
13:40:39.953125,10.22
13:40:39.968750,9.05
13:40:39.984375,7.70
13:40:40,6.37
13:40:40.015625,5.19
13:40:40.031250,4.18
13:40:40.046875,3.23
13:40:40.062500,2.19
13:40:40.078125,0.99
13:40:40.093750,-0.40
13:40:40.109375,-1.88
13:40:40.125000,-3.34
13:40:40.140625,-4.68
13:40:40.156250,-5.81
13:40:40.171875,-6.66
13:40:40.187500,-7.15
13:40:40.203125,-7.25
13:40:40.218750,-6.95
13:40:40.234375,-6.35
13:40:40.250000,-5.53
13:40:40.265625,-4.59
13:40:40.281250,-3.58
13:40:40.296875,-2.51
13:40:40.312500,-1.40
13:40:40.328125,-0.33
13:40:40.343750,0.57
13:40:40.359375,1.20
13:40:40.375000,1.51
13:40:40.390625,1.59
13:40:40.406250,1.57
13:40:40.421875,1.60
13:40:40.437500,1.74
13:40:40.453125,1.96
13:40:40.468750,2.21
13:40:40.484375,2.46
13:40:40.500000,2.73
13:40:40.515625,3.10
13:40:40.531250,3.61
13:40:40.546875,4.25
13:40:40.562500,4.90
13:40:40.578125,5.40
13:40:40.593750,5.62
13:40:40.609375,5.55
13:40:40.625000,5.26
13:40:40.640625,4.88
13:40:40.656250,4.48
13:40:40.671875,4.03
13:40:40.687500,3.44
13:40:40.703125,2.66
13:40:40.718750,1.67
13:40:40.734375,0.50
13:40:40.750000,-0.76
13:40:40.765625,-2.10
13:40:40.781250,-3.54
13:40:40.796875,-5.14
13:40:40.812500,-6.85
13:40:40.828125,-8.55
13:40:40.843750,-9.99
13:40:40.859375,-10.93
13:40:40.875000,-11.22
13:40:40.890625,-10.85
13:40:40.906250,-9.95
13:40:40.921875,-8.70
13:40:40.937500,-7.30
13:40:40.953125,-5.88
13:40:40.968750,-4.57
13:40:40.984375,-3.46
13:40:41,-2.65
13:40:41.015625,-2.18
13:40:41.031250,-1.96
13:40:41.046875,-1.78
13:40:41.062500,-1.34
13:40:41.078125,-0.35
13:40:41.093750,1.34
13:40:41.109375,3.70
13:40:41.125000,6.50
13:40:41.140625,9.42
13:40:41.156250,12.14
13:40:41.171875,14.38
13:40:41.187500,16.04
13:40:41.203125,17.12
13:40:41.218750,17.76
13:40:41.234375,18.11
13:40:41.250000,18.26
13:40:41.265625,18.24
13:40:41.281250,18.00
13:40:41.296875,17.49
13:40:41.312500,16.69
13:40:41.328125,15.65
13:40:41.343750,14.41
13:40:41.359375,12.99
13:40:41.375000,11.31
13:40:41.390625,9.28
13:40:41.406250,6.82
13:40:41.421875,3.98
13:40:41.437500,0.91
13:40:41.453125,-2.17
13:40:41.468750,-5.09
13:40:41.484375,-7.75
13:40:41.500000,-10.11
13:40:41.515625,-12.19
13:40:41.531250,-13.93
13:40:41.546875,-15.29
13:40:41.562500,-16.17
13:40:41.578125,-16.48
13:40:41.593750,-16.17
13:40:41.609375,-15.25
13:40:41.625000,-13.77
13:40:41.640625,-11.89
13:40:41.656250,-9.78
13:40:41.671875,-7.65
13:40:41.687500,-5.67
13:40:41.703125,-3.92
13:40:41.718750,-2.38
13:40:41.734375,-0.95
13:40:41.750000,0.51
13:40:41.765625,2.02
13:40:41.781250,3.47
13:40:41.796875,4.67
13:40:41.812500,5.37
13:40:41.828125,5.49
13:40:41.843750,5.09
13:40:41.859375,4.43
13:40:41.875000,3.77
13:40:41.890625,3.33
13:40:41.906250,3.15
13:40:41.921875,3.11
13:40:41.937500,2.95
13:40:41.953125,2.46
13:40:41.968750,1.45
13:40:41.984375,-0.10
13:40:42,-2.06
13:40:42.015625,-4.20
13:40:42.031250,-6.21
13:40:42.046875,-7.79
13:40:42.062500,-8.79
13:40:42.078125,-9.22
13:40:42.093750,-9.28
13:40:42.109375,-9.30
13:40:42.125000,-9.52
13:40:42.140625,-10.04
13:40:42.156250,-10.77
13:40:42.171875,-11.44
13:40:42.187500,-11.78
13:40:42.203125,-11.62
13:40:42.218750,-10.96
13:40:42.234375,-9.93
13:40:42.250000,-8.72
13:40:42.265625,-7.43
13:40:42.281250,-6.11
13:40:42.296875,-4.74
13:40:42.312500,-3.33
13:40:42.328125,-1.89
13:40:42.343750,-0.45
13:40:42.359375,1.01
13:40:42.375000,2.48
13:40:42.390625,3.93
13:40:42.406250,5.27
13:40:42.421875,6.38
13:40:42.437500,7.14
13:40:42.453125,7.53
13:40:42.468750,7.67
13:40:42.484375,7.72
13:40:42.500000,7.81
13:40:42.515625,7.99
13:40:42.531250,8.19
13:40:42.546875,8.30
13:40:42.562500,8.23
13:40:42.578125,8.00
13:40:42.593750,7.65
13:40:42.609375,7.24
13:40:42.625000,6.76
13:40:42.640625,6.13
13:40:42.656250,5.31
13:40:42.671875,4.37
13:40:42.687500,3.50
13:40:42.703125,2.98
13:40:42.718750,3.05
13:40:42.734375,3.80
13:40:42.750000,5.07
13:40:42.765625,6.49
13:40:42.781250,7.61
13:40:42.796875,7.94
13:40:42.812500,7.17
13:40:42.828125,5.23
13:40:42.843750,2.32
13:40:42.859375,-1.07
13:40:42.875000,-4.23
13:40:42.890625,-6.51
13:40:42.906250,-7.46
13:40:42.921875,-6.99
13:40:42.937500,-5.43
13:40:42.953125,-3.27
13:40:42.968750,-1.05
13:40:42.984375,0.88
13:40:43,2.40
13:40:43.015625,3.54
13:40:43.031250,4.38
13:40:43.046875,4.92
13:40:43.062500,5.14
13:40:43.078125,5.05
13:40:43.093750,4.74
13:40:43.109375,4.35
13:40:43.125000,4.03
13:40:43.140625,3.81
13:40:43.156250,3.55
13:40:43.171875,3.13
13:40:43.187500,2.45
13:40:43.203125,1.62
13:40:43.218750,0.88
13:40:43.234375,0.47
13:40:43.250000,0.51
13:40:43.265625,0.92
13:40:43.281250,1.44
13:40:43.296875,1.75
13:40:43.312500,1.63
13:40:43.328125,1.05
13:40:43.343750,0.16
13:40:43.359375,-0.82
13:40:43.375000,-1.69
13:40:43.390625,-2.36
13:40:43.406250,-2.83
13:40:43.421875,-3.22
13:40:43.437500,-3.67
13:40:43.453125,-4.30
13:40:43.468750,-5.17
13:40:43.484375,-6.27
13:40:43.500000,-7.51
13:40:43.515625,-8.75
13:40:43.531250,-9.79
13:40:43.546875,-10.47
13:40:43.562500,-10.68
13:40:43.578125,-10.40
13:40:43.593750,-9.66
13:40:43.609375,-8.57
13:40:43.625000,-7.20
13:40:43.640625,-5.62
13:40:43.656250,-3.90
13:40:43.671875,-2.15
13:40:43.687500,-0.57
13:40:43.703125,0.68
13:40:43.718750,1.48
13:40:43.734375,1.90
13:40:43.750000,2.14
13:40:43.765625,2.43
13:40:43.781250,2.92
13:40:43.796875,3.53
13:40:43.812500,4.06
13:40:43.828125,4.27
13:40:43.843750,4.05
13:40:43.859375,3.49
13:40:43.875000,2.80
13:40:43.890625,2.23
13:40:43.906250,1.90
13:40:43.921875,1.83
13:40:43.937500,1.89
13:40:43.953125,1.97
13:40:43.968750,1.97
13:40:43.984375,1.88
13:40:44,1.74
13:40:44.015625,1.58
13:40:44.031250,1.43
13:40:44.046875,1.25
13:40:44.062500,0.97
13:40:44.078125,0.50
13:40:44.093750,-0.17
13:40:44.109375,-1.01
13:40:44.125000,-1.92
13:40:44.140625,-2.84
13:40:44.156250,-3.78
13:40:44.171875,-4.76
13:40:44.187500,-5.84
13:40:44.203125,-6.94
13:40:44.218750,-7.87
13:40:44.234375,-8.42
13:40:44.250000,-8.42
13:40:44.265625,-7.90
13:40:44.281250,-7.05
13:40:44.296875,-6.12
13:40:44.312500,-5.24
13:40:44.328125,-4.37
13:40:44.343750,-3.37
13:40:44.359375,-2.11
13:40:44.375000,-0.58
13:40:44.390625,0.98
13:40:44.406250,2.32
13:40:44.421875,3.22
13:40:44.437500,3.70
13:40:44.453125,3.91
13:40:44.468750,4.10
13:40:44.484375,4.43
13:40:44.500000,4.91
13:40:44.515625,5.40
13:40:44.531250,5.74
13:40:44.546875,5.79
13:40:44.562500,5.53
13:40:44.578125,5.09
13:40:44.593750,4.64
13:40:44.609375,4.35
13:40:44.625000,4.28
13:40:44.640625,4.40
13:40:44.656250,4.56
13:40:44.671875,4.59
13:40:44.687500,4.36
13:40:44.703125,3.83
13:40:44.718750,3.10
13:40:44.734375,2.30
13:40:44.750000,1.57
13:40:44.765625,0.93
13:40:44.781250,0.34
13:40:44.796875,-0.30
13:40:44.812500,-1.05
13:40:44.828125,-1.92
13:40:44.843750,-2.79
13:40:44.859375,-3.59
13:40:44.875000,-4.25
13:40:44.890625,-4.78
13:40:44.906250,-5.19
13:40:44.921875,-5.48
13:40:44.937500,-5.57
13:40:44.953125,-5.37
13:40:44.968750,-4.80
13:40:44.984375,-3.91
13:40:45,-2.82
13:40:45.015625,-1.71
13:40:45.031250,-0.72
13:40:45.046875,0.11
13:40:45.062500,0.79
13:40:45.078125,1.39
13:40:45.093750,1.92
13:40:45.109375,2.33
13:40:45.125000,2.59
13:40:45.140625,2.69
13:40:45.156250,2.68
13:40:45.171875,2.66
13:40:45.187500,2.71
13:40:45.203125,2.88
13:40:45.218750,3.20
13:40:45.234375,3.64
13:40:45.250000,4.13
13:40:45.265625,4.58
13:40:45.281250,4.88
13:40:45.296875,4.94
13:40:45.312500,4.73
13:40:45.328125,4.32
13:40:45.343750,3.83
13:40:45.359375,3.36
13:40:45.375000,2.87
13:40:45.390625,2.28
13:40:45.406250,1.45
13:40:45.421875,0.38
13:40:45.437500,-0.80
13:40:45.453125,-1.88
13:40:45.468750,-2.67
13:40:45.484375,-3.14
13:40:45.500000,-3.45
13:40:45.515625,-3.84
13:40:45.531250,-4.49
13:40:45.546875,-5.40
13:40:45.562500,-6.37
13:40:45.578125,-7.08
13:40:45.593750,-7.25
13:40:45.609375,-6.78
13:40:45.625000,-5.74
13:40:45.640625,-4.38
13:40:45.656250,-2.98
13:40:45.671875,-1.73
13:40:45.687500,-0.71
13:40:45.703125,0.14
13:40:45.718750,0.92
13:40:45.734375,1.78
13:40:45.750000,2.80
13:40:45.765625,3.99
13:40:45.781250,5.23
13:40:45.796875,6.36
13:40:45.812500,7.21
13:40:45.828125,7.66
13:40:45.843750,7.71
13:40:45.859375,7.48
13:40:45.875000,7.15
13:40:45.890625,6.85
13:40:45.906250,6.62
13:40:45.921875,6.39
13:40:45.937500,6.06
13:40:45.953125,5.55
13:40:45.968750,4.91
13:40:45.984375,4.23
13:40:46,3.63
13:40:46.015625,3.14
13:40:46.031250,2.72
13:40:46.046875,2.28
13:40:46.062500,1.72
13:40:46.078125,1.06
13:40:46.093750,0.36
13:40:46.109375,-0.30
13:40:46.125000,-0.86
13:40:46.140625,-1.29
13:40:46.156250,-1.66
13:40:46.171875,-2.01
13:40:46.187500,-2.45
13:40:46.203125,-3.05
13:40:46.218750,-3.86
13:40:46.234375,-4.86
13:40:46.250000,-5.98
13:40:46.265625,-7.05
13:40:46.281250,-7.85
13:40:46.296875,-8.21
13:40:46.312500,-8.08
13:40:46.328125,-7.54
13:40:46.343750,-6.80
13:40:46.359375,-6.08
13:40:46.375000,-5.54
13:40:46.390625,-5.19
13:40:46.406250,-4.95
13:40:46.421875,-4.65
13:40:46.437500,-4.17
13:40:46.453125,-3.49
13:40:46.468750,-2.67
13:40:46.484375,-1.83
13:40:46.500000,-1.07
13:40:46.515625,-0.41
13:40:46.531250,0.18
13:40:46.546875,0.74
13:40:46.562500,1.27
13:40:46.578125,1.69
13:40:46.593750,1.94
13:40:46.609375,1.94
13:40:46.625000,1.77
13:40:46.640625,1.54
13:40:46.656250,1.37
13:40:46.671875,1.32
13:40:46.687500,1.33
13:40:46.703125,1.30
13:40:46.718750,1.12
13:40:46.734375,0.78
13:40:46.750000,0.33
13:40:46.765625,-0.13
13:40:46.781250,-0.53
13:40:46.796875,-0.87
13:40:46.812500,-1.19
13:40:46.828125,-1.53
13:40:46.843750,-1.90
13:40:46.859375,-2.31
13:40:46.875000,-2.70
13:40:46.890625,-3.08
13:40:46.906250,-3.43
13:40:46.921875,-3.78
13:40:46.937500,-4.16
13:40:46.953125,-4.61
13:40:46.968750,-5.15
13:40:46.984375,-5.73
13:40:47,-6.23
13:40:47.015625,-6.47
13:40:47.031250,-6.30
13:40:47.046875,-5.70
13:40:47.062500,-4.76
13:40:47.078125,-3.67
13:40:47.093750,-2.62
13:40:47.109375,-1.73
13:40:47.125000,-0.98
13:40:47.140625,-0.27
13:40:47.156250,0.50
13:40:47.171875,1.33
13:40:47.187500,2.23
13:40:47.203125,3.12
13:40:47.218750,3.96
13:40:47.234375,4.71
13:40:47.250000,5.31
13:40:47.265625,5.68
13:40:47.281250,5.75
13:40:47.296875,5.50
13:40:47.312500,5.00
13:40:47.328125,4.44
13:40:47.343750,4.02
13:40:47.359375,3.90
13:40:47.375000,4.06
13:40:47.390625,4.38
13:40:47.406250,4.63
13:40:47.421875,4.63
13:40:47.437500,4.33
13:40:47.453125,3.81
13:40:47.468750,3.22
13:40:47.484375,2.67
13:40:47.500000,2.21
13:40:47.515625,1.77
13:40:47.531250,1.25
13:40:47.546875,0.58
13:40:47.562500,-0.21
13:40:47.578125,-1.02
13:40:47.593750,-1.74
13:40:47.609375,-2.34
13:40:47.625000,-2.92
13:40:47.640625,-3.61
13:40:47.656250,-4.50
13:40:47.671875,-5.55
13:40:47.687500,-6.57
13:40:47.703125,-7.31
13:40:47.718750,-7.53
13:40:47.734375,-7.17
13:40:47.750000,-6.34
13:40:47.765625,-5.26
13:40:47.781250,-4.16
13:40:47.796875,-3.22
13:40:47.812500,-2.47
13:40:47.828125,-1.81
13:40:47.843750,-1.13
13:40:47.859375,-0.30
13:40:47.875000,0.68
13:40:47.890625,1.72
13:40:47.906250,2.67
13:40:47.921875,3.38
13:40:47.937500,3.81
13:40:47.953125,4.01
13:40:47.968750,4.08
13:40:47.984375,4.07
13:40:48,3.98
13:40:48.015625,3.71
13:40:48.031250,3.18
13:40:48.046875,2.38
13:40:48.062500,1.42
13:40:48.078125,0.50
13:40:48.093750,-0.20
13:40:48.109375,-0.57
13:40:48.125000,-0.64
13:40:48.140625,-0.55
13:40:48.156250,-0.50
13:40:48.171875,-0.64
13:40:48.187500,-1.07
13:40:48.203125,-1.72
13:40:48.218750,-2.47
13:40:48.234375,-3.22
13:40:48.250000,-3.90
13:40:48.265625,-4.54
13:40:48.281250,-5.25
13:40:48.296875,-6.08
13:40:48.312500,-7.08
13:40:48.328125,-8.22
13:40:48.343750,-9.41
13:40:48.359375,-10.56
13:40:48.375000,-11.56
13:40:48.390625,-12.28
13:40:48.406250,-12.57
13:40:48.421875,-12.38
13:40:48.437500,-11.73
13:40:48.453125,-10.81
13:40:48.468750,-9.90
13:40:48.484375,-9.28
13:40:48.500000,-9.08
13:40:48.515625,-9.24
13:40:48.531250,-9.52
13:40:48.546875,-9.62
13:40:48.562500,-9.29
13:40:48.578125,-8.43
13:40:48.593750,-7.04
13:40:48.609375,-5.28
13:40:48.625000,-3.30
13:40:48.640625,-1.26
13:40:48.656250,0.72
13:40:48.671875,2.59
13:40:48.687500,4.35
13:40:48.703125,6.11
13:40:48.718750,8.01
13:40:48.734375,10.20
13:40:48.750000,12.71
13:40:48.765625,15.42
13:40:48.781250,18.02
13:40:48.796875,20.16
13:40:48.812500,21.52
13:40:48.828125,21.97
13:40:48.843750,21.60
13:40:48.859375,20.63
13:40:48.875000,19.32
13:40:48.890625,17.77
13:40:48.906250,16.03
13:40:48.921875,14.00
13:40:48.937500,11.66
13:40:48.953125,9.05
13:40:48.968750,6.32
13:40:48.984375,3.66
13:40:49,1.28
13:40:49.015625,-0.65
13:40:49.031250,-2.05
13:40:49.046875,-2.84
13:40:49.062500,-3.07
13:40:49.078125,-2.82
13:40:49.093750,-2.27
13:40:49.109375,-1.63
13:40:49.125000,-1.04
13:40:49.140625,-0.62
13:40:49.156250,-0.33
13:40:49.171875,-0.07
13:40:49.187500,0.36
13:40:49.203125,1.14
13:40:49.218750,2.41
13:40:49.234375,4.19
13:40:49.250000,6.32
13:40:49.265625,8.52
13:40:49.281250,10.42
13:40:49.296875,11.69
13:40:49.312500,12.15
13:40:49.328125,11.83
13:40:49.343750,10.94
13:40:49.359375,9.77
13:40:49.375000,8.55
13:40:49.390625,7.39
13:40:49.406250,6.28
13:40:49.421875,5.13
13:40:49.437500,3.88
13:40:49.453125,2.56
13:40:49.468750,1.29
13:40:49.484375,0.18
13:40:49.500000,-0.73
13:40:49.515625,-1.50
13:40:49.531250,-2.27
13:40:49.546875,-3.15
13:40:49.562500,-4.17
13:40:49.578125,-5.25
13:40:49.593750,-6.28
13:40:49.609375,-7.17
13:40:49.625000,-7.98
13:40:49.640625,-8.85
13:40:49.656250,-9.98
13:40:49.671875,-11.45
13:40:49.687500,-13.19
13:40:49.703125,-14.96
13:40:49.718750,-16.45
13:40:49.734375,-17.41
13:40:49.750000,-17.75
13:40:49.765625,-17.52
13:40:49.781250,-16.91
13:40:49.796875,-16.13
13:40:49.812500,-15.31
13:40:49.828125,-14.46
13:40:49.843750,-13.46
13:40:49.859375,-12.19
13:40:49.875000,-10.58
13:40:49.890625,-8.67
13:40:49.906250,-6.65
13:40:49.921875,-4.74
13:40:49.937500,-3.16
13:40:49.953125,-1.97
13:40:49.968750,-1.07
13:40:49.984375,-0.27
13:40:50,0.65
13:40:50.015625,1.82
13:40:50.031250,3.23
13:40:50.046875,4.76
13:40:50.062500,6.20
13:40:50.078125,7.40
13:40:50.093750,8.28
13:40:50.109375,8.85
13:40:50.125000,9.10
13:40:50.140625,9.06
13:40:50.156250,8.69
13:40:50.171875,7.96
13:40:50.187500,6.89
13:40:50.203125,5.59
13:40:50.218750,4.15
13:40:50.234375,2.69
13:40:50.250000,1.20
13:40:50.265625,-0.43
13:40:50.281250,-2.33
13:40:50.296875,-4.63
13:40:50.312500,-7.29
13:40:50.328125,-10.14
13:40:50.343750,-12.90
13:40:50.359375,-15.29
13:40:50.375000,-17.13
13:40:50.390625,-18.39
13:40:50.406250,-19.21
13:40:50.421875,-19.76
13:40:50.437500,-20.15
13:40:50.453125,-20.35
13:40:50.468750,-20.22
13:40:50.484375,-19.64
13:40:50.500000,-18.62
13:40:50.515625,-17.27
13:40:50.531250,-15.75
13:40:50.546875,-14.14
13:40:50.562500,-12.36
13:40:50.578125,-10.18
13:40:50.593750,-7.45
13:40:50.609375,-4.24
13:40:50.625000,-0.87
13:40:50.640625,2.19
13:40:50.656250,4.56
13:40:50.671875,6.16
13:40:50.687500,7.26
13:40:50.703125,8.35
13:40:50.718750,9.88
13:40:50.734375,12.13
13:40:50.750000,15.04
13:40:50.765625,18.35
13:40:50.781250,21.71
13:40:50.796875,24.76
13:40:50.812500,27.34
13:40:50.828125,29.44
13:40:50.843750,31.20
13:40:50.859375,32.80
13:40:50.875000,34.32
13:40:50.890625,35.65
13:40:50.906250,36.46
13:40:50.921875,36.36
13:40:50.937500,35.01
13:40:50.953125,32.32
13:40:50.968750,28.49
13:40:50.984375,23.92
13:40:51,19.08
13:40:51.015625,14.34
13:40:51.031250,9.95
13:40:51.046875,6.00
13:40:51.062500,2.47
13:40:51.078125,-0.76
13:40:51.093750,-3.95
13:40:51.109375,-7.49
13:40:51.125000,-11.72
13:40:51.140625,-16.84
13:40:51.156250,-22.74
13:40:51.171875,-29.05
13:40:51.187500,-35.12
13:40:51.203125,-40.26
13:40:51.218750,-43.91
13:40:51.234375,-45.66
13:40:51.250000,-45.35
13:40:51.265625,-42.97
13:40:51.281250,-38.62
13:40:51.296875,-32.48
13:40:51.312500,-24.85
13:40:51.328125,-16.11
13:40:51.343750,-6.79
13:40:51.359375,2.53
13:40:51.375000,11.29
13:40:51.390625,19.03
13:40:51.406250,25.45
13:40:51.421875,30.47
13:40:51.437500,34.17
13:40:51.453125,36.72
13:40:51.468750,38.33
13:40:51.484375,39.23
13:40:51.500000,39.60
13:40:51.515625,39.54
13:40:51.531250,39.04
13:40:51.546875,37.97
13:40:51.562500,36.10
13:40:51.578125,33.22
13:40:51.593750,29.22
13:40:51.609375,24.28
13:40:51.625000,18.81
13:40:51.640625,13.45
13:40:51.656250,8.83
13:40:51.671875,5.32
13:40:51.687500,2.96
13:40:51.703125,1.41
13:40:51.718750,0.15
13:40:51.734375,-1.28
13:40:51.750000,-2.96
13:40:51.765625,-4.69
13:40:51.781250,-6.11
13:40:51.796875,-7.03
13:40:51.812500,-7.71
13:40:51.828125,-8.72
13:40:51.843750,-10.69
13:40:51.859375,-13.96
13:40:51.875000,-18.38
13:40:51.890625,-23.32
13:40:51.906250,-27.99
13:40:51.921875,-31.75
13:40:51.937500,-34.24
13:40:51.953125,-35.40
13:40:51.968750,-35.37
13:40:51.984375,-34.36
13:40:52,-32.58
13:40:52.015625,-30.29
13:40:52.031250,-27.79
13:40:52.046875,-25.29
13:40:52.062500,-22.95
13:40:52.078125,-20.68
13:40:52.093750,-18.32
13:40:52.109375,-15.69
13:40:52.125000,-12.78
13:40:52.140625,-9.79
13:40:52.156250,-7.07
13:40:52.171875,-4.91
13:40:52.187500,-3.43
13:40:52.203125,-2.50
13:40:52.218750,-1.86
13:40:52.234375,-1.29
13:40:52.250000,-0.83
13:40:52.265625,-0.80
13:40:52.281250,-1.66
13:40:52.296875,-3.74
13:40:52.312500,-6.98
13:40:52.328125,-10.87
13:40:52.343750,-14.69
13:40:52.359375,-17.81
13:40:52.375000,-19.88
13:40:52.390625,-20.70
13:40:52.406250,-20.09
13:40:52.421875,-17.70
13:40:52.437500,-13.23
13:40:52.453125,-6.76
13:40:52.468750,1.06
13:40:52.484375,9.04
13:40:52.500000,15.89
13:40:52.515625,20.78
13:40:52.531250,23.68
13:40:52.546875,25.22
13:40:52.562500,26.12
13:40:52.578125,26.70
13:40:52.593750,26.70
13:40:52.609375,25.51
13:40:52.625000,22.73
13:40:52.640625,18.54
13:40:52.656250,13.75
13:40:52.671875,9.32
13:40:52.687500,5.97
13:40:52.703125,3.90
13:40:52.718750,2.80
13:40:52.734375,2.25
13:40:52.750000,1.87
13:40:52.765625,1.59
13:40:52.781250,1.50
13:40:52.796875,1.71
13:40:52.812500,2.14
13:40:52.828125,2.54
13:40:52.843750,2.55
13:40:52.859375,1.94
13:40:52.875000,0.71
13:40:52.890625,-0.89
13:40:52.906250,-2.50
13:40:52.921875,-3.77
13:40:52.937500,-4.53
13:40:52.953125,-4.79
13:40:52.968750,-4.76
13:40:52.984375,-4.71
13:40:53,-4.85
13:40:53.015625,-5.33
13:40:53.031250,-6.15
13:40:53.046875,-7.22
13:40:53.062500,-8.40
13:40:53.078125,-9.55
13:40:53.093750,-10.58
13:40:53.109375,-11.41
13:40:53.125000,-12.00
13:40:53.140625,-12.28
13:40:53.156250,-12.22
13:40:53.171875,-11.77
13:40:53.187500,-10.96
13:40:53.203125,-9.86
13:40:53.218750,-8.60
13:40:53.234375,-7.28
13:40:53.250000,-6.02
13:40:53.265625,-4.86
13:40:53.281250,-3.82
13:40:53.296875,-2.85
13:40:53.312500,-1.89
13:40:53.328125,-0.80
13:40:53.343750,0.56
13:40:53.359375,2.37
13:40:53.375000,4.74
13:40:53.390625,7.64
13:40:53.406250,10.99
13:40:53.421875,14.56
13:40:53.437500,18.11
13:40:53.453125,21.33
13:40:53.468750,23.98
13:40:53.484375,25.89
13:40:53.500000,26.98
13:40:53.515625,27.38
13:40:53.531250,27.33
13:40:53.546875,27.08
13:40:53.562500,26.67
13:40:53.578125,25.83
13:40:53.593750,24.01
13:40:53.609375,20.63
13:40:53.625000,15.44
13:40:53.640625,8.75
13:40:53.656250,1.40
13:40:53.671875,-5.52
13:40:53.687500,-11.00
13:40:53.703125,-14.45
13:40:53.718750,-15.80
13:40:53.734375,-15.33
13:40:53.750000,-13.61
13:40:53.765625,-11.19
13:40:53.781250,-8.71
13:40:53.796875,-6.79
13:40:53.812500,-6.01
13:40:53.828125,-6.70
13:40:53.843750,-8.74
13:40:53.859375,-11.44
13:40:53.875000,-13.73
13:40:53.890625,-14.53
13:40:53.906250,-13.21
13:40:53.921875,-9.91
13:40:53.937500,-5.40
13:40:53.953125,-0.84
13:40:53.968750,2.80
13:40:53.984375,5.08
13:40:54,6.21
13:40:54.015625,6.81
13:40:54.031250,7.64
13:40:54.046875,9.25
13:40:54.062500,11.82
13:40:54.078125,15.26
13:40:54.093750,19.16
13:40:54.109375,22.98
13:40:54.125000,26.09
13:40:54.140625,27.92
13:40:54.156250,28.16
13:40:54.171875,26.82
13:40:54.187500,24.38
13:40:54.203125,21.59
13:40:54.218750,19.21
13:40:54.234375,17.70
13:40:54.250000,17.11
13:40:54.265625,17.06
13:40:54.281250,17.11
13:40:54.296875,17.03
13:40:54.312500,16.96
13:40:54.328125,17.33
13:40:54.343750,18.48
13:40:54.359375,20.39
13:40:54.375000,22.57
13:40:54.390625,24.34
13:40:54.406250,25.17
13:40:54.421875,25.02
13:40:54.437500,24.32
13:40:54.453125,23.64
13:40:54.468750,23.36
13:40:54.484375,23.36
13:40:54.500000,23.22
13:40:54.515625,22.61
13:40:54.531250,21.58
13:40:54.546875,20.66
13:40:54.562500,20.51
13:40:54.578125,21.46
13:40:54.593750,23.20
13:40:54.609375,24.88
13:40:54.625000,25.53
13:40:54.640625,24.62
13:40:54.656250,22.38
13:40:54.671875,19.58
13:40:54.687500,17.09
13:40:54.703125,15.37
13:40:54.718750,14.21
13:40:54.734375,12.88
13:40:54.750000,10.63
13:40:54.765625,7.03
13:40:54.781250,2.31
13:40:54.796875,-2.95
13:40:54.812500,-8.10
13:40:54.828125,-12.76
13:40:54.843750,-16.96
13:40:54.859375,-21.02
13:40:54.875000,-25.29
13:40:54.890625,-29.91
13:40:54.906250,-34.81
13:40:54.921875,-39.76
13:40:54.937500,-44.54
13:40:54.953125,-48.94
13:40:54.968750,-52.85
13:40:54.984375,-56.10
13:40:55,-58.47
13:40:55.015625,-59.69
13:40:55.031250,-59.53
13:40:55.046875,-57.92
13:40:55.062500,-55.00
13:40:55.078125,-51.07
13:40:55.093750,-46.54
13:40:55.109375,-41.85
13:40:55.125000,-37.39
13:40:55.140625,-33.53
13:40:55.156250,-30.51
13:40:55.171875,-28.39
13:40:55.187500,-26.98
13:40:55.203125,-25.83
13:40:55.218750,-24.42
13:40:55.234375,-22.33
13:40:55.250000,-19.43
13:40:55.265625,-15.97
13:40:55.281250,-12.42
13:40:55.296875,-9.32
13:40:55.312500,-7.07
13:40:55.328125,-5.92
13:40:55.343750,-5.94
13:40:55.359375,-7.07
13:40:55.375000,-9.15
13:40:55.390625,-11.80
13:40:55.406250,-14.52
13:40:55.421875,-16.70
13:40:55.437500,-17.83
13:40:55.453125,-17.64
13:40:55.468750,-16.26
13:40:55.484375,-14.11
13:40:55.500000,-11.70
13:40:55.515625,-9.56
13:40:55.531250,-7.97
13:40:55.546875,-6.98
13:40:55.562500,-6.47
13:40:55.578125,-6.18
13:40:55.593750,-5.80
13:40:55.609375,-5.00
13:40:55.625000,-3.52
13:40:55.640625,-1.30
13:40:55.656250,1.58
13:40:55.671875,4.85
13:40:55.687500,8.20
13:40:55.703125,11.36
13:40:55.718750,14.10
13:40:55.734375,16.24
13:40:55.750000,17.63
13:40:55.765625,18.15
13:40:55.781250,17.73
13:40:55.796875,16.47
13:40:55.812500,14.54
13:40:55.828125,12.20
13:40:55.843750,9.65
13:40:55.859375,6.98
13:40:55.875000,4.22
13:40:55.890625,1.41
13:40:55.906250,-1.34
13:40:55.921875,-3.83
13:40:55.937500,-5.87
13:40:55.953125,-7.36
13:40:55.968750,-8.38
13:40:55.984375,-9.10
13:40:56,-9.72
13:40:56.015625,-10.36
13:40:56.031250,-11.05
13:40:56.046875,-11.71
13:40:56.062500,-12.25
13:40:56.078125,-12.60
13:40:56.093750,-12.77
13:40:56.109375,-12.85
13:40:56.125000,-12.98
13:40:56.140625,-13.30
13:40:56.156250,-13.91
13:40:56.171875,-14.79
13:40:56.187500,-15.81
13:40:56.203125,-16.73
13:40:56.218750,-17.29
13:40:56.234375,-17.23
13:40:56.250000,-16.39
13:40:56.265625,-14.70
13:40:56.281250,-12.24
13:40:56.296875,-9.23
13:40:56.312500,-5.97
13:40:56.328125,-2.78
13:40:56.343750,0.11
13:40:56.359375,2.64
13:40:56.375000,4.90
13:40:56.390625,7.07
13:40:56.406250,9.23
13:40:56.421875,11.26
13:40:56.437500,12.96
13:40:56.453125,14.02
13:40:56.468750,14.26
13:40:56.484375,13.71
13:40:56.500000,12.57
13:40:56.515625,11.13
13:40:56.531250,9.65
13:40:56.546875,8.28
13:40:56.562500,7.12
13:40:56.578125,6.22
13:40:56.593750,5.59
13:40:56.609375,5.29
13:40:56.625000,5.32
13:40:56.640625,5.60
13:40:56.656250,6.00
13:40:56.671875,6.35
13:40:56.687500,6.50
13:40:56.703125,6.38
13:40:56.718750,5.92
13:40:56.734375,5.15
13:40:56.750000,4.06
13:40:56.765625,2.67
13:40:56.781250,0.96
13:40:56.796875,-1.08
13:40:56.812500,-3.45
13:40:56.828125,-6.05
13:40:56.843750,-8.69
13:40:56.859375,-11.11
13:40:56.875000,-13.03
13:40:56.890625,-14.19
13:40:56.906250,-14.48
13:40:56.921875,-13.92
13:40:56.937500,-12.65
13:40:56.953125,-10.93
13:40:56.968750,-9.04
13:40:56.984375,-7.21
13:40:57,-5.54
13:40:57.015625,-4.00
13:40:57.031250,-2.45
13:40:57.046875,-0.74
13:40:57.062500,1.28
13:40:57.078125,3.61
13:40:57.093750,6.16
13:40:57.109375,8.75
13:40:57.125000,11.18
13:40:57.140625,13.27
13:40:57.156250,14.94
13:40:57.171875,16.22
13:40:57.187500,17.24
13:40:57.203125,18.15
13:40:57.218750,19.10
13:40:57.234375,20.13
13:40:57.250000,21.21
13:40:57.265625,22.21
13:40:57.281250,22.95
13:40:57.296875,23.26
13:40:57.312500,23.05
13:40:57.328125,22.32
13:40:57.343750,21.22
13:40:57.359375,19.93
13:40:57.375000,18.65
13:40:57.390625,17.45
13:40:57.406250,16.27
13:40:57.421875,14.89
13:40:57.437500,13.07
13:40:57.453125,10.67
13:40:57.468750,7.73
13:40:57.484375,4.51
13:40:57.500000,1.38
13:40:57.515625,-1.31
13:40:57.531250,-3.32
13:40:57.546875,-4.60
13:40:57.562500,-5.23
13:40:57.578125,-5.32
13:40:57.593750,-5.02
13:40:57.609375,-4.43
13:40:57.625000,-3.66
13:40:57.640625,-2.79
13:40:57.656250,-1.86
13:40:57.671875,-0.85
13:40:57.687500,0.28
13:40:57.703125,1.59
13:40:57.718750,3.06
13:40:57.734375,4.64
13:40:57.750000,6.19
13:40:57.765625,7.57
13:40:57.781250,8.71
13:40:57.796875,9.56
13:40:57.812500,10.14
13:40:57.828125,10.47
13:40:57.843750,10.58
13:40:57.859375,10.48
13:40:57.875000,10.26
13:40:57.890625,9.99
13:40:57.906250,9.74
13:40:57.921875,9.55
13:40:57.937500,9.39
13:40:57.953125,9.16
13:40:57.968750,8.75
13:40:57.984375,8.08
13:40:58,7.11
13:40:58.015625,5.84
13:40:58.031250,4.36
13:40:58.046875,2.74
13:40:58.062500,1.08
13:40:58.078125,-0.57
13:40:58.093750,-2.23
13:40:58.109375,-3.98
13:40:58.125000,-5.91
13:40:58.140625,-8.09
13:40:58.156250,-10.42
13:40:58.171875,-12.71
13:40:58.187500,-14.63
13:40:58.203125,-15.86
13:40:58.218750,-16.17
13:40:58.234375,-15.52
13:40:58.250000,-14.07
13:40:58.265625,-12.08
13:40:58.281250,-9.83
13:40:58.296875,-7.58
13:40:58.312500,-5.47
13:40:58.328125,-3.57
13:40:58.343750,-1.88
13:40:58.359375,-0.36
13:40:58.375000,1.03
13:40:58.390625,2.29
13:40:58.406250,3.35
13:40:58.421875,4.16
13:40:58.437500,4.64
13:40:58.453125,4.77
13:40:58.468750,4.58
13:40:58.484375,4.20
13:40:58.500000,3.72
13:40:58.515625,3.20
13:40:58.531250,2.68
13:40:58.546875,2.15
13:40:58.562500,1.65
13:40:58.578125,1.24
13:40:58.593750,1.02
13:40:58.609375,1.00
13:40:58.625000,1.12
13:40:58.640625,1.24
13:40:58.656250,1.22
13:40:58.671875,1.07
13:40:58.687500,1.00
13:40:58.703125,1.32
13:40:58.718750,2.32
13:40:58.734375,4.08
13:40:58.750000,6.41
13:40:58.765625,8.97
13:40:58.781250,11.34
13:40:58.796875,13.27
13:40:58.812500,14.70
13:40:58.828125,15.70
13:40:58.843750,16.32
13:40:58.859375,16.50
13:40:58.875000,16.12
13:40:58.890625,15.10
13:40:58.906250,13.52
13:40:58.921875,11.70
13:40:58.937500,10.03
13:40:58.953125,8.85
13:40:58.968750,8.23
13:40:58.984375,8.02
13:40:59,7.93
13:40:59.015625,7.72
13:40:59.031250,7.31
13:40:59.046875,6.78
13:40:59.062500,6.31
13:40:59.078125,6.06
13:40:59.093750,6.09
13:40:59.109375,6.32
13:40:59.125000,6.57
13:40:59.140625,6.66
13:40:59.156250,6.42
13:40:59.171875,5.84
13:40:59.187500,4.97
13:40:59.203125,4.01
13:40:59.218750,3.13
13:40:59.234375,2.42
13:40:59.250000,1.85
13:40:59.265625,1.23
13:40:59.281250,0.32
13:40:59.296875,-1.02
13:40:59.312500,-2.76
13:40:59.328125,-4.72
13:40:59.343750,-6.63
13:40:59.359375,-8.31
13:40:59.375000,-9.74
13:40:59.390625,-11.07
13:40:59.406250,-12.54
13:40:59.421875,-14.28
13:40:59.437500,-16.32
13:40:59.453125,-18.51
13:40:59.468750,-20.63
13:40:59.484375,-22.46
13:40:59.500000,-23.83
13:40:59.515625,-24.60
13:40:59.531250,-24.73
13:40:59.546875,-24.23
13:40:59.562500,-23.23
13:40:59.578125,-21.99
13:40:59.593750,-20.79
13:40:59.609375,-19.85
13:40:59.625000,-19.20
13:40:59.640625,-18.63
13:40:59.656250,-17.79
13:40:59.671875,-16.38
13:40:59.687500,-14.31
13:40:59.703125,-11.83
13:40:59.718750,-9.45
13:40:59.734375,-7.75
13:40:59.750000,-7.18
13:40:59.765625,-7.91
13:40:59.781250,-9.75
13:40:59.796875,-12.20
13:40:59.812500,-14.54
13:40:59.828125,-15.85
13:40:59.843750,-15.22
13:40:59.859375,-11.95
13:40:59.875000,-5.86
13:40:59.890625,2.32
13:40:59.906250,11.05
13:40:59.921875,18.37
13:40:59.937500,22.71
13:40:59.953125,23.56
13:40:59.968750,21.78
13:40:59.984375,19.20
13:41:00,17.69
13:41:00.015625,18.28
13:41:00.031250,20.71
13:41:00.046875,23.71
13:41:00.062500,25.78
13:41:00.078125,26.00
13:41:00.093750,24.40
13:41:00.109375,21.75
13:41:00.125000,19.02
13:41:00.140625,16.85
13:41:00.156250,15.35
13:41:00.171875,14.34
13:41:00.187500,13.68
13:41:00.203125,13.50
13:41:00.218750,14.15
13:41:00.234375,15.98
13:41:00.250000,19.03
13:41:00.265625,22.92
13:41:00.281250,26.96
13:41:00.296875,30.46
13:41:00.312500,32.99
13:41:00.328125,34.46
13:41:00.343750,35.06
13:41:00.359375,35.06
13:41:00.375000,34.68
13:41:00.390625,34.08
13:41:00.406250,33.38
13:41:00.421875,32.84
13:41:00.437500,32.78
13:41:00.453125,33.53
13:41:00.468750,35.21
13:41:00.484375,37.53
13:41:00.500000,39.81
13:41:00.515625,41.14
13:41:00.531250,40.73
13:41:00.546875,38.17
13:41:00.562500,33.65
13:41:00.578125,27.90
13:41:00.593750,21.83
13:41:00.609375,16.29
13:41:00.625000,11.68
13:41:00.640625,8.02
13:41:00.656250,4.93
13:41:00.671875,2.01
13:41:00.687500,-0.94
13:41:00.703125,-3.76
13:41:00.718750,-5.93
13:41:00.734375,-6.82
13:41:00.750000,-5.96
13:41:00.765625,-3.29
13:41:00.781250,0.73
13:41:00.796875,5.28
13:41:00.812500,9.49
13:41:00.828125,12.81
13:41:00.843750,15.28
13:41:00.859375,17.49
13:41:00.875000,20.30
13:41:00.890625,24.53
13:41:00.906250,30.59
13:41:00.921875,38.48
13:41:00.937500,47.79
13:41:00.953125,57.89
13:41:00.968750,67.97
13:41:00.984375,77.17
13:41:01,84.66
13:41:01.015625,89.80
13:41:01.031250,92.41
13:41:01.046875,92.72
13:41:01.062500,91.36
13:41:01.078125,88.92
13:41:01.093750,85.65
13:41:01.109375,81.27
13:41:01.125000,74.93
13:41:01.140625,65.62
13:41:01.156250,52.49
13:41:01.171875,35.14
13:41:01.187500,13.78
13:41:01.203125,-10.85
13:41:01.218750,-37.59
13:41:01.234375,-64.95
13:41:01.250000,-91.17
13:41:01.265625,-114.33
13:41:01.281250,-132.46
13:41:01.296875,-143.91
13:41:01.312500,-147.53
13:41:01.328125,-142.94
13:41:01.343750,-130.66
13:41:01.359375,-112.13
13:41:01.375000,-89.74
13:41:01.390625,-66.54
13:41:01.406250,-45.83
13:41:01.421875,-30.43
13:41:01.437500,-21.91
13:41:01.453125,-20.17
13:41:01.468750,-23.54
13:41:01.484375,-29.49
13:41:01.500000,-35.52
13:41:01.515625,-40.08
13:41:01.531250,-42.80
13:41:01.546875,-44.14
13:41:01.562500,-44.77
13:41:01.578125,-45.02
13:41:01.593750,-44.74
13:41:01.609375,-43.59
13:41:01.625000,-41.46
13:41:01.640625,-38.67
13:41:01.656250,-35.86
13:41:01.671875,-33.74
13:41:01.687500,-32.69
13:41:01.703125,-32.65
13:41:01.718750,-33.17
13:41:01.734375,-33.67
13:41:01.750000,-33.73
13:41:01.765625,-33.22
13:41:01.781250,-32.41
13:41:01.796875,-31.82
13:41:01.812500,-31.91
13:41:01.828125,-32.91
13:41:01.843750,-34.72
13:41:01.859375,-36.88
13:41:01.875000,-38.84
13:41:01.890625,-40.23
13:41:01.906250,-40.89
13:41:01.921875,-40.95
13:41:01.937500,-40.64
13:41:01.953125,-40.15
13:41:01.968750,-39.46
13:41:01.984375,-38.43
13:41:02,-36.92
13:41:02.015625,-34.80
13:41:02.031250,-32.10
13:41:02.046875,-28.93
13:41:02.062500,-25.40
13:41:02.078125,-21.55
13:41:02.093750,-17.38
13:41:02.109375,-13.01
13:41:02.125000,-8.78
13:41:02.140625,-5.29
13:41:02.156250,-3.20
13:41:02.171875,-2.97
13:41:02.187500,-4.51
13:41:02.203125,-7.23
13:41:02.218750,-10.13
13:41:02.234375,-12.34
13:41:02.250000,-13.42
13:41:02.265625,-13.50
13:41:02.281250,-13.07
13:41:02.296875,-12.64
13:41:02.312500,-12.40
13:41:02.328125,-12.20
13:41:02.343750,-11.74
13:41:02.359375,-10.87
13:41:02.375000,-9.69
13:41:02.390625,-8.53
13:41:02.406250,-7.69
13:41:02.421875,-7.29
13:41:02.437500,-7.21
13:41:02.453125,-7.27
13:41:02.468750,-7.33
13:41:02.484375,-7.48
13:41:02.500000,-7.92
13:41:02.515625,-8.81
13:41:02.531250,-10.08
13:41:02.546875,-11.48
13:41:02.562500,-12.49
13:41:02.578125,-12.60
13:41:02.593750,-11.38
13:41:02.609375,-8.65
13:41:02.625000,-4.47
13:41:02.640625,0.88
13:41:02.656250,6.99
13:41:02.671875,13.43
13:41:02.687500,19.78
13:41:02.703125,25.70
13:41:02.718750,30.93
13:41:02.734375,35.20
13:41:02.750000,38.25
13:41:02.765625,39.85
13:41:02.781250,39.88
13:41:02.796875,38.44
13:41:02.812500,35.86
13:41:02.828125,32.67
13:41:02.843750,29.41
13:41:02.859375,26.45
13:41:02.875000,23.94
13:41:02.890625,21.83
13:41:02.906250,20.06
13:41:02.921875,18.72
13:41:02.937500,18.07
13:41:02.953125,18.40
13:41:02.968750,19.86
13:41:02.984375,22.30
13:41:03,25.28
13:41:03.015625,28.18
13:41:03.031250,30.42
13:41:03.046875,31.61
13:41:03.062500,31.59
13:41:03.078125,30.44
13:41:03.093750,28.35
13:41:03.109375,25.52
13:41:03.125000,22.16
13:41:03.140625,18.47
13:41:03.156250,14.60
13:41:03.171875,10.75
13:41:03.187500,7.21
13:41:03.203125,4.25
13:41:03.218750,2.18
13:41:03.234375,1.14
13:41:03.250000,1.17
13:41:03.265625,2.24
13:41:03.281250,4.37
13:41:03.296875,7.67
13:41:03.312500,12.17
13:41:03.328125,17.50
13:41:03.343750,22.73
13:41:03.359375,26.54
13:41:03.375000,27.73
13:41:03.390625,25.74
13:41:03.406250,21.07
13:41:03.421875,15.02
13:41:03.437500,9.14
13:41:03.453125,4.45
13:41:03.468750,1.12
13:41:03.484375,-1.46
13:41:03.500000,-4.08
13:41:03.515625,-7.25
13:41:03.531250,-10.93
13:41:03.546875,-14.73
13:41:03.562500,-18.32
13:41:03.578125,-21.63
13:41:03.593750,-24.86
13:41:03.609375,-28.23
13:41:03.625000,-31.72
13:41:03.640625,-34.96
13:41:03.656250,-37.48
13:41:03.671875,-38.99
13:41:03.687500,-39.49
13:41:03.703125,-39.38
13:41:03.718750,-39.07
13:41:03.734375,-38.78
13:41:03.750000,-38.47
13:41:03.765625,-37.89
13:41:03.781250,-36.82
13:41:03.796875,-35.26
13:41:03.812500,-33.37
13:41:03.828125,-31.28
13:41:03.843750,-28.95
13:41:03.859375,-26.05
13:41:03.875000,-22.14
13:41:03.890625,-17.03
13:41:03.906250,-10.90
13:41:03.921875,-4.39
13:41:03.937500,1.70
13:41:03.953125,6.67
13:41:03.968750,10.18
13:41:03.984375,12.25
13:41:04,13.14
13:41:04.015625,13.06
13:41:04.031250,12.17
13:41:04.046875,10.45
13:41:04.062500,7.92
13:41:04.078125,4.75
13:41:04.093750,1.32
13:41:04.109375,-1.88
13:41:04.125000,-4.36
13:41:04.140625,-5.86
13:41:04.156250,-6.35
13:41:04.171875,-5.96
13:41:04.187500,-4.82
13:41:04.203125,-2.94
13:41:04.218750,-0.23
13:41:04.234375,3.34
13:41:04.250000,7.65
13:41:04.265625,12.31
13:41:04.281250,16.73
13:41:04.296875,20.25
13:41:04.312500,22.35
13:41:04.328125,22.76
13:41:04.343750,21.53
13:41:04.359375,19.00
13:41:04.375000,15.72
13:41:04.390625,12.32
13:41:04.406250,9.38
13:41:04.421875,7.32
13:41:04.437500,6.32
13:41:04.453125,6.25
13:41:04.468750,6.85
13:41:04.484375,7.79
13:41:04.500000,8.87
13:41:04.515625,10.03
13:41:04.531250,11.34
13:41:04.546875,12.88
13:41:04.562500,14.72
13:41:04.578125,16.84
13:41:04.593750,19.14
13:41:04.609375,21.35
13:41:04.625000,23.08
13:41:04.640625,23.79
13:41:04.656250,23.08
13:41:04.671875,20.77
13:41:04.687500,17.15
13:41:04.703125,12.88
13:41:04.718750,8.76
13:41:04.734375,5.43
13:41:04.750000,3.11
13:41:04.765625,1.67
13:41:04.781250,0.72
13:41:04.796875,-0.04
13:41:04.812500,-0.75
13:41:04.828125,-1.33
13:41:04.843750,-1.66
13:41:04.859375,-1.72
13:41:04.875000,-1.57
13:41:04.890625,-1.38
13:41:04.906250,-1.24
13:41:04.921875,-1.14
13:41:04.937500,-0.96
13:41:04.953125,-0.56
13:41:04.968750,0.14
13:41:04.984375,1.09
13:41:05,2.13
13:41:05.015625,3.01
13:41:05.031250,3.50
13:41:05.046875,3.47
13:41:05.062500,2.92
13:41:05.078125,1.99
13:41:05.093750,0.88
13:41:05.109375,-0.21
13:41:05.125000,-1.12
13:41:05.140625,-1.74
13:41:05.156250,-2.03
13:41:05.171875,-1.96
13:41:05.187500,-1.52
13:41:05.203125,-0.72
13:41:05.218750,0.42
13:41:05.234375,1.77
13:41:05.250000,3.18
13:41:05.265625,4.50
13:41:05.281250,5.55
13:41:05.296875,6.24
13:41:05.312500,6.52
13:41:05.328125,6.41
13:41:05.343750,5.99
13:41:05.359375,5.41
13:41:05.375000,4.85
13:41:05.390625,4.53
13:41:05.406250,4.64
13:41:05.421875,5.28
13:41:05.437500,6.42
13:41:05.453125,7.90
13:41:05.468750,9.44
13:41:05.484375,10.72
13:41:05.500000,11.46
13:41:05.515625,11.49
13:41:05.531250,10.83
13:41:05.546875,9.62
13:41:05.562500,8.06
13:41:05.578125,6.39
13:41:05.593750,4.74
13:41:05.609375,3.22
13:41:05.625000,1.81
13:41:05.640625,0.50
13:41:05.656250,-0.75
13:41:05.671875,-1.97
13:41:05.687500,-3.12
13:41:05.703125,-4.15
13:41:05.718750,-4.97
13:41:05.734375,-5.48
13:41:05.750000,-5.52
13:41:05.765625,-5.01
13:41:05.781250,-3.89
13:41:05.796875,-2.25
13:41:05.812500,-0.29
13:41:05.828125,1.69
13:41:05.843750,3.44
13:41:05.859375,4.80
13:41:05.875000,5.75
13:41:05.890625,6.39
13:41:05.906250,6.84
13:41:05.921875,7.16
13:41:05.937500,7.35
13:41:05.953125,7.32
13:41:05.968750,7.04
13:41:05.984375,6.50
13:41:06,5.74
13:41:06.015625,4.85
13:41:06.031250,3.86
13:41:06.046875,2.78
13:41:06.062500,1.59
13:41:06.078125,0.33
13:41:06.093750,-0.92
13:41:06.109375,-2.03
13:41:06.125000,-2.91
13:41:06.140625,-3.51
13:41:06.156250,-3.88
13:41:06.171875,-4.13
13:41:06.187500,-4.33
13:41:06.203125,-4.54
13:41:06.218750,-4.72
13:41:06.234375,-4.86
13:41:06.250000,-4.98
13:41:06.265625,-5.18
13:41:06.281250,-5.58
13:41:06.296875,-6.30
13:41:06.312500,-7.45
13:41:06.328125,-9.02
13:41:06.343750,-10.95
13:41:06.359375,-13.11
13:41:06.375000,-15.28
13:41:06.390625,-17.18
13:41:06.406250,-18.48
13:41:06.421875,-18.88
13:41:06.437500,-18.17
13:41:06.453125,-16.36
13:41:06.468750,-13.65
13:41:06.484375,-10.37
13:41:06.500000,-6.87
13:41:06.515625,-3.39
13:41:06.531250,-0.08
13:41:06.546875,3.01
13:41:06.562500,5.84
13:41:06.578125,8.31
13:41:06.593750,10.33
13:41:06.609375,11.86
13:41:06.625000,12.91
13:41:06.640625,13.57
13:41:06.656250,13.91
13:41:06.671875,13.96
13:41:06.687500,13.70
13:41:06.703125,13.10
13:41:06.718750,12.21
13:41:06.734375,11.12
13:41:06.750000,9.99
13:41:06.765625,8.93
13:41:06.781250,8.01
13:41:06.796875,7.23
13:41:06.812500,6.52
13:41:06.828125,5.84
13:41:06.843750,5.10
13:41:06.859375,4.24
13:41:06.875000,3.21
13:41:06.890625,2.04
13:41:06.906250,0.74
13:41:06.921875,-0.60
13:41:06.937500,-1.94
13:41:06.953125,-3.29
13:41:06.968750,-4.70
13:41:06.984375,-6.24
13:41:07,-7.90
13:41:07.015625,-9.56
13:41:07.031250,-11.05
13:41:07.046875,-12.20
13:41:07.062500,-12.91
13:41:07.078125,-13.21
13:41:07.093750,-13.24
13:41:07.109375,-13.10
13:41:07.125000,-12.86
13:41:07.140625,-12.50
13:41:07.156250,-11.94
13:41:07.171875,-11.13
13:41:07.187500,-10.05
13:41:07.203125,-8.67
13:41:07.218750,-6.96
13:41:07.234375,-4.92
13:41:07.250000,-2.60
13:41:07.265625,-0.15
13:41:07.281250,2.13
13:41:07.296875,3.94
13:41:07.312500,5.04
13:41:07.328125,5.44
13:41:07.343750,5.29
13:41:07.359375,4.89
13:41:07.375000,4.46
13:41:07.390625,4.11
13:41:07.406250,3.83
13:41:07.421875,3.54
13:41:07.437500,3.21
13:41:07.453125,2.83
13:41:07.468750,2.45
13:41:07.484375,2.05
13:41:07.500000,1.58
13:41:07.515625,0.99
13:41:07.531250,0.28
13:41:07.546875,-0.48
13:41:07.562500,-1.20
13:41:07.578125,-1.80
13:41:07.593750,-2.28
13:41:07.609375,-2.70
13:41:07.625000,-3.19
13:41:07.640625,-3.81
13:41:07.656250,-4.58
13:41:07.671875,-5.43
13:41:07.687500,-6.25
13:41:07.703125,-6.94
13:41:07.718750,-7.41
13:41:07.734375,-7.62
13:41:07.750000,-7.61
13:41:07.765625,-7.46
13:41:07.781250,-7.31
13:41:07.796875,-7.29
13:41:07.812500,-7.45
13:41:07.828125,-7.70
13:41:07.843750,-7.90
13:41:07.859375,-7.83
13:41:07.875000,-7.33
13:41:07.890625,-6.38
13:41:07.906250,-5.09
13:41:07.921875,-3.66
13:41:07.937500,-2.30
13:41:07.953125,-1.12
13:41:07.968750,-0.17
13:41:07.984375,0.58
13:41:08,1.16
13:41:08.015625,1.57
13:41:08.031250,1.77
13:41:08.046875,1.74
13:41:08.062500,1.43
13:41:08.078125,0.83
13:41:08.093750,-0.06
13:41:08.109375,-1.20
13:41:08.125000,-2.49
13:41:08.140625,-3.81
13:41:08.156250,-5.02
13:41:08.171875,-6.02
13:41:08.187500,-6.79
13:41:08.203125,-7.35
13:41:08.218750,-7.82
13:41:08.234375,-8.30
13:41:08.250000,-8.90
13:41:08.265625,-9.68
13:41:08.281250,-10.67
13:41:08.296875,-11.90
13:41:08.312500,-13.36
13:41:08.328125,-15.04
13:41:08.343750,-16.85
13:41:08.359375,-18.66
13:41:08.375000,-20.24
13:41:08.390625,-21.36
13:41:08.406250,-21.87
13:41:08.421875,-21.73
13:41:08.437500,-21.00
13:41:08.453125,-19.77
13:41:08.468750,-18.15
13:41:08.484375,-16.14
13:41:08.500000,-13.73
13:41:08.515625,-10.95
13:41:08.531250,-7.99
13:41:08.546875,-5.22
13:41:08.562500,-3.03
13:41:08.578125,-1.76
13:41:08.593750,-1.47
13:41:08.609375,-1.96
13:41:08.625000,-2.88
13:41:08.640625,-3.94
13:41:08.656250,-5.06
13:41:08.671875,-6.48
13:41:08.687500,-8.55
13:41:08.703125,-11.60
13:41:08.718750,-15.65
13:41:08.734375,-20.33
13:41:08.750000,-25.07
13:41:08.765625,-29.19
13:41:08.781250,-32.28
13:41:08.796875,-34.28
13:41:08.812500,-35.42
13:41:08.828125,-36.08
13:41:08.843750,-36.67
13:41:08.859375,-37.46
13:41:08.875000,-38.60
13:41:08.890625,-39.87
13:41:08.906250,-40.54
13:41:08.921875,-39.22
13:41:08.937500,-34.07
13:41:08.953125,-23.40
13:41:08.968750,-6.50
13:41:08.984375,15.70
13:41:09,40.68
13:41:09.015625,65.06
13:41:09.031250,85.79
13:41:09.046875,101.12
13:41:09.062500,110.83
13:41:09.078125,115.81
13:41:09.093750,117.16
13:41:09.109375,115.64
13:41:09.125000,111.56
13:41:09.140625,105.19
13:41:09.156250,97.23
13:41:09.171875,88.88
13:41:09.187500,81.50
13:41:09.203125,76.01
13:41:09.218750,72.39
13:41:09.234375,69.81
13:41:09.250000,67.04
13:41:09.265625,63.09
13:41:09.281250,57.72
13:41:09.296875,51.41
13:41:09.312500,45.02
13:41:09.328125,39.35
13:41:09.343750,34.69
13:41:09.359375,30.79
13:41:09.375000,27.07
13:41:09.390625,22.97
13:41:09.406250,18.31
13:41:09.421875,13.34
13:41:09.437500,8.68
13:41:09.453125,4.96
13:41:09.468750,2.55
13:41:09.484375,1.47
13:41:09.500000,1.41
13:41:09.515625,1.92
13:41:09.531250,2.60
13:41:09.546875,3.17
13:41:09.562500,3.57
13:41:09.578125,3.88
13:41:09.593750,4.28
13:41:09.609375,5.03
13:41:09.625000,6.31
13:41:09.640625,8.18
13:41:09.656250,10.50
13:41:09.671875,13.01
13:41:09.687500,15.40
13:41:09.703125,17.44
13:41:09.718750,19.06
13:41:09.734375,20.29
13:41:09.750000,21.27
13:41:09.765625,22.06
13:41:09.781250,22.59
13:41:09.796875,22.69
13:41:09.812500,22.05
13:41:09.828125,20.35
13:41:09.843750,17.34
13:41:09.859375,12.97
13:41:09.875000,7.40
13:41:09.890625,1.08
13:41:09.906250,-5.40
13:41:09.921875,-11.48
13:41:09.937500,-16.77
13:41:09.953125,-21.10
13:41:09.968750,-24.45
13:41:09.984375,-26.83
13:41:10,-28.21
13:41:10.015625,-28.53
13:41:10.031250,-27.79
13:41:10.046875,-26.17
13:41:10.062500,-24.07
13:41:10.078125,-21.94
13:41:10.093750,-20.19
13:41:10.109375,-18.98
13:41:10.125000,-18.29
13:41:10.140625,-17.90
13:41:10.156250,-17.63
13:41:10.171875,-17.33
13:41:10.187500,-16.94
13:41:10.203125,-16.42
13:41:10.218750,-15.64
13:41:10.234375,-14.40
13:41:10.250000,-12.50
13:41:10.265625,-9.87
13:41:10.281250,-6.66
13:41:10.296875,-3.23
13:41:10.312500,-0.07
13:41:10.328125,2.40
13:41:10.343750,3.87
13:41:10.359375,4.28
13:41:10.375000,3.66
13:41:10.390625,2.17
13:41:10.406250,-0.03
13:41:10.421875,-2.79
13:41:10.437500,-5.94
13:41:10.453125,-9.32
13:41:10.468750,-12.84
13:41:10.484375,-16.45
13:41:10.500000,-20.17
13:41:10.515625,-24.03
13:41:10.531250,-27.97
13:41:10.546875,-31.86
13:41:10.562500,-35.52
13:41:10.578125,-38.73
13:41:10.593750,-41.34
13:41:10.609375,-43.23
13:41:10.625000,-44.31
13:41:10.640625,-44.58
13:41:10.656250,-44.09
13:41:10.671875,-42.96
13:41:10.687500,-41.35
13:41:10.703125,-39.44
13:41:10.718750,-37.38
13:41:10.734375,-35.28
13:41:10.750000,-33.21
13:41:10.765625,-31.20
13:41:10.781250,-29.31
13:41:10.796875,-27.59
13:41:10.812500,-26.13
13:41:10.828125,-25.01
13:41:10.843750,-24.28
13:41:10.859375,-23.87
13:41:10.875000,-23.66
13:41:10.890625,-23.40
13:41:10.906250,-22.90
13:41:10.921875,-22.03
13:41:10.937500,-20.79
13:41:10.953125,-19.28
13:41:10.968750,-17.68
13:41:10.984375,-16.12
13:41:11,-14.71
13:41:11.015625,-13.50
13:41:11.031250,-12.53
13:41:11.046875,-11.78
13:41:11.062500,-11.26
13:41:11.078125,-10.91
13:41:11.093750,-10.66
13:41:11.109375,-10.44
13:41:11.125000,-10.15
13:41:11.140625,-9.67
13:41:11.156250,-8.89
13:41:11.171875,-7.68
13:41:11.187500,-6.03
13:41:11.203125,-4.07
13:41:11.218750,-1.99
13:41:11.234375,-0.05
13:41:11.250000,1.60
13:41:11.265625,2.90
13:41:11.281250,3.93
13:41:11.296875,4.77
13:41:11.312500,5.46
13:41:11.328125,6.00
13:41:11.343750,6.35
13:41:11.359375,6.55
13:41:11.375000,6.63
13:41:11.390625,6.68
13:41:11.406250,6.68
13:41:11.421875,6.58
13:41:11.437500,6.29
13:41:11.453125,5.79
13:41:11.468750,5.20
13:41:11.484375,4.68
13:41:11.500000,4.38
13:41:11.515625,4.35
13:41:11.531250,4.49
13:41:11.546875,4.64
13:41:11.562500,4.62
13:41:11.578125,4.39
13:41:11.593750,3.96
13:41:11.609375,3.41
13:41:11.625000,2.83
13:41:11.640625,2.25
13:41:11.656250,1.71
13:41:11.671875,1.16
13:41:11.687500,0.51
13:41:11.703125,-0.38
13:41:11.718750,-1.68
13:41:11.734375,-3.52
13:41:11.750000,-5.86
13:41:11.765625,-8.44
13:41:11.781250,-10.80
13:41:11.796875,-12.38
13:41:11.812500,-12.74
13:41:11.828125,-11.68
13:41:11.843750,-9.27
13:41:11.859375,-5.79
13:41:11.875000,-1.61
13:41:11.890625,2.96
13:41:11.906250,7.65
13:41:11.921875,12.22
13:41:11.937500,16.39
13:41:11.953125,19.81
13:41:11.968750,22.04
13:41:11.984375,22.73
13:41:12,21.64
13:41:12.015625,18.77
13:41:12.031250,14.41
13:41:12.046875,9.04
13:41:12.062500,3.27
13:41:12.078125,-2.24
13:41:12.093750,-6.92
13:41:12.109375,-10.31
13:41:12.125000,-12.10
13:41:12.140625,-12.21
13:41:12.156250,-10.74
13:41:12.171875,-8.09
13:41:12.187500,-4.85
13:41:12.203125,-1.69
13:41:12.218750,0.86
13:41:12.234375,2.52
13:41:12.250000,3.30
13:41:12.265625,3.48
13:41:12.281250,3.35
13:41:12.296875,3.13
13:41:12.312500,2.85
13:41:12.328125,2.45
13:41:12.343750,1.84
13:41:12.359375,1.01
13:41:12.375000,0.01
13:41:12.390625,-1.10
13:41:12.406250,-2.34
13:41:12.421875,-3.78
13:41:12.437500,-5.46
13:41:12.453125,-7.30
13:41:12.468750,-9.09
13:41:12.484375,-10.55
13:41:12.500000,-11.48
13:41:12.515625,-11.78
13:41:12.531250,-11.55
13:41:12.546875,-10.91
13:41:12.562500,-9.98
13:41:12.578125,-8.82
13:41:12.593750,-7.46
13:41:12.609375,-5.92
13:41:12.625000,-4.29
13:41:12.640625,-2.67
13:41:12.656250,-1.18
13:41:12.671875,0.14
13:41:12.687500,1.24
13:41:12.703125,2.13
13:41:12.718750,2.84
13:41:12.734375,3.36
13:41:12.750000,3.75
13:41:12.765625,3.98
13:41:12.781250,4.00
13:41:12.796875,3.71
13:41:12.812500,2.93
13:41:12.828125,1.51
13:41:12.843750,-0.67
13:41:12.859375,-3.58
13:41:12.875000,-6.98
13:41:12.890625,-10.44
13:41:12.906250,-13.39
13:41:12.921875,-15.22
13:41:12.937500,-15.50
13:41:12.953125,-14.11
13:41:12.968750,-11.33
13:41:12.984375,-7.61
13:41:13,-3.51
13:41:13.015625,0.59
13:41:13.031250,4.48
13:41:13.046875,8.06
13:41:13.062500,11.20
13:41:13.078125,13.72
13:41:13.093750,15.35
13:41:13.109375,15.94
13:41:13.125000,15.53
13:41:13.140625,14.38
13:41:13.156250,12.89
13:41:13.171875,11.45
13:41:13.187500,10.41
13:41:13.203125,9.96
13:41:13.218750,10.19
13:41:13.234375,11.07
13:41:13.250000,12.52
13:41:13.265625,14.27
13:41:13.281250,16.04
13:41:13.296875,17.51
13:41:13.312500,18.36
13:41:13.328125,18.43
13:41:13.343750,17.65
13:41:13.359375,16.12
13:41:13.375000,14.06
13:41:13.390625,11.74
13:41:13.406250,9.43
13:41:13.421875,7.33
13:41:13.437500,5.52
13:41:13.453125,4.03
13:41:13.468750,2.85
13:41:13.484375,1.94
13:41:13.500000,1.25
13:41:13.515625,0.75
13:41:13.531250,0.43
13:41:13.546875,0.27
13:41:13.562500,0.38
13:41:13.578125,0.85
13:41:13.593750,1.77
13:41:13.609375,3.09
13:41:13.625000,4.63
13:41:13.640625,6.08
13:41:13.656250,7.13
13:41:13.671875,7.56
13:41:13.687500,7.28
13:41:13.703125,6.36
13:41:13.718750,4.94
13:41:13.734375,3.18
13:41:13.750000,1.21
13:41:13.765625,-0.84
13:41:13.781250,-2.86
13:41:13.796875,-4.77
13:41:13.812500,-6.51
13:41:13.828125,-8.08
13:41:13.843750,-9.48
13:41:13.859375,-10.68
13:41:13.875000,-11.58
13:41:13.890625,-12.05
13:41:13.906250,-11.98
13:41:13.921875,-11.36
13:41:13.937500,-10.27
13:41:13.953125,-8.84
13:41:13.968750,-7.19
13:41:13.984375,-5.38
13:41:14,-3.37
13:41:14.015625,-1.14
13:41:14.031250,1.30
13:41:14.046875,3.87
13:41:14.062500,6.44
13:41:14.078125,8.85
13:41:14.093750,10.92
13:41:14.109375,12.52
13:41:14.125000,13.54
13:41:14.140625,13.94
13:41:14.156250,13.73
13:41:14.171875,13.03
13:41:14.187500,11.91
13:41:14.203125,10.46
13:41:14.218750,8.65
13:41:14.234375,6.42
13:41:14.250000,3.68
13:41:14.265625,0.40
13:41:14.281250,-3.39
13:41:14.296875,-7.58
13:41:14.312500,-12.07
13:41:14.328125,-16.72
13:41:14.343750,-21.29
13:41:14.359375,-25.40
13:41:14.375000,-28.50
13:41:14.390625,-30.05
13:41:14.406250,-29.71
13:41:14.421875,-27.54
13:41:14.437500,-23.97
13:41:14.453125,-19.68
13:41:14.468750,-15.30
13:41:14.484375,-11.25
13:41:14.500000,-7.65
13:41:14.515625,-4.47
13:41:14.531250,-1.64
13:41:14.546875,0.81
13:41:14.562500,2.76
13:41:14.578125,4.16
13:41:14.593750,5.11
13:41:14.609375,5.92
13:41:14.625000,6.96
13:41:14.640625,8.54
13:41:14.656250,10.73
13:41:14.671875,13.37
13:41:14.687500,16.16
13:41:14.703125,18.78
13:41:14.718750,20.99
13:41:14.734375,22.72
13:41:14.750000,24.04
13:41:14.765625,25.10
13:41:14.781250,26.13
13:41:14.796875,27.35
13:41:14.812500,29.00
13:41:14.828125,31.36
13:41:14.843750,34.61
13:41:14.859375,38.79
13:41:14.875000,43.64
13:41:14.890625,48.60
13:41:14.906250,52.87
13:41:14.921875,55.60
13:41:14.937500,56.12
13:41:14.953125,54.01
13:41:14.968750,49.22
13:41:14.984375,41.98
13:41:15,32.85
13:41:15.015625,22.52
13:41:15.031250,11.77
13:41:15.046875,1.28
13:41:15.062500,-8.47
13:41:15.078125,-17.24
13:41:15.093750,-24.99
13:41:15.109375,-31.79
13:41:15.125000,-37.75
13:41:15.140625,-42.92
13:41:15.156250,-47.31
13:41:15.171875,-50.93
13:41:15.187500,-53.75
13:41:15.203125,-55.64
13:41:15.218750,-56.34
13:41:15.234375,-55.55
13:41:15.250000,-53.01
13:41:15.265625,-48.75
13:41:15.281250,-43.14
13:41:15.296875,-36.82
13:41:15.312500,-30.46
13:41:15.328125,-24.61
13:41:15.343750,-19.54
13:41:15.359375,-15.33
13:41:15.375000,-11.92
13:41:15.390625,-9.27
13:41:15.406250,-7.36
13:41:15.421875,-6.14
13:41:15.437500,-5.51
13:41:15.453125,-5.25
13:41:15.468750,-5.09
13:41:15.484375,-4.73
13:41:15.500000,-4.01
13:41:15.515625,-2.86
13:41:15.531250,-1.38
13:41:15.546875,0.26
13:41:15.562500,1.91
13:41:15.578125,3.48
13:41:15.593750,4.95
13:41:15.609375,6.39
13:41:15.625000,7.82
13:41:15.640625,9.22
13:41:15.656250,10.46
13:41:15.671875,11.31
13:41:15.687500,11.57
13:41:15.703125,11.06
13:41:15.718750,9.71
13:41:15.734375,7.61
13:41:15.750000,4.95
13:41:15.765625,2.01
13:41:15.781250,-0.89
13:41:15.796875,-3.44
13:41:15.812500,-5.42
13:41:15.828125,-6.74
13:41:15.843750,-7.37
13:41:15.859375,-7.37
13:41:15.875000,-6.80
13:41:15.890625,-5.71
13:41:15.906250,-4.22
13:41:15.921875,-2.47
13:41:15.937500,-0.63
13:41:15.953125,1.15
13:41:15.968750,2.79
13:41:15.984375,4.38
13:41:16,6.07
13:41:16.015625,8.04
13:41:16.031250,10.40
13:41:16.046875,13.10
13:41:16.062500,15.88
13:41:16.078125,18.43
13:41:16.093750,20.39
13:41:16.109375,21.60
13:41:16.125000,22.11
13:41:16.140625,22.13
13:41:16.156250,21.92
13:41:16.171875,21.65
13:41:16.187500,21.32
13:41:16.203125,20.81
13:41:16.218750,19.94
13:41:16.234375,18.62
13:41:16.250000,16.85
13:41:16.265625,14.75
13:41:16.281250,12.46
13:41:16.296875,10.13
13:41:16.312500,7.83
13:41:16.328125,5.65
13:41:16.343750,3.76
13:41:16.359375,2.33
13:41:16.375000,1.45
13:41:16.390625,0.98
13:41:16.406250,0.54
13:41:16.421875,-0.44
13:41:16.437500,-2.43
13:41:16.453125,-5.51
13:41:16.468750,-9.32
13:41:16.484375,-13.09
13:41:16.500000,-16.05
13:41:16.515625,-17.69
13:41:16.531250,-17.99
13:41:16.546875,-17.36
13:41:16.562500,-16.39
13:41:16.578125,-15.42
13:41:16.593750,-14.45
13:41:16.609375,-13.14
13:41:16.625000,-11.12
13:41:16.640625,-8.23
13:41:16.656250,-4.74
13:41:16.671875,-1.21
13:41:16.687500,1.76
13:41:16.703125,3.82
13:41:16.718750,4.99
13:41:16.734375,5.65
13:41:16.750000,6.22
13:41:16.765625,6.92
13:41:16.781250,7.66
13:41:16.796875,8.06
13:41:16.812500,7.69
13:41:16.828125,6.29
13:41:16.843750,4.00
13:41:16.859375,1.24
13:41:16.875000,-1.39
13:41:16.890625,-3.42
13:41:16.906250,-4.60
13:41:16.921875,-5.01
13:41:16.937500,-4.93
13:41:16.953125,-4.69
13:41:16.968750,-4.51
13:41:16.984375,-4.44
13:41:17,-4.37
13:41:17.015625,-4.21
13:41:17.031250,-3.94
13:41:17.046875,-3.70
13:41:17.062500,-3.71
13:41:17.078125,-4.12
13:41:17.093750,-4.90
13:41:17.109375,-5.85
13:41:17.125000,-6.61
13:41:17.140625,-6.90
13:41:17.156250,-6.61
13:41:17.171875,-5.84
13:41:17.187500,-4.81
13:41:17.203125,-3.77
13:41:17.218750,-2.82
13:41:17.234375,-1.91
13:41:17.250000,-0.99
13:41:17.265625,-0.03
13:41:17.281250,0.89
13:41:17.296875,1.64
13:41:17.312500,2.09
13:41:17.328125,2.26
13:41:17.343750,2.24
13:41:17.359375,2.17
13:41:17.375000,2.14
13:41:17.390625,2.14
13:41:17.406250,2.09
13:41:17.421875,1.87
13:41:17.437500,1.43
13:41:17.453125,0.81
13:41:17.468750,0.15
13:41:17.484375,-0.35
13:41:17.500000,-0.56
13:41:17.515625,-0.40
13:41:17.531250,0.02
13:41:17.546875,0.54
13:41:17.562500,0.92
13:41:17.578125,0.99
13:41:17.593750,0.67
13:41:17.609375,0.06
13:41:17.625000,-0.69
13:41:17.640625,-1.41
13:41:17.656250,-2.03
13:41:17.671875,-2.58
13:41:17.687500,-3.14
13:41:17.703125,-3.78
13:41:17.718750,-4.45
13:41:17.734375,-4.95
13:41:17.750000,-5.08
13:41:17.765625,-4.65
13:41:17.781250,-3.65
13:41:17.796875,-2.24
13:41:17.812500,-0.73
13:41:17.828125,0.56
13:41:17.843750,1.42
13:41:17.859375,1.78
13:41:17.875000,1.69
13:41:17.890625,1.27
13:41:17.906250,0.64
13:41:17.921875,-0.15
13:41:17.937500,-1.06
13:41:17.953125,-2.01
13:41:17.968750,-2.93
13:41:17.984375,-3.72
13:41:18,-4.31
13:41:18.015625,-4.65
13:41:18.031250,-4.73
13:41:18.046875,-4.52
13:41:18.062500,-3.98
13:41:18.078125,-3.09
13:41:18.093750,-1.88
13:41:18.109375,-0.40
13:41:18.125000,1.28
13:41:18.140625,3.08
13:41:18.156250,4.97
13:41:18.171875,6.88
13:41:18.187500,8.75
13:41:18.203125,10.48
13:41:18.218750,11.93
13:41:18.234375,13.03
13:41:18.250000,13.69
13:41:18.265625,13.92
13:41:18.281250,13.71
13:41:18.296875,13.04
13:41:18.312500,11.91
13:41:18.328125,10.28
13:41:18.343750,8.25
13:41:18.359375,5.93
13:41:18.375000,3.56
13:41:18.390625,1.41
13:41:18.406250,-0.28
13:41:18.421875,-1.34
13:41:18.437500,-1.73
13:41:18.453125,-1.49
13:41:18.468750,-0.76
13:41:18.484375,0.34
13:41:18.500000,1.74
13:41:18.515625,3.36
13:41:18.531250,5.17
13:41:18.546875,7.02
13:41:18.562500,8.69
13:41:18.578125,9.92
13:41:18.593750,10.49
13:41:18.609375,10.36
13:41:18.625000,9.64
13:41:18.640625,8.55
13:41:18.656250,7.30
13:41:18.671875,6.04
13:41:18.687500,4.82
13:41:18.703125,3.71
13:41:18.718750,2.78
13:41:18.734375,2.15
13:41:18.750000,1.92
13:41:18.765625,2.04
13:41:18.781250,2.37
13:41:18.796875,2.73
13:41:18.812500,2.97
13:41:18.828125,3.08
13:41:18.843750,3.15
13:41:18.859375,3.32
13:41:18.875000,3.58
13:41:18.890625,3.82
13:41:18.906250,3.80
13:41:18.921875,3.28
13:41:18.937500,2.23
13:41:18.953125,0.78
13:41:18.968750,-0.80
13:41:18.984375,-2.23
13:41:19,-3.28
13:41:19.015625,-3.93
13:41:19.031250,-4.29
13:41:19.046875,-4.63
13:41:19.062500,-5.18
13:41:19.078125,-6.14
13:41:19.093750,-7.52
13:41:19.109375,-9.17
13:41:19.125000,-10.80
13:41:19.140625,-12.09
13:41:19.156250,-12.82
13:41:19.171875,-12.92
13:41:19.187500,-12.50
13:41:19.203125,-11.73
13:41:19.218750,-10.72
13:41:19.234375,-9.48
13:41:19.250000,-7.96
13:41:19.265625,-6.16
13:41:19.281250,-4.23
13:41:19.296875,-2.45
13:41:19.312500,-1.13
13:41:19.328125,-0.43
13:41:19.343750,-0.28
13:41:19.359375,-0.38
13:41:19.375000,-0.36
13:41:19.390625,0.06
13:41:19.406250,0.91
13:41:19.421875,2.08
13:41:19.437500,3.29
13:41:19.453125,4.31
13:41:19.468750,4.95
13:41:19.484375,5.09
13:41:19.500000,4.65
13:41:19.515625,3.57
13:41:19.531250,1.90
13:41:19.546875,-0.30
13:41:19.562500,-2.80
13:41:19.578125,-5.32
13:41:19.593750,-7.61
13:41:19.609375,-9.51
13:41:19.625000,-10.98
13:41:19.640625,-12.13
13:41:19.656250,-13.10
13:41:19.671875,-13.97
13:41:19.687500,-14.70
13:41:19.703125,-15.13
13:41:19.718750,-15.07
13:41:19.734375,-14.37
13:41:19.750000,-12.99
13:41:19.765625,-10.98
13:41:19.781250,-8.45
13:41:19.796875,-5.54
13:41:19.812500,-2.38
13:41:19.828125,0.86
13:41:19.843750,4.01
13:41:19.859375,6.85
13:41:19.875000,9.19
13:41:19.890625,10.93
13:41:19.906250,12.03
13:41:19.921875,12.49
13:41:19.937500,12.32
13:41:19.953125,11.49
13:41:19.968750,9.97
13:41:19.984375,7.80
13:41:20,5.14
13:41:20.015625,2.29
13:41:20.031250,-0.45
13:41:20.046875,-2.90
13:41:20.062500,-5.04
13:41:20.078125,-6.99
13:41:20.093750,-8.95
13:41:20.109375,-11.00
13:41:20.125000,-13.05
13:41:20.140625,-14.89
13:41:20.156250,-16.30
13:41:20.171875,-17.14
13:41:20.187500,-17.37
13:41:20.203125,-17.02
13:41:20.218750,-16.09
13:41:20.234375,-14.53
13:41:20.250000,-12.32
13:41:20.265625,-9.56
13:41:20.281250,-6.47
13:41:20.296875,-3.42
13:41:20.312500,-0.73
13:41:20.328125,1.46
13:41:20.343750,3.19
13:41:20.359375,4.68
13:41:20.375000,6.14
13:41:20.390625,7.70
13:41:20.406250,9.30
13:41:20.421875,10.78
13:41:20.437500,11.92
13:41:20.453125,12.62
13:41:20.468750,12.95
13:41:20.484375,13.15
13:41:20.500000,13.54
13:41:20.515625,14.44
13:41:20.531250,16.03
13:41:20.546875,18.27
13:41:20.562500,20.91
13:41:20.578125,23.63
13:41:20.593750,26.05
13:41:20.609375,27.92
13:41:20.625000,29.02
13:41:20.640625,29.21
13:41:20.656250,28.27
13:41:20.671875,25.92
13:41:20.687500,21.84
13:41:20.703125,15.79
13:41:20.718750,7.82
13:41:20.734375,-1.62
13:41:20.750000,-11.73
13:41:20.765625,-21.56
13:41:20.781250,-30.30
13:41:20.796875,-37.50
13:41:20.812500,-43.17
13:41:20.828125,-47.63
13:41:20.843750,-51.21
13:41:20.859375,-53.98
13:41:20.875000,-55.63
13:41:20.890625,-55.67
13:41:20.906250,-53.70
13:41:20.921875,-49.76
13:41:20.937500,-44.51
13:41:20.953125,-39.10
13:41:20.968750,-34.80
13:41:20.984375,-32.57
13:41:21,-32.69
13:41:21.015625,-34.72
13:41:21.031250,-37.76
13:41:21.046875,-40.89
13:41:21.062500,-43.64
13:41:21.078125,-46.17
13:41:21.093750,-49.16
13:41:21.109375,-53.31
13:41:21.125000,-58.96
13:41:21.140625,-65.80
13:41:21.156250,-73.01
13:41:21.171875,-79.74
13:41:21.187500,-85.51
13:41:21.203125,-90.31
13:41:21.218750,-94.34
13:41:21.234375,-97.62
13:41:21.250000,-99.86
13:41:21.265625,-100.55
13:41:21.281250,-99.22
13:41:21.296875,-95.51
13:41:21.312500,-88.90
13:41:21.328125,-78.09
13:41:21.343750,-60.83
13:41:21.359375,-34.53
13:41:21.375000,2.26
13:41:21.390625,48.13
13:41:21.406250,98.02
13:41:21.421875,144.16
13:41:21.437500,178.58
13:41:21.453125,196.05
13:41:21.468750,196.02
13:41:21.484375,182.45
13:41:21.500000,161.81
13:41:21.515625,140.28
13:41:21.531250,121.74
13:41:21.546875,107.38
13:41:21.562500,96.58
13:41:21.578125,88.44
13:41:21.593750,82.59
13:41:21.609375,79.15
13:41:21.625000,77.93
13:41:21.640625,77.97
13:41:21.656250,77.57
13:41:21.671875,75.18
13:41:21.687500,70.32
13:41:21.703125,63.84
13:41:21.718750,57.58
13:41:21.734375,53.36
13:41:21.750000,52.06
13:41:21.765625,53.20
13:41:21.781250,55.18
13:41:21.796875,56.08
13:41:21.812500,54.44
13:41:21.828125,49.83
13:41:21.843750,43.03
13:41:21.859375,35.60
13:41:21.875000,29.45
13:41:21.890625,26.16
13:41:21.906250,26.56
13:41:21.921875,30.51
13:41:21.937500,36.99
13:41:21.953125,44.36
13:41:21.968750,50.87
13:41:21.984375,55.26
13:41:22,57.09
13:41:22.015625,56.85
13:41:22.031250,55.66
13:41:22.046875,54.79
13:41:22.062500,55.13
13:41:22.078125,56.88
13:41:22.093750,59.70
13:41:22.109375,62.99
13:41:22.125000,66.31
13:41:22.140625,69.67
13:41:22.156250,73.46
13:41:22.171875,78.30
13:41:22.187500,84.79
13:41:22.203125,93.42
13:41:22.218750,104.47
13:41:22.234375,117.92
13:41:22.250000,133.32
13:41:22.265625,149.59
13:41:22.281250,164.94
13:41:22.296875,177.07
13:41:22.312500,183.47
13:41:22.328125,182.00
13:41:22.343750,171.33
13:41:22.359375,151.37
13:41:22.375000,123.24
13:41:22.390625,88.95
13:41:22.406250,50.79
13:41:22.421875,10.55
13:41:22.437500,-30.71
13:41:22.453125,-72.44
13:41:22.468750,-113.87
13:41:22.484375,-153.60
13:41:22.500000,-189.55
13:41:22.515625,-219.54
13:41:22.531250,-242.06
13:41:22.546875,-256.57
13:41:22.562500,-263.26
13:41:22.578125,-262.37
13:41:22.593750,-253.81
13:41:22.609375,-237.29
13:41:22.625000,-213.13
13:41:22.640625,-182.99
13:41:22.656250,-149.96
13:41:22.671875,-117.92
13:41:22.687500,-90.22
13:41:22.703125,-68.72
13:41:22.718750,-53.51
13:41:22.734375,-43.52
13:41:22.750000,-37.41
13:41:22.765625,-34.31
13:41:22.781250,-33.89
13:41:22.796875,-36.11
13:41:22.812500,-40.83
13:41:22.828125,-47.58
13:41:22.843750,-55.53
13:41:22.859375,-63.71
13:41:22.875000,-71.22
13:41:22.890625,-77.38
13:41:22.906250,-81.72
13:41:22.921875,-84.01
13:41:22.937500,-84.16
13:41:22.953125,-82.22
13:41:22.968750,-78.36
13:41:22.984375,-72.82
13:41:23,-65.91
13:41:23.015625,-57.96
13:41:23.031250,-49.30
13:41:23.046875,-40.23
13:41:23.062500,-31.07
13:41:23.078125,-22.10
13:41:23.093750,-13.61
13:41:23.109375,-5.83
13:41:23.125000,1.04
13:41:23.140625,6.81
13:41:23.156250,11.36
13:41:23.171875,14.55
13:41:23.187500,16.31
13:41:23.203125,16.66
13:41:23.218750,15.76
13:41:23.234375,13.85
13:41:23.250000,11.27
13:41:23.265625,8.36
13:41:23.281250,5.39
13:41:23.296875,2.51
13:41:23.312500,-0.24
13:41:23.328125,-2.84
13:41:23.343750,-5.24
13:41:23.359375,-7.33
13:41:23.375000,-8.93
13:41:23.390625,-9.92
13:41:23.406250,-10.21
13:41:23.421875,-9.85
13:41:23.437500,-8.88
13:41:23.453125,-7.32
13:41:23.468750,-5.14
13:41:23.484375,-2.27
13:41:23.500000,1.23
13:41:23.515625,5.17
13:41:23.531250,9.21
13:41:23.546875,12.98
13:41:23.562500,16.19
13:41:23.578125,18.81
13:41:23.593750,20.96
13:41:23.609375,22.81
13:41:23.625000,24.45
13:41:23.640625,25.76
13:41:23.656250,26.42
13:41:23.671875,26.09
13:41:23.687500,24.55
13:41:23.703125,21.88
13:41:23.718750,18.39
13:41:23.734375,14.47
13:41:23.750000,10.35
13:41:23.765625,6.02
13:41:23.781250,1.31
13:41:23.796875,-3.90
13:41:23.812500,-9.46
13:41:23.828125,-14.91
13:41:23.843750,-19.63
13:41:23.859375,-23.08
13:41:23.875000,-24.95
13:41:23.890625,-25.16
13:41:23.906250,-23.71
13:41:23.921875,-20.62
13:41:23.937500,-15.83
13:41:23.953125,-9.45
13:41:23.968750,-1.84
13:41:23.984375,6.28
13:41:24,14.03
13:41:24.015625,20.65
13:41:24.031250,25.72
13:41:24.046875,29.19
13:41:24.062500,31.25
13:41:24.078125,32.14
13:41:24.093750,32.00
13:41:24.109375,30.83
13:41:24.125000,28.64
13:41:24.140625,25.52
13:41:24.156250,21.73
13:41:24.171875,17.67
13:41:24.187500,13.77
13:41:24.203125,10.46
13:41:24.218750,8.06
13:41:24.234375,6.76
13:41:24.250000,6.61
13:41:24.265625,7.49
13:41:24.281250,9.21
13:41:24.296875,11.37
13:41:24.312500,13.53
13:41:24.328125,15.20
13:41:24.343750,15.94
13:41:24.359375,15.47
13:41:24.375000,13.75
13:41:24.390625,10.94
13:41:24.406250,7.34
13:41:24.421875,3.26
13:41:24.437500,-1.04
13:41:24.453125,-5.38
13:41:24.468750,-9.64
13:41:24.484375,-13.65
13:41:24.500000,-17.23
13:41:24.515625,-20.16
13:41:24.531250,-22.25
13:41:24.546875,-23.43
13:41:24.562500,-23.62
13:41:24.578125,-22.75
13:41:24.593750,-20.70
13:41:24.609375,-17.37
13:41:24.625000,-12.85
13:41:24.640625,-7.58
13:41:24.656250,-2.25
13:41:24.671875,2.30
13:41:24.687500,5.43
13:41:24.703125,6.90
13:41:24.718750,6.91
13:41:24.734375,6.01
13:41:24.750000,4.81
13:41:24.765625,3.80
13:41:24.781250,3.29
13:41:24.796875,3.42
13:41:24.812500,4.19
13:41:24.828125,5.52
13:41:24.843750,7.23
13:41:24.859375,9.02
13:41:24.875000,10.46
13:41:24.890625,11.17
13:41:24.906250,10.85
13:41:24.921875,9.40
13:41:24.937500,6.98
13:41:24.953125,3.94
13:41:24.968750,0.75
13:41:24.984375,-2.13
13:41:25,-4.38
13:41:25.015625,-5.91
13:41:25.031250,-6.82
13:41:25.046875,-7.39
13:41:25.062500,-7.88
13:41:25.078125,-8.42
13:41:25.093750,-8.99
13:41:25.109375,-9.41
13:41:25.125000,-9.48
13:41:25.140625,-9.08
13:41:25.156250,-8.25
13:41:25.171875,-7.11
13:41:25.187500,-5.78
13:41:25.203125,-4.31
13:41:25.218750,-2.67
13:41:25.234375,-0.86
13:41:25.250000,0.98
13:41:25.265625,2.55
13:41:25.281250,3.46
13:41:25.296875,3.38
13:41:25.312500,2.19
13:41:25.328125,0.05
13:41:25.343750,-2.66
13:41:25.359375,-5.47
13:41:25.375000,-8.07
13:41:25.390625,-10.33
13:41:25.406250,-12.29
13:41:25.421875,-14.07
13:41:25.437500,-15.65
13:41:25.453125,-16.92
13:41:25.468750,-17.66
13:41:25.484375,-17.68
13:41:25.500000,-16.98
13:41:25.515625,-15.75
13:41:25.531250,-14.26
13:41:25.546875,-12.71
13:41:25.562500,-11.16
13:41:25.578125,-9.50
13:41:25.593750,-7.45
13:41:25.609375,-4.81
13:41:25.625000,-1.46
13:41:25.640625,2.59
13:41:25.656250,7.24
13:41:25.671875,12.32
13:41:25.687500,17.68
13:41:25.703125,23.09
13:41:25.718750,28.27
13:41:25.734375,32.86
13:41:25.750000,36.44
13:41:25.765625,38.75
13:41:25.781250,39.68
13:41:25.796875,39.41
13:41:25.812500,38.19
13:41:25.828125,36.34
13:41:25.843750,33.99
13:41:25.859375,31.13
13:41:25.875000,27.68
13:41:25.890625,23.59
13:41:25.906250,18.99
13:41:25.921875,14.20
13:41:25.937500,9.59
13:41:25.953125,5.47
13:41:25.968750,1.99
13:41:25.984375,-0.87
13:41:26,-3.13
13:41:26.015625,-4.78
13:41:26.031250,-5.71
13:41:26.046875,-5.83
13:41:26.062500,-5.23
13:41:26.078125,-4.15
13:41:26.093750,-3.01
13:41:26.109375,-2.19
13:41:26.125000,-1.92
13:41:26.140625,-2.17
13:41:26.156250,-2.70
13:41:26.171875,-3.19
13:41:26.187500,-3.40
13:41:26.203125,-3.25
13:41:26.218750,-2.83
13:41:26.234375,-2.34
13:41:26.250000,-1.97
13:41:26.265625,-1.86
13:41:26.281250,-2.03
13:41:26.296875,-2.39
13:41:26.312500,-2.78
13:41:26.328125,-3.00
13:41:26.343750,-2.90
13:41:26.359375,-2.41
13:41:26.375000,-1.57
13:41:26.390625,-0.48
13:41:26.406250,0.72
13:41:26.421875,1.89
13:41:26.437500,2.91
13:41:26.453125,3.70
13:41:26.468750,4.17
13:41:26.484375,4.31
13:41:26.500000,4.11
13:41:26.515625,3.65
13:41:26.531250,3.04
13:41:26.546875,2.43
13:41:26.562500,1.97
13:41:26.578125,1.75
13:41:26.593750,1.79
13:41:26.609375,2.00
13:41:26.625000,2.30
13:41:26.640625,2.61
13:41:26.656250,2.89
13:41:26.671875,3.15
13:41:26.687500,3.39
13:41:26.703125,3.58
13:41:26.718750,3.69
13:41:26.734375,3.74
13:41:26.750000,3.78
13:41:26.765625,3.88
13:41:26.781250,4.14
13:41:26.796875,4.59
13:41:26.812500,5.22
13:41:26.828125,6.00
13:41:26.843750,6.93
13:41:26.859375,8.01
13:41:26.875000,9.16
13:41:26.890625,10.27
13:41:26.906250,11.11
13:41:26.921875,11.46
13:41:26.937500,11.16
13:41:26.953125,10.14
13:41:26.968750,8.43
13:41:26.984375,6.07
13:41:27,3.15
13:41:27.015625,-0.18
13:41:27.031250,-3.64
13:41:27.046875,-6.83
13:41:27.062500,-9.28
13:41:27.078125,-10.67
13:41:27.093750,-10.92
13:41:27.109375,-10.19
13:41:27.125000,-8.83
13:41:27.140625,-7.25
13:41:27.156250,-5.74
13:41:27.171875,-4.48
13:41:27.187500,-3.46
13:41:27.203125,-2.60
13:41:27.218750,-1.82
13:41:27.234375,-1.12
13:41:27.250000,-0.66
13:41:27.265625,-0.67
13:41:27.281250,-1.37
13:41:27.296875,-2.87
13:41:27.312500,-5.04
13:41:27.328125,-7.57
13:41:27.343750,-10.02
13:41:27.359375,-11.96
13:41:27.375000,-13.21
13:41:27.390625,-13.75
13:41:27.406250,-13.71
13:41:27.421875,-13.17
13:41:27.437500,-12.12
13:41:27.453125,-10.43
13:41:27.468750,-8.05
13:41:27.484375,-5.10
13:41:27.500000,-1.90
13:41:27.515625,1.12
13:41:27.531250,3.65
13:41:27.546875,5.60
13:41:27.562500,7.12
13:41:27.578125,8.47
13:41:27.593750,9.83
13:41:27.609375,11.17
13:41:27.625000,12.36
13:41:27.640625,13.22
13:41:27.656250,13.69
13:41:27.671875,13.86
13:41:27.687500,13.85
13:41:27.703125,13.78
13:41:27.718750,13.67
13:41:27.734375,13.47
13:41:27.750000,13.11
13:41:27.765625,12.50
13:41:27.781250,11.55
13:41:27.796875,10.20
13:41:27.812500,8.37
13:41:27.828125,6.06
13:41:27.843750,3.34
13:41:27.859375,0.42
13:41:27.875000,-2.47
13:41:27.890625,-5.16
13:41:27.906250,-7.51
13:41:27.921875,-9.50
13:41:27.937500,-11.08
13:41:27.953125,-12.22
13:41:27.968750,-12.84
13:41:27.984375,-12.84
13:41:28,-12.24
13:41:28.015625,-11.14
13:41:28.031250,-9.77
13:41:28.046875,-8.40
13:41:28.062500,-7.22
13:41:28.078125,-6.31
13:41:28.093750,-5.58
13:41:28.109375,-4.88
13:41:28.125000,-4.14
13:41:28.140625,-3.37
13:41:28.156250,-2.73
13:41:28.171875,-2.41
13:41:28.187500,-2.49
13:41:28.203125,-2.91
13:41:28.218750,-3.45
13:41:28.234375,-3.90
13:41:28.250000,-4.17
13:41:28.265625,-4.37
13:41:28.281250,-4.70
13:41:28.296875,-5.37
13:41:28.312500,-6.46
13:41:28.328125,-7.80
13:41:28.343750,-9.11
13:41:28.359375,-10.09
13:41:28.375000,-10.58
13:41:28.390625,-10.58
13:41:28.406250,-10.25
13:41:28.421875,-9.78
13:41:28.437500,-9.28
13:41:28.453125,-8.74
13:41:28.468750,-8.10
13:41:28.484375,-7.31
13:41:28.500000,-6.41
13:41:28.515625,-5.53
13:41:28.531250,-4.78
13:41:28.546875,-4.26
13:41:28.562500,-3.96
13:41:28.578125,-3.86
13:41:28.593750,-3.96
13:41:28.609375,-4.30
13:41:28.625000,-4.98
13:41:28.640625,-6.06
13:41:28.656250,-7.52
13:41:28.671875,-9.19
13:41:28.687500,-10.82
13:41:28.703125,-12.16
13:41:28.718750,-13.07
13:41:28.734375,-13.56
13:41:28.750000,-13.74
13:41:28.765625,-13.77
13:41:28.781250,-13.71
13:41:28.796875,-13.47
13:41:28.812500,-12.83
13:41:28.828125,-11.55
13:41:28.843750,-9.42
13:41:28.859375,-6.45
13:41:28.875000,-2.84
13:41:28.890625,1.11
13:41:28.906250,5.01
13:41:28.921875,8.60
13:41:28.937500,11.71
13:41:28.953125,14.21
13:41:28.968750,16.07
13:41:28.984375,17.24
13:41:29,17.71
13:41:29.015625,17.53
13:41:29.031250,16.76
13:41:29.046875,15.43
13:41:29.062500,13.57
13:41:29.078125,11.20
13:41:29.093750,8.34
13:41:29.109375,5.10
13:41:29.125000,1.69
13:41:29.140625,-1.61
13:41:29.156250,-4.56
13:41:29.171875,-6.97
13:41:29.187500,-8.74
13:41:29.203125,-9.82
13:41:29.218750,-10.18
13:41:29.234375,-9.84
13:41:29.250000,-8.88
13:41:29.265625,-7.47
13:41:29.281250,-5.85
13:41:29.296875,-4.26
13:41:29.312500,-2.81
13:41:29.328125,-1.51
13:41:29.343750,-0.28
13:41:29.359375,0.92
13:41:29.375000,2.09
13:41:29.390625,3.11
13:41:29.406250,3.89
13:41:29.421875,4.34
13:41:29.437500,4.48
13:41:29.453125,4.40
13:41:29.468750,4.19
13:41:29.484375,3.91
13:41:29.500000,3.62
13:41:29.515625,3.37
13:41:29.531250,3.22
13:41:29.546875,3.24
13:41:29.562500,3.47
13:41:29.578125,3.93
13:41:29.593750,4.60
13:41:29.609375,5.42
13:41:29.625000,6.35
13:41:29.640625,7.31
13:41:29.656250,8.17
13:41:29.671875,8.77
13:41:29.687500,8.96
13:41:29.703125,8.65
13:41:29.718750,7.84
13:41:29.734375,6.65
13:41:29.750000,5.14
13:41:29.765625,3.38
13:41:29.781250,1.39
13:41:29.796875,-0.82
13:41:29.812500,-3.15
13:41:29.828125,-5.39
13:41:29.843750,-7.26
13:41:29.859375,-8.52
13:41:29.875000,-8.98
13:41:29.890625,-8.67
13:41:29.906250,-7.75
13:41:29.921875,-6.46
13:41:29.937500,-5.08
13:41:29.953125,-3.78
13:41:29.968750,-2.67
13:41:29.984375,-1.66
13:41:30,-0.62
13:41:30.015625,0.60
13:41:30.031250,2.07
13:41:30.046875,3.76
13:41:30.062500,5.48
13:41:30.078125,7.01
13:41:30.093750,8.15
13:41:30.109375,8.72
13:41:30.125000,8.66
13:41:30.140625,8.01
13:41:30.156250,6.89
13:41:30.171875,5.54
13:41:30.187500,4.27
13:41:30.203125,3.33
13:41:30.218750,2.87
13:41:30.234375,2.88
13:41:30.250000,3.19
13:41:30.265625,3.58
13:41:30.281250,3.78
13:41:30.296875,3.60
13:41:30.312500,2.89
13:41:30.328125,1.55
13:41:30.343750,-0.45
13:41:30.359375,-3.03
13:41:30.375000,-5.97
13:41:30.390625,-8.96
13:41:30.406250,-11.67
13:41:30.421875,-13.86
13:41:30.437500,-15.43
13:41:30.453125,-16.42
13:41:30.468750,-16.96
13:41:30.484375,-17.12
13:41:30.500000,-16.93
13:41:30.515625,-16.34
13:41:30.531250,-15.31
13:41:30.546875,-13.79
13:41:30.562500,-11.79
13:41:30.578125,-9.34
13:41:30.593750,-6.49
13:41:30.609375,-3.41
13:41:30.625000,-0.29
13:41:30.640625,2.59
13:41:30.656250,4.99
13:41:30.671875,6.71
13:41:30.687500,7.67
13:41:30.703125,7.98
13:41:30.718750,7.84
13:41:30.734375,7.54
13:41:30.750000,7.30
13:41:30.765625,7.29
13:41:30.781250,7.49
13:41:30.796875,7.79
13:41:30.812500,7.97
13:41:30.828125,7.89
13:41:30.843750,7.47
13:41:30.859375,6.79
13:41:30.875000,5.97
13:41:30.890625,5.14
13:41:30.906250,4.34
13:41:30.921875,3.58
13:41:30.937500,2.85
13:41:30.953125,2.21
13:41:30.968750,1.76
13:41:30.984375,1.60
13:41:31,1.70
13:41:31.015625,1.90
13:41:31.031250,1.91
13:41:31.046875,1.47
13:41:31.062500,0.48
13:41:31.078125,-0.94
13:41:31.093750,-2.47
13:41:31.109375,-3.76
13:41:31.125000,-4.53
13:41:31.140625,-4.70
13:41:31.156250,-4.39
13:41:31.171875,-3.79
13:41:31.187500,-3.07
13:41:31.203125,-2.27
13:41:31.218750,-1.39
13:41:31.234375,-0.46
13:41:31.250000,0.43
13:41:31.265625,1.08
13:41:31.281250,1.33
13:41:31.296875,1.15
13:41:31.312500,0.69
13:41:31.328125,0.22
13:41:31.343750,-0.03
13:41:31.359375,0.06
13:41:31.375000,0.45
13:41:31.390625,0.98
13:41:31.406250,1.53
13:41:31.421875,2.05
13:41:31.437500,2.56
13:41:31.453125,3.09
13:41:31.468750,3.60
13:41:31.484375,3.98
13:41:31.500000,4.07
13:41:31.515625,3.75
13:41:31.531250,2.99
13:41:31.546875,1.84
13:41:31.562500,0.44
13:41:31.578125,-1.02
13:41:31.593750,-2.34
13:41:31.609375,-3.34
13:41:31.625000,-3.97
13:41:31.640625,-4.29
13:41:31.656250,-4.52
13:41:31.671875,-4.93
13:41:31.687500,-5.75
13:41:31.703125,-7.04
13:41:31.718750,-8.67
13:41:31.734375,-10.34
13:41:31.750000,-11.74
13:41:31.765625,-12.59
13:41:31.781250,-12.75
13:41:31.796875,-12.17
13:41:31.812500,-10.94
13:41:31.828125,-9.13
13:41:31.843750,-6.92
13:41:31.859375,-4.50
13:41:31.875000,-2.11
13:41:31.890625,0.10
13:41:31.906250,2.08
13:41:31.921875,3.90
13:41:31.937500,5.73
13:41:31.953125,7.68
13:41:31.968750,9.82
13:41:31.984375,12.07
13:41:32,14.30
13:41:32.015625,16.37
13:41:32.031250,18.15
13:41:32.046875,19.58
13:41:32.062500,20.60
13:41:32.078125,21.14
13:41:32.093750,21.15
13:41:32.109375,20.61
13:41:32.125000,19.53
13:41:32.140625,18.02
13:41:32.156250,16.20
13:41:32.171875,14.21
13:41:32.187500,12.21
13:41:32.203125,10.33
13:41:32.218750,8.69
13:41:32.234375,7.30
13:41:32.250000,6.09
13:41:32.265625,4.89
13:41:32.281250,3.49
13:41:32.296875,1.75
13:41:32.312500,-0.34
13:41:32.328125,-2.70
13:41:32.343750,-5.17
13:41:32.359375,-7.62
13:41:32.375000,-9.88
13:41:32.390625,-11.79
13:41:32.406250,-13.11
13:41:32.421875,-13.65
13:41:32.437500,-13.27
13:41:32.453125,-12.00
13:41:32.468750,-10.10
13:41:32.484375,-7.92
13:41:32.500000,-5.80
13:41:32.515625,-3.87
13:41:32.531250,-2.12
13:41:32.546875,-0.37
13:41:32.562500,1.54
13:41:32.578125,3.60
13:41:32.593750,5.67
13:41:32.609375,7.49
13:41:32.625000,8.82
13:41:32.640625,9.56
13:41:32.656250,9.78
13:41:32.671875,9.64
13:41:32.687500,9.38
13:41:32.703125,9.15
13:41:32.718750,9.03
13:41:32.734375,8.99
13:41:32.750000,8.99
13:41:32.765625,9.02
13:41:32.781250,9.14
13:41:32.796875,9.45
13:41:32.812500,9.95
13:41:32.828125,10.56
13:41:32.843750,11.08
13:41:32.859375,11.22
13:41:32.875000,10.81
13:41:32.890625,9.75
13:41:32.906250,8.08
13:41:32.921875,5.89
13:41:32.937500,3.27
13:41:32.953125,0.25
13:41:32.968750,-3.06
13:41:32.984375,-6.50
13:41:33,-9.78
13:41:33.015625,-12.52
13:41:33.031250,-14.42
13:41:33.046875,-15.35
13:41:33.062500,-15.46
13:41:33.078125,-15.06
13:41:33.093750,-14.47
13:41:33.109375,-13.82
13:41:33.125000,-12.97
13:41:33.140625,-11.62
13:41:33.156250,-9.52
13:41:33.171875,-6.68
13:41:33.187500,-3.41
13:41:33.203125,-0.31
13:41:33.218750,2.06
13:41:33.234375,3.28
13:41:33.250000,3.26
13:41:33.265625,2.24
13:41:33.281250,0.60
13:41:33.296875,-1.21
13:41:33.312500,-2.88
13:41:33.328125,-4.23
13:41:33.343750,-5.26
13:41:33.359375,-6.07
13:41:33.375000,-6.77
13:41:33.390625,-7.44
13:41:33.406250,-8.08
13:41:33.421875,-8.65
13:41:33.437500,-9.09
13:41:33.453125,-9.39
13:41:33.468750,-9.57
13:41:33.484375,-9.75
13:41:33.500000,-10.00
13:41:33.515625,-10.34
13:41:33.531250,-10.75
13:41:33.546875,-11.16
13:41:33.562500,-11.47
13:41:33.578125,-11.60
13:41:33.593750,-11.44
13:41:33.609375,-10.90
13:41:33.625000,-9.91
13:41:33.640625,-8.48
13:41:33.656250,-6.68
13:41:33.671875,-4.66
13:41:33.687500,-2.57
13:41:33.703125,-0.53
13:41:33.718750,1.41
13:41:33.734375,3.26
13:41:33.750000,5.03
13:41:33.765625,6.75
13:41:33.781250,8.37
13:41:33.796875,9.78
13:41:33.812500,10.86
13:41:33.828125,11.53
13:41:33.843750,11.74
13:41:33.859375,11.52
13:41:33.875000,10.98
13:41:33.890625,10.31
13:41:33.906250,9.72
13:41:33.921875,9.39
13:41:33.937500,9.45
13:41:33.953125,9.96
13:41:33.968750,10.91
13:41:33.984375,12.18
13:41:34,13.60
13:41:34.015625,14.92
13:41:34.031250,15.86
13:41:34.046875,16.16
13:41:34.062500,15.64
13:41:34.078125,14.31
13:41:34.093750,12.33
13:41:34.109375,9.98
13:41:34.125000,7.57
13:41:34.140625,5.36
13:41:34.156250,3.55
13:41:34.171875,2.20
13:41:34.187500,1.33
13:41:34.203125,0.90
13:41:34.218750,0.90
13:41:34.234375,1.25
13:41:34.250000,1.85
13:41:34.265625,2.53
13:41:34.281250,3.08
13:41:34.296875,3.29
13:41:34.312500,2.95
13:41:34.328125,1.99
13:41:34.343750,0.46
13:41:34.359375,-1.48
13:41:34.375000,-3.53
13:41:34.390625,-5.35
13:41:34.406250,-6.60
13:41:34.421875,-6.98
13:41:34.437500,-6.36
13:41:34.453125,-4.75
13:41:34.468750,-2.35
13:41:34.484375,0.50
13:41:34.500000,3.45
13:41:34.515625,6.14
13:41:34.531250,8.30
13:41:34.546875,9.72
13:41:34.562500,10.26
13:41:34.578125,9.86
13:41:34.593750,8.58
13:41:34.609375,6.67
13:41:34.625000,4.48
13:41:34.640625,2.37
13:41:34.656250,0.67
13:41:34.671875,-0.50
13:41:34.687500,-1.18
13:41:34.703125,-1.52
13:41:34.718750,-1.76
13:41:34.734375,-2.07
13:41:34.750000,-2.61
13:41:34.765625,-3.44
13:41:34.781250,-4.50
13:41:34.796875,-5.67
13:41:34.812500,-6.72
13:41:34.828125,-7.46
13:41:34.843750,-7.74
13:41:34.859375,-7.53
13:41:34.875000,-6.95
13:41:34.890625,-6.23
13:41:34.906250,-5.60
13:41:34.921875,-5.26
13:41:34.937500,-5.22
13:41:34.953125,-5.37
13:41:34.968750,-5.49
13:41:34.984375,-5.36
13:41:35,-4.88
13:41:35.015625,-4.11
13:41:35.031250,-3.20
13:41:35.046875,-2.34
13:41:35.062500,-1.68
13:41:35.078125,-1.23
13:41:35.093750,-0.98
13:41:35.109375,-0.87
13:41:35.125000,-0.91
13:41:35.140625,-1.15
13:41:35.156250,-1.62
13:41:35.171875,-2.26
13:41:35.187500,-2.91
13:41:35.203125,-3.43
13:41:35.218750,-3.68
13:41:35.234375,-3.74
13:41:35.250000,-3.80
13:41:35.265625,-4.18
13:41:35.281250,-5.09
13:41:35.296875,-6.62
13:41:35.312500,-8.63
13:41:35.328125,-10.87
13:41:35.343750,-13.12
13:41:35.359375,-15.24
13:41:35.375000,-17.19
13:41:35.390625,-18.97
13:41:35.406250,-20.52
13:41:35.421875,-21.76
13:41:35.437500,-22.54
13:41:35.453125,-22.79
13:41:35.468750,-22.54
13:41:35.484375,-21.85
13:41:35.500000,-20.80
13:41:35.515625,-19.43
13:41:35.531250,-17.72
13:41:35.546875,-15.69
13:41:35.562500,-13.39
13:41:35.578125,-10.89
13:41:35.593750,-8.26
13:41:35.609375,-5.51
13:41:35.625000,-2.61
13:41:35.640625,0.44
13:41:35.656250,3.53
13:41:35.671875,6.49
13:41:35.687500,9.04
13:41:35.703125,10.96
13:41:35.718750,12.15
13:41:35.734375,12.67
13:41:35.750000,12.70
13:41:35.765625,12.50
13:41:35.781250,12.30
13:41:35.796875,12.25
13:41:35.812500,12.41
13:41:35.828125,12.74
13:41:35.843750,13.10
13:41:35.859375,13.40
13:41:35.875000,13.58
13:41:35.890625,13.73
13:41:35.906250,14.03
13:41:35.921875,14.70
13:41:35.937500,15.88
13:41:35.953125,17.56
13:41:35.968750,19.56
13:41:35.984375,21.59
13:41:36,23.31
13:41:36.015625,24.49
13:41:36.031250,24.99
13:41:36.046875,24.85
13:41:36.062500,24.20
13:41:36.078125,23.23
13:41:36.093750,22.17
13:41:36.109375,21.20
13:41:36.125000,20.45
13:41:36.140625,19.93
13:41:36.156250,19.63
13:41:36.171875,19.46
13:41:36.187500,19.34
13:41:36.203125,19.25
13:41:36.218750,19.19
13:41:36.234375,19.20
13:41:36.250000,19.27
13:41:36.265625,19.39
13:41:36.281250,19.54
13:41:36.296875,19.63
13:41:36.312500,19.64
13:41:36.328125,19.50
13:41:36.343750,19.15
13:41:36.359375,18.53
13:41:36.375000,17.59
13:41:36.390625,16.32
13:41:36.406250,14.76
13:41:36.421875,12.98
13:41:36.437500,11.08
13:41:36.453125,9.15
13:41:36.468750,7.26
13:41:36.484375,5.48
13:41:36.500000,3.82
13:41:36.515625,2.27
13:41:36.531250,0.80
13:41:36.546875,-0.63
13:41:36.562500,-2.05
13:41:36.578125,-3.45
13:41:36.593750,-4.77
13:41:36.609375,-5.95
13:41:36.625000,-6.98
13:41:36.640625,-7.95
13:41:36.656250,-9.02
13:41:36.671875,-10.39
13:41:36.687500,-12.15
13:41:36.703125,-14.22
13:41:36.718750,-16.37
13:41:36.734375,-18.24
13:41:36.750000,-19.54
13:41:36.765625,-20.04
13:41:36.781250,-19.71
13:41:36.796875,-18.66
13:41:36.812500,-17.04
13:41:36.828125,-15.07
13:41:36.843750,-12.92
13:41:36.859375,-10.74
13:41:36.875000,-8.65
13:41:36.890625,-6.67
13:41:36.906250,-4.80
13:41:36.921875,-2.99
13:41:36.937500,-1.18
13:41:36.953125,0.60
13:41:36.968750,2.29
13:41:36.984375,3.77
13:41:37,4.97
13:41:37.015625,5.88
13:41:37.031250,6.58
13:41:37.046875,7.17
13:41:37.062500,7.65
13:41:37.078125,7.97
13:41:37.093750,8.03
13:41:37.109375,7.78
13:41:37.125000,7.25
13:41:37.140625,6.58
13:41:37.156250,5.92
13:41:37.171875,5.38
13:41:37.187500,4.98
13:41:37.203125,4.72
13:41:37.218750,4.59
13:41:37.234375,4.60
13:41:37.250000,4.71
13:41:37.265625,4.82
13:41:37.281250,4.73
13:41:37.296875,4.19
13:41:37.312500,3.06
13:41:37.328125,1.37
13:41:37.343750,-0.68
13:41:37.359375,-2.77
13:41:37.375000,-4.65
13:41:37.390625,-6.20
13:41:37.406250,-7.46
13:41:37.421875,-8.58
13:41:37.437500,-9.63
13:41:37.453125,-10.57
13:41:37.468750,-11.24
13:41:37.484375,-11.46
13:41:37.500000,-11.09
13:41:37.515625,-10.13
13:41:37.531250,-8.70
13:41:37.546875,-6.98
13:41:37.562500,-5.23
13:41:37.578125,-3.63
13:41:37.593750,-2.35
13:41:37.609375,-1.44
13:41:37.625000,-0.90
13:41:37.640625,-0.61
13:41:37.656250,-0.39
13:41:37.671875,-0.09
13:41:37.687500,0.31
13:41:37.703125,0.66
13:41:37.718750,0.69
13:41:37.734375,0.09
13:41:37.750000,-1.33
13:41:37.765625,-3.65
13:41:37.781250,-6.70
13:41:37.796875,-10.27
13:41:37.812500,-14.08
13:41:37.828125,-17.91
13:41:37.843750,-21.50
13:41:37.859375,-24.66
13:41:37.875000,-27.15
13:41:37.890625,-28.84
13:41:37.906250,-29.67
13:41:37.921875,-29.68
13:41:37.937500,-29.01
13:41:37.953125,-27.73
13:41:37.968750,-25.85
13:41:37.984375,-23.27
13:41:38,-19.87
13:41:38.015625,-15.59
13:41:38.031250,-10.61
13:41:38.046875,-5.28
13:41:38.062500,-0.12
13:41:38.078125,4.40
13:41:38.093750,7.94
13:41:38.109375,10.42
13:41:38.125000,11.98
13:41:38.140625,12.80
13:41:38.156250,13.03
13:41:38.171875,12.76
13:41:38.187500,12.00
13:41:38.203125,10.88
13:41:38.218750,9.62
13:41:38.234375,8.44
13:41:38.250000,7.58
13:41:38.265625,7.05
13:41:38.281250,6.73
13:41:38.296875,6.38
13:41:38.312500,5.80
13:41:38.328125,4.92
13:41:38.343750,3.88
13:41:38.359375,2.89
13:41:38.375000,2.20
13:41:38.390625,2.01
13:41:38.406250,2.39
13:41:38.421875,3.23
13:41:38.437500,4.39
13:41:38.453125,5.65
13:41:38.468750,6.80
13:41:38.484375,7.64
13:41:38.500000,8.02
13:41:38.515625,7.87
13:41:38.531250,7.12
13:41:38.546875,5.77
13:41:38.562500,3.87
13:41:38.578125,1.52
13:41:38.593750,-1.15
13:41:38.609375,-3.96
13:41:38.625000,-6.78
13:41:38.640625,-9.41
13:41:38.656250,-11.73
13:41:38.671875,-13.56
13:41:38.687500,-14.73
13:41:38.703125,-15.11
13:41:38.718750,-14.65
13:41:38.734375,-13.43
13:41:38.750000,-11.61
13:41:38.765625,-9.45
13:41:38.781250,-7.20
13:41:38.796875,-5.11
13:41:38.812500,-3.36
13:41:38.828125,-2.03
13:41:38.843750,-1.15
13:41:38.859375,-0.67
13:41:38.875000,-0.53
13:41:38.890625,-0.67
13:41:38.906250,-1.07
13:41:38.921875,-1.66
13:41:38.937500,-2.38
13:41:38.953125,-3.07
13:41:38.968750,-3.61
13:41:38.984375,-3.95
13:41:39,-4.14
13:41:39.015625,-4.34
13:41:39.031250,-4.68
13:41:39.046875,-5.23
13:41:39.062500,-5.87
13:41:39.078125,-6.48
13:41:39.093750,-6.91
13:41:39.109375,-7.13
13:41:39.125000,-7.22
13:41:39.140625,-7.24
13:41:39.156250,-7.16
13:41:39.171875,-6.82
13:41:39.187500,-6.04
13:41:39.203125,-4.68
13:41:39.218750,-2.78
13:41:39.234375,-0.54
13:41:39.250000,1.72
13:41:39.265625,3.71
13:41:39.281250,5.21
13:41:39.296875,6.09
13:41:39.312500,6.31
13:41:39.328125,5.84
13:41:39.343750,4.72
13:41:39.359375,3.06
13:41:39.375000,1.08
13:41:39.390625,-0.97
13:41:39.406250,-2.82
13:41:39.421875,-4.26
13:41:39.437500,-5.22
13:41:39.453125,-5.64
13:41:39.468750,-5.55
13:41:39.484375,-4.97
13:41:39.500000,-3.97
13:41:39.515625,-2.65
13:41:39.531250,-1.19
13:41:39.546875,0.27
13:41:39.562500,1.64
13:41:39.578125,2.94
13:41:39.593750,4.28
13:41:39.609375,5.75
13:41:39.625000,7.39
13:41:39.640625,9.08
13:41:39.656250,10.67
13:41:39.671875,11.98
13:41:39.687500,12.93
13:41:39.703125,13.55
13:41:39.718750,13.94
13:41:39.734375,14.27
13:41:39.750000,14.69
13:41:39.765625,15.26
13:41:39.781250,15.89
13:41:39.796875,16.38
13:41:39.812500,16.49
13:41:39.828125,16.04
13:41:39.843750,15.00
13:41:39.859375,13.54
13:41:39.875000,11.87
13:41:39.890625,10.20
13:41:39.906250,8.59
13:41:39.921875,6.98
13:41:39.937500,5.28
13:41:39.953125,3.40
13:41:39.968750,1.32
13:41:39.984375,-0.95
13:41:40,-3.37
13:41:40.015625,-5.86
13:41:40.031250,-8.31
13:41:40.046875,-10.55
13:41:40.062500,-12.43
13:41:40.078125,-13.80
13:41:40.093750,-14.67
13:41:40.109375,-15.11
13:41:40.125000,-15.29
13:41:40.140625,-15.38
13:41:40.156250,-15.54
13:41:40.171875,-15.82
13:41:40.187500,-16.26
13:41:40.203125,-16.83
13:41:40.218750,-17.43
13:41:40.234375,-17.97
13:41:40.250000,-18.27
13:41:40.265625,-18.18
13:41:40.281250,-17.55
13:41:40.296875,-16.35
13:41:40.312500,-14.65
13:41:40.328125,-12.63
13:41:40.343750,-10.49
13:41:40.359375,-8.34
13:41:40.375000,-6.17
13:41:40.390625,-3.82
13:41:40.406250,-1.06
13:41:40.421875,2.23
13:41:40.437500,6.04
13:41:40.453125,10.22
13:41:40.468750,14.52
13:41:40.484375,18.71
13:41:40.500000,22.56
13:41:40.515625,25.88
13:41:40.531250,28.54
13:41:40.546875,30.41
13:41:40.562500,31.42
13:41:40.578125,31.56
13:41:40.593750,30.80
13:41:40.609375,29.08
13:41:40.625000,26.22
13:41:40.640625,22.04
13:41:40.656250,16.35
13:41:40.671875,9.16
13:41:40.687500,0.67
13:41:40.703125,-8.69
13:41:40.718750,-18.33
13:41:40.734375,-27.59
13:41:40.750000,-35.80
13:41:40.765625,-42.39
13:41:40.781250,-46.94
13:41:40.796875,-49.24
13:41:40.812500,-49.33
13:41:40.828125,-47.44
13:41:40.843750,-43.93
13:41:40.859375,-39.17
13:41:40.875000,-33.46
13:41:40.890625,-27.06
13:41:40.906250,-20.22
13:41:40.921875,-13.29
13:41:40.937500,-6.74
13:41:40.953125,-1.06
13:41:40.968750,3.34
13:41:40.984375,6.32
13:41:41,7.95
13:41:41.015625,8.50
13:41:41.031250,8.29
13:41:41.046875,7.56
13:41:41.062500,6.50
13:41:41.078125,5.26
13:41:41.093750,4.04
13:41:41.109375,3.10
13:41:41.125000,2.71
13:41:41.140625,2.98
13:41:41.156250,3.85
13:41:41.171875,5.03
13:41:41.187500,6.14
13:41:41.203125,6.87
13:41:41.218750,7.06
13:41:41.234375,6.79
13:41:41.250000,6.27
13:41:41.265625,5.77
13:41:41.281250,5.45
13:41:41.296875,5.39
13:41:41.312500,5.48
13:41:41.328125,5.57
13:41:41.343750,5.51
13:41:41.359375,5.19
13:41:41.375000,4.61
13:41:41.390625,3.82
13:41:41.406250,2.87
13:41:41.421875,1.81
13:41:41.437500,0.66
13:41:41.453125,-0.54
13:41:41.468750,-1.75
13:41:41.484375,-2.87
13:41:41.500000,-3.82
13:41:41.515625,-4.55
13:41:41.531250,-5.10
13:41:41.546875,-5.57
13:41:41.562500,-6.09
13:41:41.578125,-6.69
13:41:41.593750,-7.20
13:41:41.609375,-7.28
13:41:41.625000,-6.50
13:41:41.640625,-4.54
13:41:41.656250,-1.33
13:41:41.671875,2.82
13:41:41.687500,7.41
13:41:41.703125,11.91
13:41:41.718750,16.01
13:41:41.734375,19.70
13:41:41.750000,23.13
13:41:41.765625,26.47
13:41:41.781250,29.70
13:41:41.796875,32.49
13:41:41.812500,34.41
13:41:41.828125,35.03
13:41:41.843750,34.14
13:41:41.859375,31.80
13:41:41.875000,28.30
13:41:41.890625,24.02
13:41:41.906250,19.36
13:41:41.921875,14.67
13:41:41.937500,10.27
13:41:41.953125,6.49
13:41:41.968750,3.62
13:41:41.984375,1.86
13:41:42,1.20
13:41:42.015625,1.40
13:41:42.031250,2.05
13:41:42.046875,2.66
13:41:42.062500,2.88
13:41:42.078125,2.55
13:41:42.093750,1.71
13:41:42.109375,0.56
13:41:42.125000,-0.73
13:41:42.140625,-2.07
13:41:42.156250,-3.45
13:41:42.171875,-4.87
13:41:42.187500,-6.31
13:41:42.203125,-7.64
13:41:42.218750,-8.73
13:41:42.234375,-9.54
13:41:42.250000,-10.16
13:41:42.265625,-10.83
13:41:42.281250,-11.78
13:41:42.296875,-13.11
13:41:42.312500,-14.77
13:41:42.328125,-16.54
13:41:42.343750,-18.12
13:41:42.359375,-19.22
13:41:42.375000,-19.58
13:41:42.390625,-19.02
13:41:42.406250,-17.46
13:41:42.421875,-14.91
13:41:42.437500,-11.55
13:41:42.453125,-7.77
13:41:42.468750,-4.11
13:41:42.484375,-1.17
13:41:42.500000,0.51
13:41:42.515625,0.65
13:41:42.531250,-0.74
13:41:42.546875,-3.27
13:41:42.562500,-6.36
13:41:42.578125,-9.26
13:41:42.593750,-11.30
13:41:42.609375,-12.00
13:41:42.625000,-11.14
13:41:42.640625,-8.84
13:41:42.656250,-5.41
13:41:42.671875,-1.34
13:41:42.687500,2.86
13:41:42.703125,6.72
13:41:42.718750,9.80
13:41:42.734375,11.78
13:41:42.750000,12.35
13:41:42.765625,11.39
13:41:42.781250,8.86
13:41:42.796875,4.96
13:41:42.812500,0.04
13:41:42.828125,-5.39
13:41:42.843750,-10.72
13:41:42.859375,-15.40
13:41:42.875000,-19.01
13:41:42.890625,-21.35
13:41:42.906250,-22.44
13:41:42.921875,-22.46
13:41:42.937500,-21.62
13:41:42.953125,-20.09
13:41:42.968750,-17.92
13:41:42.984375,-15.06
13:41:43,-11.45
13:41:43.015625,-7.08
13:41:43.031250,-2.06
13:41:43.046875,3.31
13:41:43.062500,8.61
13:41:43.078125,13.29
13:41:43.093750,16.83
13:41:43.109375,18.81
13:41:43.125000,19.08
13:41:43.140625,17.73
13:41:43.156250,15.17
13:41:43.171875,11.92
13:41:43.187500,8.56
13:41:43.203125,5.60
13:41:43.218750,3.38
13:41:43.234375,2.07
13:41:43.250000,1.60
13:41:43.265625,1.85
13:41:43.281250,2.58
13:41:43.296875,3.63
13:41:43.312500,4.87
13:41:43.328125,6.23
13:41:43.343750,7.67
13:41:43.359375,9.11
13:41:43.375000,10.55
13:41:43.390625,11.97
13:41:43.406250,13.45
13:41:43.421875,15.10
13:41:43.437500,16.91
13:41:43.453125,18.71
13:41:43.468750,20.19
13:41:43.484375,20.97
13:41:43.500000,20.75
13:41:43.515625,19.50
13:41:43.531250,17.49
13:41:43.546875,15.16
13:41:43.562500,13.02
13:41:43.578125,11.45
13:41:43.593750,10.60
13:41:43.609375,10.37
13:41:43.625000,10.48
13:41:43.640625,10.55
13:41:43.656250,10.29
13:41:43.671875,9.52
13:41:43.687500,8.25
13:41:43.703125,6.57
13:41:43.718750,4.63
13:41:43.734375,2.55
13:41:43.750000,0.37
13:41:43.765625,-1.92
13:41:43.781250,-4.33
13:41:43.796875,-6.75
13:41:43.812500,-9.06
13:41:43.828125,-11.07
13:41:43.843750,-12.66
13:41:43.859375,-13.73
13:41:43.875000,-14.28
13:41:43.890625,-14.29
13:41:43.906250,-13.73
13:41:43.921875,-12.54
13:41:43.937500,-10.68
13:41:43.953125,-8.19
13:41:43.968750,-5.26
13:41:43.984375,-2.20
13:41:44,0.66
13:41:44.015625,3.02
13:41:44.031250,4.70
13:41:44.046875,5.61
13:41:44.062500,5.68
13:41:44.078125,4.87
13:41:44.093750,3.17
13:41:44.109375,0.64
13:41:44.125000,-2.53
13:41:44.140625,-6.05
13:41:44.156250,-9.56
13:41:44.171875,-12.72
13:41:44.187500,-15.25
13:41:44.203125,-16.91
13:41:44.218750,-17.56
13:41:44.234375,-17.20
13:41:44.250000,-15.97
13:41:44.265625,-14.16
13:41:44.281250,-12.14
13:41:44.296875,-10.21
13:41:44.312500,-8.51
13:41:44.328125,-6.96
13:41:44.343750,-5.39
13:41:44.359375,-3.65
13:41:44.375000,-1.73
13:41:44.390625,0.24
13:41:44.406250,2.02
13:41:44.421875,3.42
13:41:44.437500,4.33
13:41:44.453125,4.75
13:41:44.468750,4.73
13:41:44.484375,4.30
13:41:44.500000,3.46
13:41:44.515625,2.20
13:41:44.531250,0.59
13:41:44.546875,-1.25
13:41:44.562500,-3.12
13:41:44.578125,-4.81
13:41:44.593750,-6.16
13:41:44.609375,-7.07
13:41:44.625000,-7.48
13:41:44.640625,-7.32
13:41:44.656250,-6.47
13:41:44.671875,-4.88
13:41:44.687500,-2.58
13:41:44.703125,0.22
13:41:44.718750,3.08
13:41:44.734375,5.50
13:41:44.750000,6.93
13:41:44.765625,7.07
13:41:44.781250,5.82
13:41:44.796875,3.35
13:41:44.812500,0.05
13:41:44.828125,-3.60
13:41:44.843750,-7.06
13:41:44.859375,-9.91
13:41:44.875000,-11.87
13:41:44.890625,-12.85
13:41:44.906250,-12.94
13:41:44.921875,-12.34
13:41:44.937500,-11.30
13:41:44.953125,-10.07
13:41:44.968750,-8.77
13:41:44.984375,-7.46
13:41:45,-6.05
13:41:45.015625,-4.36
13:41:45.031250,-2.24
13:41:45.046875,0.41
13:41:45.062500,3.54
13:41:45.078125,6.91
13:41:45.093750,10.22
13:41:45.109375,13.14
13:41:45.125000,15.44
13:41:45.140625,16.97
13:41:45.156250,17.63
13:41:45.171875,17.34
13:41:45.187500,16.04
13:41:45.203125,13.82
13:41:45.218750,10.92
13:41:45.234375,7.75
13:41:45.250000,4.72
13:41:45.265625,2.02
13:41:45.281250,-0.36
13:41:45.296875,-2.62
13:41:45.312500,-4.92
13:41:45.328125,-7.20
13:41:45.343750,-9.17
13:41:45.359375,-10.44
13:41:45.375000,-10.76
13:41:45.390625,-10.15
13:41:45.406250,-8.89
13:41:45.421875,-7.35
13:41:45.437500,-5.77
13:41:45.453125,-4.20
13:41:45.468750,-2.56
13:41:45.484375,-0.78
13:41:45.500000,1.08
13:41:45.515625,2.78
13:41:45.531250,4.06
13:41:45.546875,4.65
13:41:45.562500,4.43
13:41:45.578125,3.47
13:41:45.593750,2.01
13:41:45.609375,0.39
13:41:45.625000,-1.04
13:41:45.640625,-2.01
13:41:45.656250,-2.42
13:41:45.671875,-2.32
13:41:45.687500,-1.87
13:41:45.703125,-1.21
13:41:45.718750,-0.37
13:41:45.734375,0.73
13:41:45.750000,2.13
13:41:45.765625,3.76
13:41:45.781250,5.30
13:41:45.796875,6.37
13:41:45.812500,6.64
13:41:45.828125,6.10
13:41:45.843750,5.04
13:41:45.859375,3.91
13:41:45.875000,3.09
13:41:45.890625,2.60
13:41:45.906250,2.19
13:41:45.921875,1.46
13:41:45.937500,0.15
13:41:45.953125,-1.65
13:41:45.968750,-3.60
13:41:45.984375,-5.27
13:41:46,-6.36
13:41:46.015625,-6.87
13:41:46.031250,-7.01
13:41:46.046875,-7.08
13:41:46.062500,-7.26
13:41:46.078125,-7.58
13:41:46.093750,-7.94
13:41:46.109375,-8.17
13:41:46.125000,-8.11
13:41:46.140625,-7.68
13:41:46.156250,-6.83
13:41:46.171875,-5.59
13:41:46.187500,-4.02
13:41:46.203125,-2.23
13:41:46.218750,-0.35
13:41:46.234375,1.54
13:41:46.250000,3.38
13:41:46.265625,5.19
13:41:46.281250,7.03
13:41:46.296875,8.93
13:41:46.312500,10.88
13:41:46.328125,12.84
13:41:46.343750,14.67
13:41:46.359375,16.22
13:41:46.375000,17.32
13:41:46.390625,17.84
13:41:46.406250,17.71
13:41:46.421875,17.00
13:41:46.437500,15.83
13:41:46.453125,14.42
13:41:46.468750,12.96
13:41:46.484375,11.61
13:41:46.500000,10.46
13:41:46.515625,9.52
13:41:46.531250,8.75
13:41:46.546875,8.08
13:41:46.562500,7.47
13:41:46.578125,6.86
13:41:46.593750,6.22
13:41:46.609375,5.52
13:41:46.625000,4.70
13:41:46.640625,3.67
13:41:46.656250,2.33
13:41:46.671875,0.59
13:41:46.687500,-1.58
13:41:46.703125,-4.18
13:41:46.718750,-7.08
13:41:46.734375,-10.11
13:41:46.750000,-13.05
13:41:46.765625,-15.63
13:41:46.781250,-17.59
13:41:46.796875,-18.73
13:41:46.812500,-18.93
13:41:46.828125,-18.24
13:41:46.843750,-16.76
13:41:46.859375,-14.72
13:41:46.875000,-12.34
13:41:46.890625,-9.87
13:41:46.906250,-7.51
13:41:46.921875,-5.43
13:41:46.937500,-3.67
13:41:46.953125,-2.25
13:41:46.968750,-1.08
13:41:46.984375,-0.09
13:41:47,0.78
13:41:47.015625,1.44
13:41:47.031250,1.84
13:41:47.046875,1.87
13:41:47.062500,1.60
13:41:47.078125,1.15
13:41:47.093750,0.73
13:41:47.109375,0.49
13:41:47.125000,0.50
13:41:47.140625,0.74
13:41:47.156250,1.13
13:41:47.171875,1.69
13:41:47.187500,2.42
13:41:47.203125,3.31
13:41:47.218750,4.23
13:41:47.234375,4.96
13:41:47.250000,5.20
13:41:47.265625,4.71
13:41:47.281250,3.46
13:41:47.296875,1.64
13:41:47.312500,-0.43
13:41:47.328125,-2.35
13:41:47.343750,-3.81
13:41:47.359375,-4.68
13:41:47.375000,-4.97
13:41:47.390625,-4.86
13:41:47.406250,-4.60
13:41:47.421875,-4.43
13:41:47.437500,-4.56
13:41:47.453125,-5.03
13:41:47.468750,-5.79
13:41:47.484375,-6.72
13:41:47.500000,-7.74
13:41:47.515625,-8.87
13:41:47.531250,-10.22
13:41:47.546875,-11.85
13:41:47.562500,-13.74
13:41:47.578125,-15.62
13:41:47.593750,-17.12
13:41:47.609375,-17.82
13:41:47.625000,-17.54
13:41:47.640625,-16.31
13:41:47.656250,-14.43
13:41:47.671875,-12.25
13:41:47.687500,-10.05
13:41:47.703125,-7.97
13:41:47.718750,-6.01
13:41:47.734375,-4.13
13:41:47.750000,-2.40
13:41:47.765625,-1.02
13:41:47.781250,-0.27
13:41:47.796875,-0.42
13:41:47.812500,-1.56
13:41:47.828125,-3.62
13:41:47.843750,-6.39
13:41:47.859375,-9.64
13:41:47.875000,-13.13
13:41:47.890625,-16.64
13:41:47.906250,-19.85
13:41:47.921875,-22.25
13:41:47.937500,-23.13
13:41:47.953125,-21.74
13:41:47.968750,-17.50
13:41:47.984375,-10.22
13:41:48,-0.29
13:41:48.015625,11.41
13:41:48.031250,23.65
13:41:48.046875,35.13
13:41:48.062500,44.68
13:41:48.078125,51.50
13:41:48.093750,55.16
13:41:48.109375,55.61
13:41:48.125000,53.12
13:41:48.140625,48.09
13:41:48.156250,41.07
13:41:48.171875,32.61
13:41:48.187500,23.34
13:41:48.203125,13.96
13:41:48.218750,5.25
13:41:48.234375,-1.98
13:41:48.250000,-7.09
13:41:48.265625,-9.73
13:41:48.281250,-9.90
13:41:48.296875,-7.96
13:41:48.312500,-4.39
13:41:48.328125,0.26
13:41:48.343750,5.58
13:41:48.359375,11.25
13:41:48.375000,17.03
13:41:48.390625,22.63
13:41:48.406250,27.71
13:41:48.421875,31.96
13:41:48.437500,35.10
13:41:48.453125,37.08
13:41:48.468750,37.94
13:41:48.484375,37.82
13:41:48.500000,36.79
13:41:48.515625,34.86
13:41:48.531250,31.99
13:41:48.546875,28.23
13:41:48.562500,23.73
13:41:48.578125,18.84
13:41:48.593750,13.95
13:41:48.609375,9.41
13:41:48.625000,5.42
13:41:48.640625,1.96
13:41:48.656250,-1.14
13:41:48.671875,-4.10
13:41:48.687500,-7.12
13:41:48.703125,-10.21
13:41:48.718750,-13.22
13:41:48.734375,-15.89
13:41:48.750000,-17.99
13:41:48.765625,-19.31
13:41:48.781250,-19.83
13:41:48.796875,-19.61
13:41:48.812500,-18.67
13:41:48.828125,-17.03
13:41:48.843750,-14.69
13:41:48.859375,-11.68
13:41:48.875000,-8.15
13:41:48.890625,-4.37
13:41:48.906250,-0.69
13:41:48.921875,2.57
13:41:48.937500,5.21
13:41:48.953125,7.11
13:41:48.968750,8.23
13:41:48.984375,8.49
13:41:49,7.77
13:41:49.015625,5.93
13:41:49.031250,2.96
13:41:49.046875,-0.94
13:41:49.062500,-5.32
13:41:49.078125,-9.57
13:41:49.093750,-13.11
13:41:49.109375,-15.58
13:41:49.125000,-16.92
13:41:49.140625,-17.36
13:41:49.156250,-17.22
13:41:49.171875,-16.77
13:41:49.187500,-16.13
13:41:49.203125,-15.25
13:41:49.218750,-14.08
13:41:49.234375,-12.68
13:41:49.250000,-11.23
13:41:49.265625,-10.06
13:41:49.281250,-9.48
13:41:49.296875,-9.69
13:41:49.312500,-10.79
13:41:49.328125,-12.70
13:41:49.343750,-15.20
13:41:49.359375,-17.96
13:41:49.375000,-20.54
13:41:49.390625,-22.54
13:41:49.406250,-23.56
13:41:49.421875,-23.42
13:41:49.437500,-22.05
13:41:49.453125,-19.56
13:41:49.468750,-16.11
13:41:49.484375,-11.84
13:41:49.500000,-6.89
13:41:49.515625,-1.46
13:41:49.531250,4.18
13:41:49.546875,9.67
13:41:49.562500,14.62
13:41:49.578125,18.76
13:41:49.593750,21.93
13:41:49.609375,24.16
13:41:49.625000,25.47
13:41:49.640625,25.87
13:41:49.656250,25.25
13:41:49.671875,23.48
13:41:49.687500,20.50
13:41:49.703125,16.47
13:41:49.718750,11.72
13:41:49.734375,6.69
13:41:49.750000,1.81
13:41:49.765625,-2.69
13:41:49.781250,-6.71
13:41:49.796875,-10.30
13:41:49.812500,-13.57
13:41:49.828125,-16.58
13:41:49.843750,-19.31
13:41:49.859375,-21.64
13:41:49.875000,-23.35
13:41:49.890625,-24.26
13:41:49.906250,-24.20
13:41:49.921875,-23.10
13:41:49.937500,-20.99
13:41:49.953125,-17.97
13:41:49.968750,-14.25
13:41:49.984375,-10.07
13:41:50,-5.71
13:41:50.015625,-1.49
13:41:50.031250,2.34
13:41:50.046875,5.57
13:41:50.062500,8.11
13:41:50.078125,10.01
13:41:50.093750,11.33
13:41:50.109375,12.11
13:41:50.125000,12.31
13:41:50.140625,11.88
13:41:50.156250,10.76
13:41:50.171875,9.08
13:41:50.187500,7.08
13:41:50.203125,5.11
13:41:50.218750,3.48
13:41:50.234375,2.42
13:41:50.250000,1.91
13:41:50.265625,1.79
13:41:50.281250,1.83
13:41:50.296875,1.84
13:41:50.312500,1.75
13:41:50.328125,1.66
13:41:50.343750,1.79
13:41:50.359375,2.36
13:41:50.375000,3.50
13:41:50.390625,5.16
13:41:50.406250,7.06
13:41:50.421875,8.84
13:41:50.437500,10.12
13:41:50.453125,10.68
13:41:50.468750,10.48
13:41:50.484375,9.68
13:41:50.500000,8.46
13:41:50.515625,6.99
13:41:50.531250,5.36
13:41:50.546875,3.58
13:41:50.562500,1.61
13:41:50.578125,-0.58
13:41:50.593750,-2.94
13:41:50.609375,-5.43
13:41:50.625000,-7.97
13:41:50.640625,-10.40
13:41:50.656250,-12.52
13:41:50.671875,-14.04
13:41:50.687500,-14.66
13:41:50.703125,-14.15
13:41:50.718750,-12.43
13:41:50.734375,-9.58
13:41:50.750000,-5.87
13:41:50.765625,-1.67
13:41:50.781250,2.67
13:41:50.796875,6.83
13:41:50.812500,10.64
13:41:50.828125,14.02
13:41:50.843750,16.99
13:41:50.859375,19.61
13:41:50.875000,21.96
13:41:50.890625,23.99
13:41:50.906250,25.61
13:41:50.921875,26.67
13:41:50.937500,27.10
13:41:50.953125,26.98
13:41:50.968750,26.50
13:41:50.984375,25.97
13:41:51,25.64
13:41:51.015625,25.60
13:41:51.031250,25.73
13:41:51.046875,25.70
13:41:51.062500,25.12
13:41:51.078125,23.65
13:41:51.093750,21.06
13:41:51.109375,17.33
13:41:51.125000,12.62
13:41:51.140625,7.20
13:41:51.156250,1.46
13:41:51.171875,-4.21
13:41:51.187500,-9.48
13:41:51.203125,-14.13
13:41:51.218750,-18.05
13:41:51.234375,-21.26
13:41:51.250000,-23.82
13:41:51.265625,-25.76
13:41:51.281250,-27.05
13:41:51.296875,-27.61
13:41:51.312500,-27.33
13:41:51.328125,-26.09
13:41:51.343750,-23.84
13:41:51.359375,-20.58
13:41:51.375000,-16.41
13:41:51.390625,-11.59
13:41:51.406250,-6.57
13:41:51.421875,-1.93
13:41:51.437500,1.83
13:41:51.453125,4.36
13:41:51.468750,5.68
13:41:51.484375,6.09
13:41:51.500000,6.02
13:41:51.515625,5.80
13:41:51.531250,5.53
13:41:51.546875,5.09
13:41:51.562500,4.31
13:41:51.578125,3.11
13:41:51.593750,1.60
13:41:51.609375,0.05
13:41:51.625000,-1.27
13:41:51.640625,-2.16
13:41:51.656250,-2.60
13:41:51.671875,-2.65
13:41:51.687500,-2.40
13:41:51.703125,-1.92
13:41:51.718750,-1.19
13:41:51.734375,-0.26
13:41:51.750000,0.80
13:41:51.765625,1.84
13:41:51.781250,2.64
13:41:51.796875,3.08
13:41:51.812500,3.10
13:41:51.828125,2.80
13:41:51.843750,2.32
13:41:51.859375,1.80
13:41:51.875000,1.29
13:41:51.890625,0.71
13:41:51.906250,-0.08
13:41:51.921875,-1.24
13:41:51.937500,-2.82
13:41:51.953125,-4.82
13:41:51.968750,-7.12
13:41:51.984375,-9.48
13:41:52,-11.62
13:41:52.015625,-13.24
13:41:52.031250,-14.06
13:41:52.046875,-13.96
13:41:52.062500,-12.96
13:41:52.078125,-11.26
13:41:52.093750,-9.10
13:41:52.109375,-6.75
13:41:52.125000,-4.37
13:41:52.140625,-2.04
13:41:52.156250,0.22
13:41:52.171875,2.41
13:41:52.187500,4.52
13:41:52.203125,6.49
13:41:52.218750,8.25
13:41:52.234375,9.72
13:41:52.250000,10.81
13:41:52.265625,11.50
13:41:52.281250,11.79
13:41:52.296875,11.77
13:41:52.312500,11.54
13:41:52.328125,11.19
13:41:52.343750,10.78
13:41:52.359375,10.31
13:41:52.375000,9.76
13:41:52.390625,9.13
13:41:52.406250,8.44
13:41:52.421875,7.73
13:41:52.437500,7.04
13:41:52.453125,6.41
13:41:52.468750,5.83
13:41:52.484375,5.30
13:41:52.500000,4.77
13:41:52.515625,4.22
13:41:52.531250,3.63
13:41:52.546875,2.99
13:41:52.562500,2.29
13:41:52.578125,1.51
13:41:52.593750,0.61
13:41:52.609375,-0.44
13:41:52.625000,-1.68
13:41:52.640625,-3.11
13:41:52.656250,-4.68
13:41:52.671875,-6.26
13:41:52.687500,-7.70
13:41:52.703125,-8.81
13:41:52.718750,-9.45
13:41:52.734375,-9.51
13:41:52.750000,-8.97
13:41:52.765625,-7.90
13:41:52.781250,-6.41
13:41:52.796875,-4.69
13:41:52.812500,-2.88
13:41:52.828125,-1.15
13:41:52.843750,0.38
13:41:52.859375,1.62
13:41:52.875000,2.50
13:41:52.890625,3.01
13:41:52.906250,3.19
13:41:52.921875,3.12
13:41:52.937500,2.86
13:41:52.953125,2.43
13:41:52.968750,1.84
13:41:52.984375,1.07
13:41:53,0.17
13:41:53.015625,-0.74
13:41:53.031250,-1.50
13:41:53.046875,-1.97
13:41:53.062500,-2.07
13:41:53.078125,-1.86
13:41:53.093750,-1.46
13:41:53.109375,-1.01
