15:37:47,-0.00
15:37:47.015625,-0.00
15:37:47.031250,-0.00
15:37:47.046875,-0.00
15:37:47.062500,-0.00
15:37:47.078125,-0.00
15:37:47.093750,-0.00
15:37:47.109375,-0.00
15:37:47.125000,-0.00
15:37:47.140625,-0.00
15:37:47.156250,0.00
15:37:47.171875,0.01
15:37:47.187500,0.01
15:37:47.203125,-0.00
15:37:47.218750,-0.03
15:37:47.234375,-0.05
15:37:47.250000,-0.05
15:37:47.265625,0.00
15:37:47.281250,0.13
15:37:47.296875,0.36
15:37:47.312500,0.66
15:37:47.328125,1.01
15:37:47.343750,1.37
15:37:47.359375,1.72
15:37:47.375000,2.06
15:37:47.390625,2.40
15:37:47.406250,2.79
15:37:47.421875,3.24
15:37:47.437500,3.80
15:37:47.453125,4.42
15:37:47.468750,5.06
15:37:47.484375,5.66
15:37:47.500000,6.20
15:37:47.515625,6.68
15:37:47.531250,7.15
15:37:47.546875,7.68
15:37:47.562500,8.31
15:37:47.578125,9.15
15:37:47.593750,10.09
15:37:47.609375,11.04
15:37:47.625000,11.88
15:37:47.640625,12.56
15:37:47.656250,13.15
15:37:47.671875,13.80
15:37:47.687500,14.71
15:37:47.703125,16.01
15:37:47.718750,17.90
15:37:47.734375,20.19
15:37:47.750000,22.60
15:37:47.765625,24.88
15:37:47.781250,26.89
15:37:47.796875,28.74
15:37:47.812500,30.75
15:37:47.828125,33.33
15:37:47.843750,36.78
15:37:47.859375,41.44
15:37:47.875000,46.93
15:37:47.890625,52.72
15:37:47.906250,58.27
15:37:47.921875,63.25
15:37:47.937500,67.76
15:37:47.953125,72.29
15:37:47.968750,77.50
15:37:47.984375,83.84
15:37:48,91.78
15:37:48.015625,100.76
15:37:48.031250,110.01
15:37:48.046875,118.69
15:37:48.062500,126.35
15:37:48.078125,133.11
15:37:48.093750,139.60
15:37:48.109375,147.04
15:37:48.125000,153.98
15:37:48.140625,162.50
15:37:48.156250,173.07
15:37:48.171875,185.84
15:37:48.187500,199.79
15:37:48.203125,212.28
15:37:48.218750,219.20
15:37:48.234375,215.95
15:37:48.250000,198.98
15:37:48.265625,167.07
15:37:48.281250,122.21
15:37:48.296875,68.01
15:37:48.312500,8.88
15:37:48.328125,-51.60
15:37:48.343750,-111.36
15:37:48.359375,-169.71
15:37:48.375000,-226.64
15:37:48.390625,-282.11
15:37:48.406250,-335.87
15:37:48.421875,-387.08
15:37:48.437500,-435.19
15:37:48.453125,-479.46
15:37:48.468750,-518.78
15:37:48.484375,-551.56
15:37:48.500000,-575.77
15:37:48.515625,-589.36
15:37:48.531250,-590.75
15:37:48.546875,-579.35
15:37:48.562500,-555.64
15:37:48.578125,-521.61
15:37:48.593750,-480.09
15:37:48.609375,-434.08
15:37:48.625000,-385.77
15:37:48.640625,-335.74
15:37:48.656250,-282.89
15:37:48.671875,-225.18
15:37:48.687500,-161.02
15:37:48.703125,-90.58
15:37:48.718750,-16.59
15:37:48.734375,56.26
15:37:48.750000,122.74
15:37:48.765625,178.70
15:37:48.781250,222.21
15:37:48.796875,253.57
15:37:48.812500,274.51
15:37:48.828125,287.16
15:37:48.843750,293.24
15:37:48.859375,293.92
15:37:48.875000,290.07
15:37:48.890625,282.66
15:37:48.906250,272.80
15:37:48.921875,261.53
15:37:48.937500,249.52
15:37:48.953125,236.90
15:37:48.968750,223.42
15:37:48.984375,208.73
15:37:49,192.79
15:37:49.015625,176.11
15:37:49.031250,159.54
15:37:49.046875,144.02
15:37:49.062500,130.15
15:37:49.078125,117.96
15:37:49.093750,107.03
15:37:49.109375,96.67
15:37:49.125000,86.26
15:37:49.140625,75.58
15:37:49.156250,64.80
15:37:49.171875,54.51
15:37:49.187500,45.38
15:37:49.203125,37.90
15:37:49.218750,32.22
15:37:49.234375,28.01
15:37:49.250000,24.60
15:37:49.265625,21.38
15:37:49.281250,17.82
15:37:49.296875,13.77
15:37:49.312500,9.47
15:37:49.328125,5.39
15:37:49.343750,1.92
15:37:49.359375,-0.77
15:37:49.375000,-2.81
15:37:49.390625,-4.48
15:37:49.406250,-6.05
15:37:49.421875,-7.62
15:37:49.437500,-9.09
15:37:49.453125,-10.17
15:37:49.468750,-10.48
15:37:49.484375,-9.70
15:37:49.500000,-7.68
15:37:49.515625,-4.60
15:37:49.531250,-1.08
15:37:49.546875,1.93
15:37:49.562500,3.32
15:37:49.578125,2.34
15:37:49.593750,-1.03
15:37:49.609375,-6.00
15:37:49.625000,-11.12
15:37:49.640625,-14.91
15:37:49.656250,-16.43
15:37:49.671875,-15.63
15:37:49.687500,-13.25
15:37:49.703125,-10.46
15:37:49.718750,-8.28
15:37:49.734375,-7.27
15:37:49.750000,-7.37
15:37:49.765625,-8.06
15:37:49.781250,-8.66
15:37:49.796875,-8.59
15:37:49.812500,-7.62
15:37:49.828125,-5.90
15:37:49.843750,-3.91
15:37:49.859375,-2.20
15:37:49.875000,-1.17
15:37:49.890625,-0.96
15:37:49.906250,-1.42
15:37:49.921875,-2.21
15:37:49.937500,-3.08
15:37:49.953125,-3.93
15:37:49.968750,-4.75
15:37:49.984375,-5.53
15:37:50,-6.04
15:37:50.015625,-5.92
15:37:50.031250,-4.88
15:37:50.046875,-2.97
15:37:50.062500,-0.69
15:37:50.078125,1.17
15:37:50.093750,1.90
15:37:50.109375,1.22
15:37:50.125000,-0.50
15:37:50.140625,-2.38
15:37:50.156250,-3.45
15:37:50.171875,-3.11
15:37:50.187500,-1.41
15:37:50.203125,1.03
15:37:50.218750,3.29
15:37:50.234375,4.63
15:37:50.250000,4.74
15:37:50.265625,3.90
15:37:50.281250,2.81
15:37:50.296875,2.41
15:37:50.312500,3.54
15:37:50.328125,6.73
15:37:50.343750,11.97
15:37:50.359375,18.56
15:37:50.375000,25.15
15:37:50.390625,29.93
15:37:50.406250,31.15
15:37:50.421875,27.87
15:37:50.437500,20.52
15:37:50.453125,10.92
15:37:50.468750,1.79
15:37:50.484375,-4.42
15:37:50.500000,-6.51
15:37:50.515625,-5.06
15:37:50.531250,-2.08
15:37:50.546875,0.09
15:37:50.562500,-0.14
15:37:50.578125,-2.91
15:37:50.593750,-7.05
15:37:50.609375,-10.85
15:37:50.625000,-12.77
15:37:50.640625,-12.20
15:37:50.656250,-9.51
15:37:50.671875,-5.76
15:37:50.687500,-2.56
15:37:50.703125,-1.47
15:37:50.718750,-3.41
15:37:50.734375,-8.23
15:37:50.750000,-14.46
15:37:50.765625,-19.89
15:37:50.781250,-22.38
15:37:50.796875,-20.95
15:37:50.812500,-16.19
15:37:50.828125,-9.98
15:37:50.843750,-4.60
15:37:50.859375,-1.90
15:37:50.875000,-2.89
15:37:50.890625,-7.77
15:37:50.906250,-16.04
15:37:50.921875,-26.25
15:37:50.937500,-35.78
15:37:50.953125,-41.20
15:37:50.968750,-39.37
15:37:50.984375,-28.98
15:37:51,-11.69
15:37:51.015625,8.28
15:37:51.031250,25.76
15:37:51.046875,36.71
15:37:51.062500,39.85
15:37:51.078125,36.72
15:37:51.093750,30.34
15:37:51.109375,23.49
15:37:51.125000,17.85
15:37:51.140625,13.68
15:37:51.156250,10.52
15:37:51.171875,7.78
15:37:51.187500,4.60
15:37:51.203125,-0.12
15:37:51.218750,-7.66
15:37:51.234375,-19.10
15:37:51.250000,-34.96
15:37:51.265625,-54.88
15:37:51.281250,-77.30
15:37:51.296875,-99.03
15:37:51.312500,-115.42
15:37:51.328125,-121.62
15:37:51.343750,-113.90
15:37:51.359375,-91.15
15:37:51.375000,-55.83
15:37:51.390625,-13.98
15:37:51.406250,26.58
15:37:51.421875,58.27
15:37:51.437500,76.76
15:37:51.453125,81.87
15:37:51.468750,76.45
15:37:51.484375,65.06
15:37:51.500000,52.58
15:37:51.515625,43.31
15:37:51.531250,40.39
15:37:51.546875,46.20
15:37:51.562500,61.03
15:37:51.578125,83.87
15:37:51.593750,111.30
15:37:51.609375,136.84
15:37:51.625000,152.59
15:37:51.640625,151.72
15:37:51.656250,130.62
15:37:51.671875,89.31
15:37:51.687500,31.80
15:37:51.703125,-36.37
15:37:51.718750,-107.83
15:37:51.734375,-171.75
15:37:51.750000,-217.71
15:37:51.765625,-237.99
15:37:51.781250,-229.18
15:37:51.796875,-193.08
15:37:51.812500,-136.98
15:37:51.828125,-66.89
15:37:51.843750,3.88
15:37:51.859375,62.18
15:37:51.875000,101.29
15:37:51.890625,121.32
15:37:51.906250,125.72
15:37:51.921875,117.78
15:37:51.937500,103.35
15:37:51.953125,83.57
15:37:51.968750,60.48
15:37:51.984375,36.76
15:37:52,15.98
15:37:52.015625,0.74
15:37:52.031250,-9.08
15:37:52.046875,-15.75
15:37:52.062500,-21.75
15:37:52.078125,-28.45
15:37:52.093750,-36.07
15:37:52.109375,-42.99
15:37:52.125000,-47.90
15:37:52.140625,-49.78
15:37:52.156250,-48.56
15:37:52.171875,-45.44
15:37:52.187500,-41.74
15:37:52.203125,-38.23
15:37:52.218750,-35.01
15:37:52.234375,-32.25
15:37:52.250000,-29.67
15:37:52.265625,-27.50
15:37:52.281250,-25.61
15:37:52.296875,-23.46
15:37:52.312500,-20.43
15:37:52.328125,-15.68
15:37:52.343750,-9.04
15:37:52.359375,-1.51
15:37:52.375000,4.79
15:37:52.390625,8.22
15:37:52.406250,8.37
15:37:52.421875,6.71
15:37:52.437500,5.96
15:37:52.453125,8.96
15:37:52.468750,18.15
15:37:52.484375,34.27
15:37:52.500000,55.98
15:37:52.515625,80.16
15:37:52.531250,103.24
15:37:52.546875,121.94
15:37:52.562500,133.89
15:37:52.578125,138.03
15:37:52.593750,130.33
15:37:52.609375,110.55
15:37:52.625000,83.41
15:37:52.640625,56.61
15:37:52.656250,36.19
15:37:52.671875,23.81
15:37:52.687500,17.50
15:37:52.703125,14.05
15:37:52.718750,10.84
15:37:52.734375,6.27
15:37:52.750000,-0.07
15:37:52.765625,-8.67
15:37:52.781250,-20.36
15:37:52.796875,-35.73
15:37:52.812500,-54.11
15:37:52.828125,-73.21
15:37:52.843750,-89.84
15:37:52.859375,-101.15
15:37:52.875000,-105.53
15:37:52.890625,-102.86
15:37:52.906250,-94.64
15:37:52.921875,-83.62
15:37:52.937500,-73.35
15:37:52.953125,-67.29
15:37:52.968750,-68.09
15:37:52.984375,-76.47
15:37:53,-90.87
15:37:53.015625,-105.43
15:37:53.031250,-112.52
15:37:53.046875,-105.39
15:37:53.062500,-81.23
15:37:53.078125,-42.81
15:37:53.093750,2.23
15:37:53.109375,44.42
15:37:53.125000,74.31
15:37:53.140625,87.87
15:37:53.156250,86.94
15:37:53.171875,77.16
15:37:53.187500,64.98
15:37:53.203125,55.33
15:37:53.218750,50.72
15:37:53.234375,51.62
15:37:53.250000,57.06
15:37:53.265625,64.36
15:37:53.281250,69.70
15:37:53.296875,68.41
15:37:53.312500,56.87
15:37:53.328125,35.18
15:37:53.343750,8.29
15:37:53.359375,-15.86
15:37:53.375000,-29.91
15:37:53.390625,-30.97
15:37:53.406250,-21.90
15:37:53.421875,-9.08
15:37:53.437500,1.34
15:37:53.453125,6.46
15:37:53.468750,7.35
15:37:53.484375,6.89
15:37:53.500000,6.80
15:37:53.515625,5.98
15:37:53.531250,1.58
15:37:53.546875,-8.00
15:37:53.562500,-20.78
15:37:53.578125,-31.73
15:37:53.593750,-35.45
15:37:53.609375,-29.30
15:37:53.625000,-14.99
15:37:53.640625,2.16
15:37:53.656250,16.12
15:37:53.671875,23.02
15:37:53.687500,22.37
15:37:53.703125,16.49
15:37:53.718750,8.69
15:37:53.734375,1.57
15:37:53.750000,-3.52
15:37:53.765625,-6.68
15:37:53.781250,-8.50
15:37:53.796875,-9.45
15:37:53.812500,-9.63
15:37:53.828125,-8.99
15:37:53.843750,-7.55
15:37:53.859375,-5.59
15:37:53.875000,-3.56
15:37:53.890625,-1.77
15:37:53.906250,-0.40
15:37:53.921875,0.54
15:37:53.937500,1.12
15:37:53.953125,1.31
15:37:53.968750,1.07
15:37:53.984375,0.36
15:37:54,-0.65
15:37:54.015625,-1.64
15:37:54.031250,-2.31
15:37:54.046875,-2.63
15:37:54.062500,-2.81
15:37:54.078125,-3.23
15:37:54.093750,-4.10
15:37:54.109375,-5.32
15:37:54.125000,-6.53
15:37:54.140625,-7.31
15:37:54.156250,-7.51
15:37:54.171875,-7.35
15:37:54.187500,-7.32
15:37:54.203125,-7.87
15:37:54.218750,-9.22
15:37:54.234375,-11.17
15:37:54.250000,-13.27
15:37:54.265625,-15.04
15:37:54.281250,-16.23
15:37:54.296875,-16.87
15:37:54.312500,-17.15
15:37:54.328125,-17.28
15:37:54.343750,-17.37
15:37:54.359375,-17.39
15:37:54.375000,-17.24
15:37:54.390625,-16.77
15:37:54.406250,-15.83
15:37:54.421875,-14.24
15:37:54.437500,-11.87
15:37:54.453125,-8.64
15:37:54.468750,-4.62
15:37:54.484375,-0.00
15:37:54.500000,4.91
15:37:54.515625,9.82
15:37:54.531250,14.55
15:37:54.546875,19.02
15:37:54.562500,23.25
15:37:54.578125,27.32
15:37:54.593750,31.25
15:37:54.609375,35.03
15:37:54.625000,38.61
15:37:54.640625,41.91
15:37:54.656250,44.87
15:37:54.671875,47.44
15:37:54.687500,49.55
15:37:54.703125,51.05
15:37:54.718750,51.81
15:37:54.734375,51.66
15:37:54.750000,50.56
15:37:54.765625,48.55
15:37:54.781250,45.72
15:37:54.796875,42.24
15:37:54.812500,38.26
15:37:54.828125,33.89
15:37:54.843750,29.18
15:37:54.859375,24.18
15:37:54.875000,18.93
15:37:54.890625,13.56
15:37:54.906250,8.27
15:37:54.921875,3.31
15:37:54.937500,-1.09
15:37:54.953125,-4.85
15:37:54.968750,-8.09
15:37:54.984375,-11.08
15:37:55,-14.19
15:37:55.015625,-17.68
15:37:55.031250,-21.58
15:37:55.046875,-25.71
15:37:55.062500,-29.62
15:37:55.078125,-32.81
15:37:55.093750,-34.81
15:37:55.109375,-35.32
15:37:55.125000,-34.30
15:37:55.140625,-31.98
15:37:55.156250,-28.78
15:37:55.171875,-25.19
15:37:55.187500,-21.60
15:37:55.203125,-18.24
15:37:55.218750,-15.14
15:37:55.234375,-12.24
15:37:55.250000,-9.44
15:37:55.265625,-6.74
15:37:55.281250,-4.19
15:37:55.296875,-1.86
15:37:55.312500,0.25
15:37:55.328125,2.23
15:37:55.343750,4.22
15:37:55.359375,6.34
15:37:55.375000,8.63
15:37:55.390625,11.05
15:37:55.406250,13.45
15:37:55.421875,15.63
15:37:55.437500,17.30
15:37:55.453125,18.19
15:37:55.468750,18.12
15:37:55.484375,17.06
15:37:55.500000,15.19
15:37:55.515625,12.81
15:37:55.531250,10.24
15:37:55.546875,7.65
15:37:55.562500,5.06
15:37:55.578125,2.40
15:37:55.593750,-0.36
15:37:55.609375,-3.14
15:37:55.625000,-5.71
15:37:55.640625,-7.85
15:37:55.656250,-9.45
15:37:55.671875,-10.63
15:37:55.687500,-11.67
15:37:55.703125,-12.83
15:37:55.718750,-14.26
15:37:55.734375,-15.86
15:37:55.750000,-17.41
15:37:55.765625,-18.62
15:37:55.781250,-19.28
15:37:55.796875,-19.30
15:37:55.812500,-18.70
15:37:55.828125,-17.63
15:37:55.843750,-16.26
15:37:55.859375,-14.79
15:37:55.875000,-13.37
15:37:55.890625,-12.14
15:37:55.906250,-11.17
15:37:55.921875,-10.45
15:37:55.937500,-9.95
15:37:55.953125,-9.66
15:37:55.968750,-9.55
15:37:55.984375,-9.64
15:37:56,-9.94
15:37:56.015625,-10.47
15:37:56.031250,-11.21
15:37:56.046875,-12.12
15:37:56.062500,-13.09
15:37:56.078125,-14.02
15:37:56.093750,-14.79
15:37:56.109375,-15.37
15:37:56.125000,-15.86
15:37:56.140625,-16.45
15:37:56.156250,-17.32
15:37:56.171875,-18.52
15:37:56.187500,-19.87
15:37:56.203125,-20.92
15:37:56.218750,-21.16
15:37:56.234375,-20.17
15:37:56.250000,-17.89
15:37:56.265625,-14.63
15:37:56.281250,-10.96
15:37:56.296875,-7.50
15:37:56.312500,-4.63
15:37:56.328125,-2.46
15:37:56.343750,-0.86
15:37:56.359375,0.40
15:37:56.375000,1.46
15:37:56.390625,2.38
15:37:56.406250,3.14
15:37:56.421875,3.77
15:37:56.437500,4.38
15:37:56.453125,5.11
15:37:56.468750,6.00
15:37:56.484375,6.97
15:37:56.500000,7.79
15:37:56.515625,8.19
15:37:56.531250,8.04
15:37:56.546875,7.40
15:37:56.562500,6.52
15:37:56.578125,5.72
15:37:56.593750,5.27
15:37:56.609375,5.28
15:37:56.625000,5.70
15:37:56.640625,6.34
15:37:56.656250,7.02
15:37:56.671875,7.60
15:37:56.687500,8.06
15:37:56.703125,8.50
15:37:56.718750,9.05
15:37:56.734375,9.82
15:37:56.750000,10.82
15:37:56.765625,11.91
15:37:56.781250,12.85
15:37:56.796875,13.43
15:37:56.812500,13.47
15:37:56.828125,12.91
15:37:56.843750,11.81
15:37:56.859375,10.29
15:37:56.875000,8.51
15:37:56.890625,6.62
15:37:56.906250,4.82
15:37:56.921875,3.28
15:37:56.937500,2.15
15:37:56.953125,1.44
15:37:56.968750,1.04
15:37:56.984375,0.75
15:37:57,0.34
15:37:57.015625,-0.33
15:37:57.031250,-1.25
15:37:57.046875,-2.28
15:37:57.062500,-3.26
15:37:57.078125,-4.06
15:37:57.093750,-4.67
15:37:57.109375,-5.13
15:37:57.125000,-5.52
15:37:57.140625,-5.84
15:37:57.156250,-6.02
15:37:57.171875,-5.96
15:37:57.187500,-5.55
15:37:57.203125,-4.79
15:37:57.218750,-3.77
15:37:57.234375,-2.61
15:37:57.250000,-1.47
15:37:57.265625,-0.43
15:37:57.281250,0.51
15:37:57.296875,1.40
15:37:57.312500,2.29
15:37:57.328125,3.18
15:37:57.343750,4.01
15:37:57.359375,4.74
15:37:57.375000,5.28
15:37:57.390625,5.63
15:37:57.406250,5.81
15:37:57.421875,5.82
15:37:57.437500,5.70
15:37:57.453125,5.41
15:37:57.468750,4.95
15:37:57.484375,4.34
15:37:57.500000,3.65
15:37:57.515625,2.97
15:37:57.531250,2.39
15:37:57.546875,1.90
15:37:57.562500,1.43
15:37:57.578125,0.88
15:37:57.593750,0.19
15:37:57.609375,-0.63
15:37:57.625000,-1.48
15:37:57.640625,-2.24
15:37:57.656250,-2.84
15:37:57.671875,-3.27
15:37:57.687500,-3.63
15:37:57.703125,-4.04
15:37:57.718750,-4.54
15:37:57.734375,-5.10
15:37:57.750000,-5.62
15:37:57.765625,-5.96
15:37:57.781250,-6.07
15:37:57.796875,-5.94
15:37:57.812500,-5.65
15:37:57.828125,-5.27
15:37:57.843750,-4.81
15:37:57.859375,-4.20
15:37:57.875000,-3.33
15:37:57.890625,-2.15
15:37:57.906250,-0.68
15:37:57.921875,0.88
15:37:57.937500,2.29
15:37:57.953125,3.32
15:37:57.968750,3.89
15:37:57.984375,4.06
15:37:58,4.00
15:37:58.015625,3.93
15:37:58.031250,3.97
15:37:58.046875,4.15
15:37:58.062500,4.36
15:37:58.078125,4.53
15:37:58.093750,4.54
15:37:58.109375,4.39
15:37:58.125000,4.09
15:37:58.140625,3.69
15:37:58.156250,3.21
15:37:58.171875,2.68
15:37:58.187500,2.09
15:37:58.203125,1.50
15:37:58.218750,0.97
15:37:58.234375,0.59
15:37:58.250000,0.41
15:37:58.265625,0.41
15:37:58.281250,0.48
15:37:58.296875,0.50
15:37:58.312500,0.33
15:37:58.328125,-0.07
15:37:58.343750,-0.66
15:37:58.359375,-1.35
15:37:58.375000,-2.04
15:37:58.390625,-2.63
15:37:58.406250,-3.13
15:37:58.421875,-3.57
15:37:58.437500,-3.96
15:37:58.453125,-4.33
15:37:58.468750,-4.64
15:37:58.484375,-4.79
15:37:58.500000,-4.68
15:37:58.515625,-4.23
15:37:58.531250,-3.45
15:37:58.546875,-2.45
15:37:58.562500,-1.34
15:37:58.578125,-0.22
15:37:58.593750,0.86
15:37:58.609375,1.91
15:37:58.625000,2.91
15:37:58.640625,3.76
15:37:58.656250,4.35
15:37:58.671875,4.57
15:37:58.687500,4.48
15:37:58.703125,4.23
15:37:58.718750,4.04
15:37:58.734375,4.08
15:37:58.750000,4.37
15:37:58.765625,4.76
15:37:58.781250,5.07
15:37:58.796875,5.13
15:37:58.812500,4.87
15:37:58.828125,4.38
15:37:58.843750,3.80
15:37:58.859375,3.25
15:37:58.875000,2.84
15:37:58.890625,2.59
15:37:58.906250,2.49
15:37:58.921875,2.46
15:37:58.937500,2.41
15:37:58.953125,2.27
15:37:58.968750,2.01
15:37:58.984375,1.65
15:37:59,1.26
15:37:59.015625,0.88
15:37:59.031250,0.54
15:37:59.046875,0.20
15:37:59.062500,-0.17
15:37:59.078125,-0.57
15:37:59.093750,-0.98
15:37:59.109375,-1.37
15:37:59.125000,-1.74
15:37:59.140625,-2.09
15:37:59.156250,-2.51
15:37:59.171875,-3.01
15:37:59.187500,-3.56
15:37:59.203125,-4.11
15:37:59.218750,-4.53
15:37:59.234375,-4.78
15:37:59.250000,-4.85
15:37:59.265625,-4.80
15:37:59.281250,-4.67
15:37:59.296875,-4.44
15:37:59.312500,-4.02
15:37:59.328125,-3.29
15:37:59.343750,-2.19
15:37:59.359375,-0.79
15:37:59.375000,0.70
15:37:59.390625,2.05
15:37:59.406250,3.08
15:37:59.421875,3.70
15:37:59.437500,3.97
15:37:59.453125,4.01
15:37:59.468750,3.98
15:37:59.484375,3.98
15:37:59.500000,4.06
15:37:59.515625,4.18
15:37:59.531250,4.32
15:37:59.546875,4.40
15:37:59.562500,4.36
15:37:59.578125,4.15
15:37:59.593750,3.78
15:37:59.609375,3.24
15:37:59.625000,2.61
15:37:59.640625,1.93
15:37:59.656250,1.26
15:37:59.671875,0.62
15:37:59.687500,0.06
15:37:59.703125,-0.38
15:37:59.718750,-0.62
15:37:59.734375,-0.60
15:37:59.750000,-0.32
15:37:59.765625,0.13
15:37:59.781250,0.54
15:37:59.796875,0.73
15:37:59.812500,0.55
15:37:59.828125,0.04
15:37:59.843750,-0.64
15:37:59.859375,-1.27
15:37:59.875000,-1.68
15:37:59.890625,-1.87
15:37:59.906250,-1.97
15:37:59.921875,-2.16
15:37:59.937500,-2.55
15:37:59.953125,-3.13
15:37:59.968750,-3.77
15:37:59.984375,-4.34
15:38:00,-4.74
15:38:00.015625,-4.95
15:38:00.031250,-4.96
15:38:00.046875,-4.77
15:38:00.062500,-4.34
15:38:00.078125,-3.65
15:38:00.093750,-2.74
15:38:00.109375,-1.70
15:38:00.125000,-0.63
15:38:00.140625,0.39
15:38:00.156250,1.32
15:38:00.171875,2.13
15:38:00.187500,2.82
15:38:00.203125,3.33
15:38:00.218750,3.66
15:38:00.234375,3.85
15:38:00.250000,4.01
15:38:00.265625,4.22
15:38:00.281250,4.50
15:38:00.296875,4.74
15:38:00.312500,4.81
15:38:00.328125,4.57
15:38:00.343750,4.01
15:38:00.359375,3.25
15:38:00.375000,2.44
15:38:00.390625,1.74
15:38:00.406250,1.20
15:38:00.421875,0.81
15:38:00.437500,0.55
15:38:00.453125,0.42
15:38:00.468750,0.42
15:38:00.484375,0.50
15:38:00.500000,0.59
15:38:00.515625,0.57
15:38:00.531250,0.37
15:38:00.546875,-0.04
15:38:00.562500,-0.63
15:38:00.578125,-1.30
15:38:00.593750,-1.98
15:38:00.609375,-2.60
15:38:00.625000,-3.13
15:38:00.640625,-3.57
15:38:00.656250,-3.96
15:38:00.671875,-4.36
15:38:00.687500,-4.88
15:38:00.703125,-5.58
15:38:00.718750,-6.45
15:38:00.734375,-7.39
15:38:00.750000,-8.21
15:38:00.765625,-8.75
15:38:00.781250,-8.88
15:38:00.796875,-8.63
15:38:00.812500,-8.11
15:38:00.828125,-7.46
15:38:00.843750,-6.85
15:38:00.859375,-6.33
15:38:00.875000,-5.90
15:38:00.890625,-5.48
15:38:00.906250,-4.99
15:38:00.921875,-4.37
15:38:00.937500,-3.62
15:38:00.953125,-2.78
15:38:00.968750,-1.89
15:38:00.984375,-1.00
15:38:01,-0.07
15:38:01.015625,0.90
15:38:01.031250,1.95
15:38:01.046875,3.07
15:38:01.062500,4.21
15:38:01.078125,5.32
15:38:01.093750,6.32
15:38:01.109375,7.13
15:38:01.125000,7.70
15:38:01.140625,7.99
15:38:01.156250,7.99
15:38:01.171875,7.73
15:38:01.187500,7.25
15:38:01.203125,6.56
15:38:01.218750,5.69
15:38:01.234375,4.64
15:38:01.250000,3.49
15:38:01.265625,2.34
15:38:01.281250,1.32
15:38:01.296875,0.56
15:38:01.312500,0.08
15:38:01.328125,-0.18
15:38:01.343750,-0.34
15:38:01.359375,-0.52
15:38:01.375000,-0.78
15:38:01.390625,-1.13
15:38:01.406250,-1.53
15:38:01.421875,-1.94
15:38:01.437500,-2.40
15:38:01.453125,-2.94
15:38:01.468750,-3.60
15:38:01.484375,-4.35
15:38:01.500000,-5.11
15:38:01.515625,-5.74
15:38:01.531250,-6.14
15:38:01.546875,-6.26
15:38:01.562500,-6.13
15:38:01.578125,-5.85
15:38:01.593750,-5.53
15:38:01.609375,-5.21
15:38:01.625000,-4.89
15:38:01.640625,-4.45
15:38:01.656250,-3.76
15:38:01.671875,-2.75
15:38:01.687500,-1.45
15:38:01.703125,-0.00
15:38:01.718750,1.37
15:38:01.734375,2.48
15:38:01.750000,3.21
15:38:01.765625,3.60
15:38:01.781250,3.79
15:38:01.796875,3.97
15:38:01.812500,4.27
15:38:01.828125,4.74
15:38:01.843750,5.29
15:38:01.859375,5.79
15:38:01.875000,6.10
15:38:01.890625,6.17
15:38:01.906250,6.00
15:38:01.921875,5.68
15:38:01.937500,5.29
15:38:01.953125,4.85
15:38:01.968750,4.35
15:38:01.984375,3.76
15:38:02,3.08
15:38:02.015625,2.37
15:38:02.031250,1.75
15:38:02.046875,1.31
15:38:02.062500,1.11
15:38:02.078125,1.05
15:38:02.093750,0.99
15:38:02.109375,0.75
15:38:02.125000,0.24
15:38:02.140625,-0.52
15:38:02.156250,-1.43
15:38:02.171875,-2.35
15:38:02.187500,-3.14
15:38:02.203125,-3.73
15:38:02.218750,-4.09
15:38:02.234375,-4.22
15:38:02.250000,-4.14
15:38:02.265625,-3.89
15:38:02.281250,-3.52
15:38:02.296875,-3.12
15:38:02.312500,-2.73
15:38:02.328125,-2.37
15:38:02.343750,-2.05
15:38:02.359375,-1.68
15:38:02.375000,-1.21
15:38:02.390625,-0.61
15:38:02.406250,0.10
15:38:02.421875,0.83
15:38:02.437500,1.44
15:38:02.453125,1.79
15:38:02.468750,1.74
15:38:02.484375,1.31
15:38:02.500000,0.57
15:38:02.515625,-0.31
15:38:02.531250,-1.13
15:38:02.546875,-1.77
15:38:02.562500,-2.15
15:38:02.578125,-2.31
15:38:02.593750,-2.29
15:38:02.609375,-2.21
15:38:02.625000,-2.18
15:38:02.640625,-2.29
15:38:02.656250,-2.58
15:38:02.671875,-3.04
15:38:02.687500,-3.52
15:38:02.703125,-3.86
15:38:02.718750,-3.89
15:38:02.734375,-3.54
15:38:02.750000,-2.87
15:38:02.765625,-1.99
15:38:02.781250,-1.04
15:38:02.796875,-0.13
15:38:02.812500,0.69
15:38:02.828125,1.36
15:38:02.843750,1.78
15:38:02.859375,1.88
15:38:02.875000,1.66
15:38:02.890625,1.22
15:38:02.906250,0.73
15:38:02.921875,0.43
15:38:02.937500,0.42
15:38:02.953125,0.70
15:38:02.968750,1.17
15:38:02.984375,1.69
15:38:03,2.17
15:38:03.015625,2.62
15:38:03.031250,3.04
15:38:03.046875,3.45
15:38:03.062500,3.77
15:38:03.078125,3.95
15:38:03.093750,3.91
15:38:03.109375,3.67
15:38:03.125000,3.30
15:38:03.140625,2.91
15:38:03.156250,2.58
15:38:03.171875,2.36
15:38:03.187500,2.20
15:38:03.203125,2.04
15:38:03.218750,1.82
15:38:03.234375,1.52
15:38:03.250000,1.14
15:38:03.265625,0.73
15:38:03.281250,0.30
15:38:03.296875,-0.14
15:38:03.312500,-0.60
15:38:03.328125,-1.07
15:38:03.343750,-1.50
15:38:03.359375,-1.86
15:38:03.375000,-2.11
15:38:03.390625,-2.23
15:38:03.406250,-2.25
15:38:03.421875,-2.21
15:38:03.437500,-2.19
15:38:03.453125,-2.25
15:38:03.468750,-2.44
15:38:03.484375,-2.77
15:38:03.500000,-3.21
15:38:03.515625,-3.69
15:38:03.531250,-4.12
15:38:03.546875,-4.41
15:38:03.562500,-4.58
15:38:03.578125,-4.72
15:38:03.593750,-4.96
15:38:03.609375,-5.41
15:38:03.625000,-6.02
15:38:03.640625,-6.62
15:38:03.656250,-6.93
15:38:03.671875,-6.70
15:38:03.687500,-5.81
15:38:03.703125,-4.33
15:38:03.718750,-2.48
15:38:03.734375,-0.55
15:38:03.750000,1.23
15:38:03.765625,2.71
15:38:03.781250,3.87
15:38:03.796875,4.76
15:38:03.812500,5.44
15:38:03.828125,5.98
15:38:03.843750,6.38
15:38:03.859375,6.66
15:38:03.875000,6.81
15:38:03.890625,6.87
15:38:03.906250,6.85
15:38:03.921875,6.72
15:38:03.937500,6.41
15:38:03.953125,5.85
15:38:03.968750,5.03
15:38:03.984375,4.02
15:38:04,2.99
15:38:04.015625,2.15
15:38:04.031250,1.66
15:38:04.046875,1.55
15:38:04.062500,1.74
15:38:04.078125,2.10
15:38:04.093750,2.58
15:38:04.109375,3.13
15:38:04.125000,3.71
15:38:04.140625,4.23
15:38:04.156250,4.53
15:38:04.171875,4.35
15:38:04.187500,3.45
15:38:04.203125,1.78
15:38:04.218750,-0.43
15:38:04.234375,-2.69
15:38:04.250000,-4.40
15:38:04.265625,-5.05
15:38:04.281250,-4.41
15:38:04.296875,-2.63
15:38:04.312500,-0.27
15:38:04.328125,1.87
15:38:04.343750,3.18
15:38:04.359375,3.44
15:38:04.375000,3.08
15:38:04.390625,2.87
15:38:04.406250,3.61
15:38:04.421875,5.80
15:38:04.437500,9.30
15:38:04.453125,13.16
15:38:04.468750,15.99
15:38:04.484375,16.69
15:38:04.500000,15.03
15:38:04.515625,12.00
15:38:04.531250,9.15
15:38:04.546875,8.07
15:38:04.562500,9.69
15:38:04.578125,13.86
15:38:04.593750,19.05
15:38:04.609375,22.96
15:38:04.625000,23.85
15:38:04.640625,21.31
15:38:04.656250,16.73
15:38:04.671875,12.01
15:38:04.687500,9.01
15:38:04.703125,9.05
15:38:04.718750,12.68
15:38:04.734375,19.39
15:38:04.750000,27.59
15:38:04.765625,35.27
15:38:04.781250,39.84
15:38:04.796875,38.60
15:38:04.812500,28.48
15:38:04.828125,8.10
15:38:04.843750,-20.04
15:38:04.859375,-49.17
15:38:04.875000,-70.85
15:38:04.890625,-78.95
15:38:04.906250,-72.14
15:38:04.921875,-55.27
15:38:04.937500,-37.15
15:38:04.953125,-28.10
15:38:04.968750,-35.76
15:38:04.984375,-61.99
15:38:05,-100.42
15:38:05.015625,-140.48
15:38:05.031250,-174.11
15:38:05.046875,-197.50
15:38:05.062500,-213.29
15:38:05.078125,-218.45
15:38:05.093750,-207.64
15:38:05.109375,-176.88
15:38:05.125000,-126.32
15:38:05.140625,-60.94
15:38:05.156250,11.27
15:38:05.171875,77.92
15:38:05.187500,128.36
15:38:05.203125,156.98
15:38:05.218750,164.76
15:38:05.234375,156.70
15:38:05.250000,139.68
15:38:05.265625,120.27
15:38:05.281250,102.58
15:38:05.296875,87.04
15:38:05.312500,70.91
15:38:05.328125,51.52
15:38:05.343750,28.51
15:38:05.359375,5.34
15:38:05.375000,-12.91
15:38:05.390625,-21.91
15:38:05.406250,-20.04
15:38:05.421875,-9.47
15:38:05.437500,4.77
15:38:05.453125,16.99
15:38:05.468750,24.08
15:38:05.484375,26.23
15:38:05.500000,26.17
15:38:05.515625,26.40
15:38:05.531250,27.68
15:38:05.546875,29.12
15:38:05.562500,29.16
15:38:05.578125,26.88
15:38:05.593750,22.66
15:38:05.609375,18.39
15:38:05.625000,16.43
15:38:05.640625,18.45
15:38:05.656250,24.45
15:38:05.671875,32.90
15:38:05.687500,41.56
15:38:05.703125,48.38
15:38:05.718750,52.06
15:38:05.734375,52.21
15:38:05.750000,49.44
15:38:05.765625,44.85
15:38:05.781250,39.68
15:38:05.796875,34.70
15:38:05.812500,30.10
15:38:05.828125,25.68
15:38:05.843750,21.14
15:38:05.859375,16.52
15:38:05.875000,12.23
15:38:05.890625,9.02
15:38:05.906250,7.45
15:38:05.921875,7.56
15:38:05.937500,8.76
15:38:05.953125,10.13
15:38:05.968750,10.83
15:38:05.984375,10.51
15:38:06,9.45
15:38:06.015625,8.28
15:38:06.031250,7.65
15:38:06.046875,7.91
15:38:06.062500,9.02
15:38:06.078125,10.59
15:38:06.093750,12.15
15:38:06.109375,13.37
15:38:06.125000,14.16
15:38:06.140625,14.61
15:38:06.156250,14.91
15:38:06.171875,15.23
15:38:06.187500,15.72
15:38:06.203125,16.46
15:38:06.218750,17.60
15:38:06.234375,19.15
15:38:06.250000,20.92
15:38:06.265625,22.52
15:38:06.281250,23.48
15:38:06.296875,23.58
15:38:06.312500,23.26
15:38:06.328125,23.74
15:38:06.343750,26.57
15:38:06.359375,32.96
15:38:06.375000,42.65
15:38:06.390625,53.40
15:38:06.406250,61.25
15:38:06.421875,61.45
15:38:06.437500,49.73
15:38:06.453125,23.14
15:38:06.468750,-19.12
15:38:06.484375,-75.23
15:38:06.500000,-140.24
15:38:06.515625,-206.08
15:38:06.531250,-262.57
15:38:06.546875,-299.54
15:38:06.562500,-309.54
15:38:06.578125,-289.84
15:38:06.593750,-243.11
15:38:06.609375,-176.32
15:38:06.625000,-98.79
15:38:06.640625,-20.28
15:38:06.656250,50.13
15:38:06.671875,104.78
15:38:06.687500,138.10
15:38:06.703125,147.75
15:38:06.718750,135.66
15:38:06.734375,108.12
15:38:06.750000,74.28
15:38:06.765625,43.37
15:38:06.781250,21.91
15:38:06.796875,12.10
15:38:06.812500,12.28
15:38:06.828125,18.69
15:38:06.843750,27.29
15:38:06.859375,35.21
15:38:06.875000,40.94
15:38:06.890625,43.90
15:38:06.906250,43.93
15:38:06.921875,41.10
15:38:06.937500,35.72
15:38:06.953125,28.52
15:38:06.968750,20.61
15:38:06.984375,13.33
15:38:07,7.87
15:38:07.015625,4.92
15:38:07.031250,4.45
15:38:07.046875,5.73
15:38:07.062500,7.71
15:38:07.078125,9.39
15:38:07.093750,10.20
15:38:07.109375,10.12
15:38:07.125000,9.46
15:38:07.140625,8.63
15:38:07.156250,7.89
15:38:07.171875,7.21
15:38:07.187500,6.39
15:38:07.203125,5.26
15:38:07.218750,3.84
15:38:07.234375,2.31
15:38:07.250000,0.94
15:38:07.265625,-0.11
15:38:07.281250,-0.86
15:38:07.296875,-1.51
15:38:07.312500,-2.32
15:38:07.328125,-3.51
15:38:07.343750,-5.11
15:38:07.359375,-7.01
15:38:07.375000,-9.04
15:38:07.390625,-10.98
15:38:07.406250,-12.70
15:38:07.421875,-14.16
15:38:07.437500,-15.38
15:38:07.453125,-16.41
15:38:07.468750,-17.29
15:38:07.484375,-18.02
15:38:07.500000,-18.57
15:38:07.515625,-18.84
15:38:07.531250,-18.73
15:38:07.546875,-18.20
15:38:07.562500,-17.30
15:38:07.578125,-16.16
15:38:07.593750,-14.99
15:38:07.609375,-13.96
15:38:07.625000,-13.18
15:38:07.640625,-12.64
15:38:07.656250,-12.28
15:38:07.671875,-12.04
15:38:07.687500,-11.89
15:38:07.703125,-11.82
15:38:07.718750,-11.78
15:38:07.734375,-11.66
15:38:07.750000,-11.27
15:38:07.765625,-10.47
15:38:07.781250,-9.25
15:38:07.796875,-7.77
15:38:07.812500,-6.34
15:38:07.828125,-5.15
15:38:07.843750,-4.26
15:38:07.859375,-3.49
15:38:07.875000,-2.58
15:38:07.890625,-1.45
15:38:07.906250,-0.24
15:38:07.921875,0.62
15:38:07.937500,0.68
15:38:07.953125,-0.30
15:38:07.968750,-2.16
15:38:07.984375,-4.36
15:38:08,-6.18
15:38:08.015625,-7.09
15:38:08.031250,-6.91
15:38:08.046875,-5.87
15:38:08.062500,-4.38
15:38:08.078125,-2.81
15:38:08.093750,-1.33
15:38:08.109375,0.10
15:38:08.125000,1.54
15:38:08.140625,2.93
15:38:08.156250,4.05
15:38:08.171875,4.61
15:38:08.187500,4.45
15:38:08.203125,3.68
15:38:08.218750,2.65
15:38:08.234375,1.80
15:38:08.250000,1.43
15:38:08.265625,1.60
15:38:08.281250,2.10
15:38:08.296875,2.66
15:38:08.312500,3.05
15:38:08.328125,3.21
15:38:08.343750,3.21
15:38:08.359375,3.13
15:38:08.375000,2.95
15:38:08.390625,2.54
15:38:08.406250,1.72
15:38:08.421875,0.35
15:38:08.437500,-1.53
15:38:08.453125,-3.64
15:38:08.468750,-5.53
15:38:08.484375,-6.77
15:38:08.500000,-7.12
15:38:08.515625,-6.62
15:38:08.531250,-5.58
15:38:08.546875,-4.39
15:38:08.562500,-3.38
15:38:08.578125,-2.67
15:38:08.593750,-2.22
15:38:08.609375,-1.92
15:38:08.625000,-1.72
15:38:08.640625,-1.64
15:38:08.656250,-1.74
15:38:08.671875,-2.02
15:38:08.687500,-2.36
15:38:08.703125,-2.51
15:38:08.718750,-2.23
15:38:08.734375,-1.39
15:38:08.750000,-0.09
15:38:08.765625,1.40
15:38:08.781250,2.72
15:38:08.796875,3.58
15:38:08.812500,3.85
15:38:08.828125,3.57
15:38:08.843750,2.93
15:38:08.859375,2.13
15:38:08.875000,1.29
15:38:08.890625,0.48
15:38:08.906250,-0.29
15:38:08.921875,-0.99
15:38:08.937500,-1.58
15:38:08.953125,-1.94
15:38:08.968750,-2.03
15:38:08.984375,-1.85
15:38:09,-1.50
15:38:09.015625,-1.10
15:38:09.031250,-0.83
15:38:09.046875,-0.82
15:38:09.062500,-1.15
15:38:09.078125,-1.85
15:38:09.093750,-2.85
15:38:09.109375,-3.97
15:38:09.125000,-5.03
15:38:09.140625,-5.86
15:38:09.156250,-6.42
15:38:09.171875,-6.82
15:38:09.187500,-7.20
15:38:09.203125,-7.69
15:38:09.218750,-8.24
15:38:09.234375,-8.67
15:38:09.250000,-8.75
15:38:09.265625,-8.34
15:38:09.281250,-7.47
15:38:09.296875,-6.31
15:38:09.312500,-5.06
15:38:09.328125,-3.84
15:38:09.343750,-2.62
15:38:09.359375,-1.32
15:38:09.375000,0.12
15:38:09.390625,1.65
15:38:09.406250,3.07
15:38:09.421875,4.14
15:38:09.437500,4.68
15:38:09.453125,4.64
15:38:09.468750,4.11
15:38:09.484375,3.25
15:38:09.500000,2.28
15:38:09.515625,1.42
15:38:09.531250,0.90
15:38:09.546875,0.92
15:38:09.562500,1.63
15:38:09.578125,3.01
15:38:09.593750,4.90
15:38:09.609375,6.94
15:38:09.625000,8.73
15:38:09.640625,9.95
15:38:09.656250,10.47
15:38:09.671875,10.37
15:38:09.687500,9.88
15:38:09.703125,9.25
15:38:09.718750,8.62
15:38:09.734375,7.98
15:38:09.750000,7.22
15:38:09.765625,6.27
15:38:09.781250,5.12
15:38:09.796875,3.94
15:38:09.812500,2.94
15:38:09.828125,2.33
15:38:09.843750,2.20
15:38:09.859375,2.42
15:38:09.875000,2.71
15:38:09.890625,2.76
15:38:09.906250,2.28
15:38:09.921875,1.20
15:38:09.937500,-0.40
15:38:09.953125,-2.23
15:38:09.968750,-3.96
15:38:09.984375,-5.30
15:38:10,-6.03
15:38:10.015625,-6.08
15:38:10.031250,-5.47
15:38:10.046875,-4.28
15:38:10.062500,-2.63
15:38:10.078125,-0.72
15:38:10.093750,1.20
15:38:10.109375,2.89
15:38:10.125000,4.14
15:38:10.140625,4.85
15:38:10.156250,5.09
15:38:10.171875,5.02
15:38:10.187500,4.84
15:38:10.203125,4.71
15:38:10.218750,4.64
15:38:10.234375,4.60
15:38:10.250000,4.55
15:38:10.265625,4.50
15:38:10.281250,4.58
15:38:10.296875,4.93
15:38:10.312500,5.57
15:38:10.328125,6.37
15:38:10.343750,7.02
15:38:10.359375,7.22
15:38:10.375000,6.76
15:38:10.390625,5.71
15:38:10.406250,4.31
15:38:10.421875,2.94
15:38:10.437500,1.87
15:38:10.453125,1.24
15:38:10.468750,1.03
15:38:10.484375,1.12
15:38:10.500000,1.38
15:38:10.515625,1.74
15:38:10.531250,2.16
15:38:10.546875,2.55
15:38:10.562500,2.82
15:38:10.578125,2.78
15:38:10.593750,2.30
15:38:10.609375,1.32
15:38:10.625000,-0.10
15:38:10.640625,-1.75
15:38:10.656250,-3.40
15:38:10.671875,-4.86
15:38:10.687500,-6.03
15:38:10.703125,-6.90
15:38:10.718750,-7.50
15:38:10.734375,-7.85
15:38:10.750000,-7.95
15:38:10.765625,-7.74
15:38:10.781250,-7.25
15:38:10.796875,-6.56
15:38:10.812500,-5.82
15:38:10.828125,-5.15
15:38:10.843750,-4.60
15:38:10.859375,-4.12
15:38:10.875000,-3.59
15:38:10.890625,-2.85
15:38:10.906250,-1.84
15:38:10.921875,-0.61
15:38:10.937500,0.73
15:38:10.953125,2.01
15:38:10.968750,3.08
15:38:10.984375,3.89
15:38:11,4.43
15:38:11.015625,4.80
15:38:11.031250,5.11
15:38:11.046875,5.50
15:38:11.062500,6.04
15:38:11.078125,6.67
15:38:11.093750,7.28
15:38:11.109375,7.69
15:38:11.125000,7.79
15:38:11.140625,7.56
15:38:11.156250,7.08
15:38:11.171875,6.47
15:38:11.187500,5.81
15:38:11.203125,5.16
15:38:11.218750,4.51
15:38:11.234375,3.89
15:38:11.250000,3.34
15:38:11.265625,2.89
15:38:11.281250,2.53
15:38:11.296875,2.22
15:38:11.312500,1.87
15:38:11.328125,1.44
15:38:11.343750,0.96
15:38:11.359375,0.48
15:38:11.375000,0.09
15:38:11.390625,-0.23
15:38:11.406250,-0.53
15:38:11.421875,-0.89
15:38:11.437500,-1.33
15:38:11.453125,-1.81
15:38:11.468750,-2.27
15:38:11.484375,-2.62
15:38:11.500000,-2.87
15:38:11.515625,-3.05
15:38:11.531250,-3.19
15:38:11.546875,-3.31
15:38:11.562500,-3.37
15:38:11.578125,-3.31
15:38:11.593750,-3.07
15:38:11.609375,-2.66
15:38:11.625000,-2.11
15:38:11.640625,-1.46
15:38:11.656250,-0.74
15:38:11.671875,0.09
15:38:11.687500,1.05
15:38:11.703125,2.10
15:38:11.718750,3.13
15:38:11.734375,3.95
15:38:11.750000,4.36
15:38:11.765625,4.28
15:38:11.781250,3.80
15:38:11.796875,3.09
15:38:11.812500,2.34
15:38:11.828125,1.66
15:38:11.843750,1.04
15:38:11.859375,0.42
15:38:11.875000,-0.20
15:38:11.890625,-0.70
15:38:11.906250,-0.90
15:38:11.921875,-0.70
15:38:11.937500,-0.16
15:38:11.953125,0.47
15:38:11.968750,0.90
15:38:11.984375,0.93
15:38:12,0.57
15:38:12.015625,0.02
15:38:12.031250,-0.51
15:38:12.046875,-0.90
15:38:12.062500,-1.20
15:38:12.078125,-1.58
15:38:12.093750,-2.15
15:38:12.109375,-2.88
15:38:12.125000,-3.60
15:38:12.140625,-4.09
15:38:12.156250,-4.23
15:38:12.171875,-4.12
15:38:12.187500,-4.02
15:38:12.203125,-4.19
15:38:12.218750,-4.79
15:38:12.234375,-5.72
15:38:12.250000,-6.70
15:38:12.265625,-7.34
15:38:12.281250,-7.36
15:38:12.296875,-6.67
15:38:12.312500,-5.39
15:38:12.328125,-3.76
15:38:12.343750,-2.02
15:38:12.359375,-0.34
15:38:12.375000,1.22
15:38:12.390625,2.64
15:38:12.406250,3.92
15:38:12.421875,5.03
15:38:12.437500,5.90
15:38:12.453125,6.47
15:38:12.468750,6.73
15:38:12.484375,6.70
15:38:12.500000,6.48
15:38:12.515625,6.14
15:38:12.531250,5.81
15:38:12.546875,5.58
15:38:12.562500,5.50
15:38:12.578125,5.58
15:38:12.593750,5.73
15:38:12.609375,5.80
15:38:12.625000,5.67
15:38:12.640625,5.31
15:38:12.656250,4.79
15:38:12.671875,4.25
15:38:12.687500,3.82
15:38:12.703125,3.58
15:38:12.718750,3.47
15:38:12.734375,3.37
15:38:12.750000,3.19
15:38:12.765625,2.88
15:38:12.781250,2.46
15:38:12.796875,1.96
15:38:12.812500,1.42
15:38:12.828125,0.85
15:38:12.843750,0.25
15:38:12.859375,-0.37
15:38:12.875000,-0.96
15:38:12.890625,-1.47
15:38:12.906250,-1.87
15:38:12.921875,-2.17
15:38:12.937500,-2.41
15:38:12.953125,-2.64
15:38:12.968750,-2.94
15:38:12.984375,-3.33
15:38:13,-3.86
15:38:13.015625,-4.51
15:38:13.031250,-5.23
15:38:13.046875,-5.94
15:38:13.062500,-6.47
15:38:13.078125,-6.68
15:38:13.093750,-6.46
15:38:13.109375,-5.79
15:38:13.125000,-4.75
15:38:13.140625,-3.51
15:38:13.156250,-2.25
15:38:13.171875,-1.12
15:38:13.187500,-0.19
15:38:13.203125,0.54
15:38:13.218750,1.10
15:38:13.234375,1.54
15:38:13.250000,1.89
15:38:13.265625,2.21
15:38:13.281250,2.51
15:38:13.296875,2.80
15:38:13.312500,3.05
15:38:13.328125,3.23
15:38:13.343750,3.34
15:38:13.359375,3.39
15:38:13.375000,3.42
15:38:13.390625,3.46
15:38:13.406250,3.47
15:38:13.421875,3.38
15:38:13.437500,3.12
15:38:13.453125,2.71
15:38:13.468750,2.24
15:38:13.484375,1.83
15:38:13.500000,1.60
15:38:13.515625,1.58
15:38:13.531250,1.73
15:38:13.546875,1.93
15:38:13.562500,2.09
15:38:13.578125,2.11
15:38:13.593750,1.92
15:38:13.609375,1.49
15:38:13.625000,0.80
15:38:13.640625,-0.08
15:38:13.656250,-1.08
15:38:13.671875,-2.08
15:38:13.687500,-2.99
15:38:13.703125,-3.76
15:38:13.718750,-4.39
15:38:13.734375,-4.87
15:38:13.750000,-5.16
15:38:13.765625,-5.18
15:38:13.781250,-4.89
15:38:13.796875,-4.37
15:38:13.812500,-3.81
15:38:13.828125,-3.52
15:38:13.843750,-3.76
15:38:13.859375,-4.63
15:38:13.875000,-6.04
15:38:13.890625,-7.68
15:38:13.906250,-9.20
15:38:13.921875,-10.24
15:38:13.937500,-10.59
15:38:13.953125,-10.16
15:38:13.968750,-9.00
15:38:13.984375,-7.24
15:38:14,-5.09
15:38:14.015625,-2.81
15:38:14.031250,-0.62
15:38:14.046875,1.29
15:38:14.062500,2.82
15:38:14.078125,3.97
15:38:14.093750,4.76
15:38:14.109375,5.25
15:38:14.125000,5.46
15:38:14.140625,5.42
15:38:14.156250,5.20
15:38:14.171875,4.88
15:38:14.187500,4.56
15:38:14.203125,4.28
15:38:14.218750,4.08
15:38:14.234375,3.91
15:38:14.250000,3.79
15:38:14.265625,3.70
15:38:14.281250,3.69
15:38:14.296875,3.75
15:38:14.312500,3.85
15:38:14.328125,3.91
15:38:14.343750,3.83
15:38:14.359375,3.57
15:38:14.375000,3.16
15:38:14.390625,2.70
15:38:14.406250,2.28
15:38:14.421875,1.95
15:38:14.437500,1.71
15:38:14.453125,1.51
15:38:14.468750,1.28
15:38:14.484375,1.00
15:38:14.500000,0.69
15:38:14.515625,0.38
15:38:14.531250,0.10
15:38:14.546875,-0.16
15:38:14.562500,-0.42
15:38:14.578125,-0.76
15:38:14.593750,-1.18
15:38:14.609375,-1.65
15:38:14.625000,-2.14
15:38:14.640625,-2.57
15:38:14.656250,-2.94
15:38:14.671875,-3.22
15:38:14.687500,-3.46
15:38:14.703125,-3.67
15:38:14.718750,-3.87
15:38:14.734375,-4.08
15:38:14.750000,-4.29
15:38:14.765625,-4.48
15:38:14.781250,-4.56
15:38:14.796875,-4.39
15:38:14.812500,-3.88
15:38:14.828125,-2.98
15:38:14.843750,-1.80
15:38:14.859375,-0.54
15:38:14.875000,0.56
15:38:14.890625,1.33
15:38:14.906250,1.74
15:38:14.921875,1.89
15:38:14.937500,1.88
15:38:14.953125,1.81
15:38:14.968750,1.67
15:38:14.984375,1.43
15:38:15,1.09
15:38:15.015625,0.71
15:38:15.031250,0.44
15:38:15.046875,0.41
15:38:15.062500,0.70
15:38:15.078125,1.30
15:38:15.093750,2.09
15:38:15.109375,2.95
15:38:15.125000,3.77
15:38:15.140625,4.46
15:38:15.156250,4.96
15:38:15.171875,5.23
15:38:15.187500,5.22
15:38:15.203125,4.91
15:38:15.218750,4.32
15:38:15.234375,3.55
15:38:15.250000,2.72
15:38:15.265625,1.96
15:38:15.281250,1.33
15:38:15.296875,0.81
15:38:15.312500,0.35
15:38:15.328125,-0.15
15:38:15.343750,-0.72
15:38:15.359375,-1.37
15:38:15.375000,-2.07
15:38:15.390625,-2.81
15:38:15.406250,-3.62
15:38:15.421875,-4.52
15:38:15.437500,-5.52
15:38:15.453125,-6.59
15:38:15.468750,-7.59
15:38:15.484375,-8.38
15:38:15.500000,-8.85
15:38:15.515625,-8.90
15:38:15.531250,-8.55
15:38:15.546875,-7.83
15:38:15.562500,-6.81
15:38:15.578125,-5.52
15:38:15.593750,-4.03
15:38:15.609375,-2.39
15:38:15.625000,-0.69
15:38:15.640625,0.98
15:38:15.656250,2.51
15:38:15.671875,3.80
15:38:15.687500,4.80
15:38:15.703125,5.51
15:38:15.718750,5.98
15:38:15.734375,6.34
15:38:15.750000,6.68
15:38:15.765625,7.08
15:38:15.781250,7.56
15:38:15.796875,8.05
15:38:15.812500,8.44
15:38:15.828125,8.60
15:38:15.843750,8.45
15:38:15.859375,7.99
15:38:15.875000,7.23
15:38:15.890625,6.24
15:38:15.906250,5.07
15:38:15.921875,3.82
15:38:15.937500,2.59
15:38:15.953125,1.49
15:38:15.968750,0.60
15:38:15.984375,-0.01
15:38:16,-0.35
15:38:16.015625,-0.49
15:38:16.031250,-0.52
15:38:16.046875,-0.59
15:38:16.062500,-0.79
15:38:16.078125,-1.18
15:38:16.093750,-1.77
15:38:16.109375,-2.56
15:38:16.125000,-3.47
15:38:16.140625,-4.40
15:38:16.156250,-5.22
15:38:16.171875,-5.78
15:38:16.187500,-6.00
15:38:16.203125,-5.85
15:38:16.218750,-5.45
15:38:16.234375,-4.95
15:38:16.250000,-4.53
15:38:16.265625,-4.33
15:38:16.281250,-4.46
15:38:16.296875,-4.93
15:38:16.312500,-5.72
15:38:16.328125,-6.76
15:38:16.343750,-7.95
15:38:16.359375,-9.10
15:38:16.375000,-9.98
15:38:16.390625,-10.37
15:38:16.406250,-10.08
15:38:16.421875,-9.08
15:38:16.437500,-7.49
15:38:16.453125,-5.52
15:38:16.468750,-3.46
15:38:16.484375,-1.53
15:38:16.500000,0.11
15:38:16.515625,1.40
15:38:16.531250,2.33
15:38:16.546875,2.92
15:38:16.562500,3.27
15:38:16.578125,3.48
15:38:16.593750,3.66
15:38:16.609375,3.93
15:38:16.625000,4.32
15:38:16.640625,4.80
15:38:16.656250,5.30
15:38:16.671875,5.75
15:38:16.687500,6.11
15:38:16.703125,6.43
15:38:16.718750,6.75
15:38:16.734375,7.08
15:38:16.750000,7.34
15:38:16.765625,7.38
15:38:16.781250,7.07
15:38:16.796875,6.36
15:38:16.812500,5.34
15:38:16.828125,4.20
15:38:16.843750,3.16
15:38:16.859375,2.38
15:38:16.875000,1.90
15:38:16.890625,1.68
15:38:16.906250,1.58
15:38:16.921875,1.48
15:38:16.937500,1.29
15:38:16.953125,0.94
15:38:16.968750,0.39
15:38:16.984375,-0.40
15:38:17,-1.42
15:38:17.015625,-2.63
15:38:17.031250,-3.90
15:38:17.046875,-5.07
15:38:17.062500,-5.98
15:38:17.078125,-6.52
15:38:17.093750,-6.66
15:38:17.109375,-6.44
15:38:17.125000,-5.94
15:38:17.140625,-5.25
15:38:17.156250,-4.47
15:38:17.171875,-3.64
15:38:17.187500,-2.81
15:38:17.203125,-2.04
15:38:17.218750,-1.35
15:38:17.234375,-0.77
15:38:17.250000,-0.29
15:38:17.265625,0.14
15:38:17.281250,0.53
15:38:17.296875,0.89
15:38:17.312500,1.20
15:38:17.328125,1.45
15:38:17.343750,1.67
15:38:17.359375,1.93
15:38:17.375000,2.31
15:38:17.390625,2.79
15:38:17.406250,3.32
15:38:17.421875,3.74
15:38:17.437500,3.93
15:38:17.453125,3.82
15:38:17.468750,3.44
15:38:17.484375,2.89
15:38:17.500000,2.30
15:38:17.515625,1.77
15:38:17.531250,1.39
15:38:17.546875,1.24
15:38:17.562500,1.33
15:38:17.578125,1.67
15:38:17.593750,2.20
15:38:17.609375,2.79
15:38:17.625000,3.30
15:38:17.640625,3.60
15:38:17.656250,3.64
15:38:17.671875,3.40
15:38:17.687500,2.86
15:38:17.703125,2.02
15:38:17.718750,0.92
15:38:17.734375,-0.33
15:38:17.750000,-1.52
15:38:17.765625,-2.44
15:38:17.781250,-2.94
15:38:17.796875,-3.03
15:38:17.812500,-2.83
15:38:17.828125,-2.48
15:38:17.843750,-2.15
15:38:17.859375,-1.92
15:38:17.875000,-1.85
15:38:17.890625,-1.99
15:38:17.906250,-2.40
15:38:17.921875,-3.09
15:38:17.937500,-3.93
15:38:17.953125,-4.70
15:38:17.968750,-5.10
15:38:17.984375,-4.93
15:38:18,-4.13
15:38:18.015625,-2.83
15:38:18.031250,-1.28
15:38:18.046875,0.29
15:38:18.062500,1.70
15:38:18.078125,2.86
15:38:18.093750,3.73
15:38:18.109375,4.28
15:38:18.125000,4.48
15:38:18.140625,4.30
15:38:18.156250,3.75
15:38:18.171875,2.90
15:38:18.187500,1.93
15:38:18.203125,1.04
15:38:18.218750,0.42
15:38:18.234375,0.21
15:38:18.250000,0.45
15:38:18.265625,1.06
15:38:18.281250,1.88
15:38:18.296875,2.72
15:38:18.312500,3.38
15:38:18.328125,3.75
15:38:18.343750,3.79
15:38:18.359375,3.51
15:38:18.375000,2.98
15:38:18.390625,2.30
15:38:18.406250,1.58
15:38:18.421875,0.96
15:38:18.437500,0.52
15:38:18.453125,0.32
15:38:18.468750,0.36
15:38:18.484375,0.56
15:38:18.500000,0.84
15:38:18.515625,1.08
15:38:18.531250,1.20
15:38:18.546875,1.11
15:38:18.562500,0.80
15:38:18.578125,0.27
15:38:18.593750,-0.41
15:38:18.609375,-1.19
15:38:18.625000,-2.01
15:38:18.640625,-2.85
15:38:18.656250,-3.72
15:38:18.671875,-4.62
15:38:18.687500,-5.54
15:38:18.703125,-6.40
15:38:18.718750,-7.09
15:38:18.734375,-7.48
15:38:18.750000,-7.48
15:38:18.765625,-7.06
15:38:18.781250,-6.25
15:38:18.796875,-5.11
15:38:18.812500,-3.76
15:38:18.828125,-2.34
15:38:18.843750,-0.98
15:38:18.859375,0.14
15:38:18.875000,0.94
15:38:18.890625,1.39
15:38:18.906250,1.56
15:38:18.921875,1.58
15:38:18.937500,1.55
15:38:18.953125,1.52
15:38:18.968750,1.50
15:38:18.984375,1.46
15:38:19,1.38
15:38:19.015625,1.32
15:38:19.031250,1.35
15:38:19.046875,1.54
15:38:19.062500,1.88
15:38:19.078125,2.29
15:38:19.093750,2.65
15:38:19.109375,2.86
15:38:19.125000,2.90
15:38:19.140625,2.80
15:38:19.156250,2.65
15:38:19.171875,2.53
15:38:19.187500,2.46
15:38:19.203125,2.44
15:38:19.218750,2.46
15:38:19.234375,2.50
15:38:19.250000,2.56
15:38:19.265625,2.61
15:38:19.281250,2.57
15:38:19.296875,2.41
15:38:19.312500,2.09
15:38:19.328125,1.67
15:38:19.343750,1.22
15:38:19.359375,0.84
15:38:19.375000,0.59
15:38:19.390625,0.43
15:38:19.406250,0.31
15:38:19.421875,0.18
15:38:19.437500,0.02
15:38:19.453125,-0.18
15:38:19.468750,-0.40
15:38:19.484375,-0.69
15:38:19.500000,-1.12
15:38:19.515625,-1.77
15:38:19.531250,-2.66
15:38:19.546875,-3.67
15:38:19.562500,-4.62
15:38:19.578125,-5.27
15:38:19.593750,-5.41
15:38:19.609375,-4.98
15:38:19.625000,-4.08
15:38:19.640625,-2.88
15:38:19.656250,-1.62
15:38:19.671875,-0.46
15:38:19.687500,0.53
15:38:19.703125,1.36
15:38:19.718750,2.07
15:38:19.734375,2.70
15:38:19.750000,3.26
15:38:19.765625,3.73
15:38:19.781250,4.11
15:38:19.796875,4.39
15:38:19.812500,4.58
15:38:19.828125,4.66
15:38:19.843750,4.59
15:38:19.859375,4.30
15:38:19.875000,3.72
15:38:19.890625,2.88
15:38:19.906250,1.87
15:38:19.921875,0.89
15:38:19.937500,0.13
15:38:19.953125,-0.29
15:38:19.968750,-0.36
15:38:19.984375,-0.17
15:38:20,0.14
15:38:20.015625,0.42
15:38:20.031250,0.63
15:38:20.046875,0.73
15:38:20.062500,0.73
15:38:20.078125,0.60
15:38:20.093750,0.29
15:38:20.109375,-0.24
15:38:20.125000,-0.94
15:38:20.140625,-1.71
15:38:20.156250,-2.40
15:38:20.171875,-2.94
15:38:20.187500,-3.35
15:38:20.203125,-3.76
15:38:20.218750,-4.31
15:38:20.234375,-5.06
15:38:20.250000,-5.96
15:38:20.265625,-6.86
15:38:20.281250,-7.58
15:38:20.296875,-8.01
15:38:20.312500,-8.09
15:38:20.328125,-7.87
15:38:20.343750,-7.39
15:38:20.359375,-6.74
15:38:20.375000,-5.96
15:38:20.390625,-5.09
15:38:20.406250,-4.15
15:38:20.421875,-3.15
15:38:20.437500,-2.10
15:38:20.453125,-0.95
15:38:20.468750,0.29
15:38:20.484375,1.53
15:38:20.500000,2.62
15:38:20.515625,3.37
15:38:20.531250,3.65
15:38:20.546875,3.46
15:38:20.562500,2.93
15:38:20.578125,2.30
15:38:20.593750,1.81
15:38:20.609375,1.59
15:38:20.625000,1.66
15:38:20.640625,1.94
15:38:20.656250,2.32
15:38:20.671875,2.67
15:38:20.687500,2.93
15:38:20.703125,3.05
15:38:20.718750,3.05
15:38:20.734375,2.93
15:38:20.750000,2.74
15:38:20.765625,2.46
15:38:20.781250,2.10
15:38:20.796875,1.66
15:38:20.812500,1.15
15:38:20.828125,0.65
15:38:20.843750,0.19
15:38:20.859375,-0.21
15:38:20.875000,-0.59
15:38:20.890625,-1.04
15:38:20.906250,-1.62
15:38:20.921875,-2.35
15:38:20.937500,-3.11
15:38:20.953125,-3.71
15:38:20.968750,-4.04
15:38:20.984375,-4.09
15:38:21,-4.03
15:38:21.015625,-4.10
15:38:21.031250,-4.53
15:38:21.046875,-5.35
15:38:21.062500,-6.43
15:38:21.078125,-7.48
15:38:21.093750,-8.19
15:38:21.109375,-8.36
15:38:21.125000,-7.90
15:38:21.140625,-6.86
15:38:21.156250,-5.37
15:38:21.171875,-3.60
15:38:21.187500,-1.69
15:38:21.203125,0.22
15:38:21.218750,2.02
15:38:21.234375,3.64
15:38:21.250000,5.04
15:38:21.265625,6.23
15:38:21.281250,7.23
15:38:21.296875,7.98
15:38:21.312500,8.43
15:38:21.328125,8.48
15:38:21.343750,8.10
15:38:21.359375,7.39
15:38:21.375000,6.51
15:38:21.390625,5.67
15:38:21.406250,4.99
15:38:21.421875,4.50
15:38:21.437500,4.11
15:38:21.453125,3.73
15:38:21.468750,3.34
15:38:21.484375,3.01
15:38:21.500000,2.82
15:38:21.515625,2.83
15:38:21.531250,2.98
15:38:21.546875,3.17
15:38:21.562500,3.25
15:38:21.578125,3.12
15:38:21.593750,2.77
15:38:21.609375,2.24
15:38:21.625000,1.61
15:38:21.640625,0.97
15:38:21.656250,0.37
15:38:21.671875,-0.12
15:38:21.687500,-0.48
15:38:21.703125,-0.71
15:38:21.718750,-0.83
15:38:21.734375,-0.86
15:38:21.750000,-0.78
15:38:21.765625,-0.57
15:38:21.781250,-0.27
15:38:21.796875,0.02
15:38:21.812500,0.11
15:38:21.828125,-0.21
15:38:21.843750,-1.03
15:38:21.859375,-2.28
15:38:21.875000,-3.72
15:38:21.890625,-5.03
15:38:21.906250,-5.95
15:38:21.921875,-6.38
15:38:21.937500,-6.37
15:38:21.953125,-6.05
15:38:21.968750,-5.50
15:38:21.984375,-4.76
15:38:22,-3.81
15:38:22.015625,-2.62
15:38:22.031250,-1.21
15:38:22.046875,0.31
15:38:22.062500,1.78
15:38:22.078125,3.05
15:38:22.093750,3.99
15:38:22.109375,4.58
15:38:22.125000,4.87
15:38:22.140625,4.95
15:38:22.156250,4.92
15:38:22.171875,4.82
15:38:22.187500,4.67
15:38:22.203125,4.47
15:38:22.218750,4.22
15:38:22.234375,3.95
15:38:22.250000,3.69
15:38:22.265625,3.44
15:38:22.281250,3.20
15:38:22.296875,2.89
15:38:22.312500,2.52
15:38:22.328125,2.10
15:38:22.343750,1.71
15:38:22.359375,1.47
15:38:22.375000,1.43
15:38:22.390625,1.59
15:38:22.406250,1.85
15:38:22.421875,2.08
15:38:22.437500,2.13
15:38:22.453125,1.92
15:38:22.468750,1.44
15:38:22.484375,0.79
15:38:22.500000,0.08
15:38:22.515625,-0.56
15:38:22.531250,-1.07
15:38:22.546875,-1.47
15:38:22.562500,-1.79
15:38:22.578125,-2.09
15:38:22.593750,-2.38
15:38:22.609375,-2.62
15:38:22.625000,-2.85
15:38:22.640625,-3.11
15:38:22.656250,-3.53
15:38:22.671875,-4.22
15:38:22.687500,-5.15
15:38:22.703125,-6.18
15:38:22.718750,-7.01
15:38:22.734375,-7.38
15:38:22.750000,-7.14
15:38:22.765625,-6.31
15:38:22.781250,-5.10
15:38:22.796875,-3.74
15:38:22.812500,-2.45
15:38:22.828125,-1.29
15:38:22.843750,-0.24
15:38:22.859375,0.75
15:38:22.875000,1.69
15:38:22.890625,2.50
15:38:22.906250,3.09
15:38:22.921875,3.38
15:38:22.937500,3.39
15:38:22.953125,3.17
15:38:22.968750,2.84
15:38:22.984375,2.53
15:38:23,2.30
15:38:23.015625,2.19
15:38:23.031250,2.16
15:38:23.046875,2.16
15:38:23.062500,2.16
15:38:23.078125,2.13
15:38:23.093750,2.09
15:38:23.109375,2.11
15:38:23.125000,2.25
15:38:23.140625,2.54
15:38:23.156250,3.00
15:38:23.171875,3.55
15:38:23.187500,4.12
15:38:23.203125,4.62
15:38:23.218750,5.01
15:38:23.234375,5.26
15:38:23.250000,5.40
15:38:23.265625,5.42
15:38:23.281250,5.32
15:38:23.296875,5.09
15:38:23.312500,4.76
15:38:23.328125,4.35
15:38:23.343750,3.88
15:38:23.359375,3.39
15:38:23.375000,2.82
15:38:23.390625,2.16
15:38:23.406250,1.34
15:38:23.421875,0.37
15:38:23.437500,-0.72
15:38:23.453125,-1.86
15:38:23.468750,-2.99
15:38:23.484375,-4.05
15:38:23.500000,-5.02
15:38:23.515625,-5.83
15:38:23.531250,-6.41
15:38:23.546875,-6.65
15:38:23.562500,-6.46
15:38:23.578125,-5.86
15:38:23.593750,-4.91
15:38:23.609375,-3.75
15:38:23.625000,-2.45
15:38:23.640625,-1.07
15:38:23.656250,0.37
15:38:23.671875,1.80
15:38:23.687500,3.04
15:38:23.703125,3.92
15:38:23.718750,4.34
15:38:23.734375,4.39
15:38:23.750000,4.29
15:38:23.765625,4.33
15:38:23.781250,4.67
15:38:23.796875,5.31
15:38:23.812500,6.06
15:38:23.828125,6.72
15:38:23.843750,7.14
15:38:23.859375,7.28
15:38:23.875000,7.14
15:38:23.890625,6.74
15:38:23.906250,6.04
15:38:23.921875,5.03
15:38:23.937500,3.74
15:38:23.953125,2.28
15:38:23.968750,0.84
15:38:23.984375,-0.45
15:38:24,-1.48
15:38:24.015625,-2.27
15:38:24.031250,-2.90
15:38:24.046875,-3.42
15:38:24.062500,-3.91
15:38:24.078125,-4.36
15:38:24.093750,-4.75
15:38:24.109375,-5.04
15:38:24.125000,-5.23
15:38:24.140625,-5.37
15:38:24.156250,-5.56
15:38:24.171875,-5.90
15:38:24.187500,-6.51
15:38:24.203125,-7.36
15:38:24.218750,-8.36
15:38:24.234375,-9.29
15:38:24.250000,-9.98
15:38:24.265625,-10.37
15:38:24.281250,-10.49
15:38:24.296875,-10.49
15:38:24.312500,-10.48
15:38:24.328125,-10.44
15:38:24.343750,-10.25
15:38:24.359375,-9.79
15:38:24.375000,-8.98
15:38:24.390625,-7.93
15:38:24.406250,-6.80
15:38:24.421875,-5.78
15:38:24.437500,-4.95
15:38:24.453125,-4.25
15:38:24.468750,-3.54
15:38:24.484375,-2.72
15:38:24.500000,-1.79
15:38:24.515625,-0.88
15:38:24.531250,-0.21
15:38:24.546875,0.08
15:38:24.562500,-0.07
15:38:24.578125,-0.53
15:38:24.593750,-1.10
15:38:24.609375,-1.57
15:38:24.625000,-1.83
15:38:24.640625,-1.88
15:38:24.656250,-1.83
15:38:24.671875,-1.80
15:38:24.687500,-1.89
15:38:24.703125,-2.12
15:38:24.718750,-2.34
15:38:24.734375,-2.32
15:38:24.750000,-1.83
15:38:24.765625,-0.72
15:38:24.781250,0.94
15:38:24.796875,2.86
15:38:24.812500,4.60
15:38:24.828125,5.73
15:38:24.843750,5.98
15:38:24.859375,5.39
15:38:24.875000,4.29
15:38:24.890625,3.10
15:38:24.906250,2.24
15:38:24.921875,1.86
15:38:24.937500,1.93
15:38:24.953125,2.21
15:38:24.968750,2.46
15:38:24.984375,2.48
15:38:25,2.24
15:38:25.015625,1.77
15:38:25.031250,1.22
15:38:25.046875,0.72
15:38:25.062500,0.34
15:38:25.078125,0.02
15:38:25.093750,-0.34
15:38:25.109375,-0.87
15:38:25.125000,-1.59
15:38:25.140625,-2.30
15:38:25.156250,-2.76
15:38:25.171875,-2.70
15:38:25.187500,-2.09
15:38:25.203125,-1.10
15:38:25.218750,-0.05
15:38:25.234375,0.78
15:38:25.250000,1.28
15:38:25.265625,1.57
15:38:25.281250,1.83
15:38:25.296875,2.17
15:38:25.312500,2.54
15:38:25.328125,2.75
15:38:25.343750,2.67
15:38:25.359375,2.32
15:38:25.375000,1.92
15:38:25.390625,1.79
15:38:25.406250,2.20
15:38:25.421875,3.17
15:38:25.437500,4.52
15:38:25.453125,5.90
15:38:25.468750,6.94
15:38:25.484375,7.37
15:38:25.500000,7.09
15:38:25.515625,6.16
15:38:25.531250,4.81
15:38:25.546875,3.30
15:38:25.562500,1.90
15:38:25.578125,0.80
15:38:25.593750,0.04
15:38:25.609375,-0.40
15:38:25.625000,-0.63
15:38:25.640625,-0.70
15:38:25.656250,-0.63
15:38:25.671875,-0.41
15:38:25.687500,-0.02
15:38:25.703125,0.48
15:38:25.718750,0.95
15:38:25.734375,1.24
15:38:25.750000,1.26
15:38:25.765625,0.99
15:38:25.781250,0.47
15:38:25.796875,-0.22
15:38:25.812500,-1.04
15:38:25.828125,-1.96
15:38:25.843750,-2.99
15:38:25.859375,-4.08
15:38:25.875000,-5.17
15:38:25.890625,-6.16
15:38:25.906250,-6.94
15:38:25.921875,-7.41
15:38:25.937500,-7.42
15:38:25.953125,-6.84
15:38:25.968750,-5.58
15:38:25.984375,-3.69
15:38:26,-1.33
15:38:26.015625,1.19
15:38:26.031250,3.55
15:38:26.046875,5.49
15:38:26.062500,6.81
15:38:26.078125,7.42
15:38:26.093750,7.31
15:38:26.109375,6.54
15:38:26.125000,5.28
15:38:26.140625,3.81
15:38:26.156250,2.44
15:38:26.171875,1.49
15:38:26.187500,1.11
15:38:26.203125,1.27
15:38:26.218750,1.76
15:38:26.234375,2.32
15:38:26.250000,2.74
15:38:26.265625,2.93
15:38:26.281250,2.87
15:38:26.296875,2.58
15:38:26.312500,2.03
15:38:26.328125,1.19
15:38:26.343750,0.02
15:38:26.359375,-1.43
15:38:26.375000,-2.99
15:38:26.390625,-4.43
15:38:26.406250,-5.51
15:38:26.421875,-6.13
15:38:26.437500,-6.34
15:38:26.453125,-6.33
15:38:26.468750,-6.31
15:38:26.484375,-6.38
15:38:26.500000,-6.49
15:38:26.515625,-6.46
15:38:26.531250,-6.12
15:38:26.546875,-5.48
15:38:26.562500,-4.65
15:38:26.578125,-3.86
15:38:26.593750,-3.19
15:38:26.609375,-2.59
15:38:26.625000,-1.90
15:38:26.640625,-1.06
15:38:26.656250,-0.23
15:38:26.671875,0.27
15:38:26.687500,0.17
15:38:26.703125,-0.53
15:38:26.718750,-1.46
15:38:26.734375,-2.01
15:38:26.750000,-1.69
15:38:26.765625,-0.35
15:38:26.781250,1.74
15:38:26.796875,4.09
15:38:26.812500,6.21
15:38:26.828125,7.86
15:38:26.843750,9.06
15:38:26.859375,9.93
15:38:26.875000,10.56
15:38:26.890625,10.95
15:38:26.906250,11.02
15:38:26.921875,10.77
15:38:26.937500,10.23
15:38:26.953125,9.51
15:38:26.968750,8.69
15:38:26.984375,7.81
15:38:27,6.89
15:38:27.015625,5.93
15:38:27.031250,4.96
15:38:27.046875,4.01
15:38:27.062500,3.08
15:38:27.078125,2.10
15:38:27.093750,0.98
15:38:27.109375,-0.35
15:38:27.125000,-1.91
15:38:27.140625,-3.66
15:38:27.156250,-5.52
15:38:27.171875,-7.38
15:38:27.187500,-9.09
15:38:27.203125,-10.48
15:38:27.218750,-11.42
15:38:27.234375,-11.86
15:38:27.250000,-11.89
15:38:27.265625,-11.68
15:38:27.281250,-11.43
15:38:27.296875,-11.28
15:38:27.312500,-11.20
15:38:27.328125,-11.09
15:38:27.343750,-10.80
15:38:27.359375,-10.32
15:38:27.375000,-9.76
15:38:27.390625,-9.33
15:38:27.406250,-9.16
15:38:27.421875,-9.23
15:38:27.437500,-9.36
15:38:27.453125,-9.31
15:38:27.468750,-8.87
15:38:27.484375,-8.03
15:38:27.500000,-6.87
15:38:27.515625,-5.55
15:38:27.531250,-4.19
15:38:27.546875,-2.83
15:38:27.562500,-1.46
15:38:27.578125,-0.07
15:38:27.593750,1.27
15:38:27.609375,2.44
15:38:27.625000,3.36
15:38:27.640625,4.00
15:38:27.656250,4.44
15:38:27.671875,4.80
15:38:27.687500,5.19
15:38:27.703125,5.63
15:38:27.718750,6.11
15:38:27.734375,6.59
15:38:27.750000,7.06
15:38:27.765625,7.53
15:38:27.781250,8.01
15:38:27.796875,8.48
15:38:27.812500,8.88
15:38:27.828125,9.17
15:38:27.843750,9.31
15:38:27.859375,9.31
15:38:27.875000,9.17
15:38:27.890625,8.86
15:38:27.906250,8.30
15:38:27.921875,7.46
15:38:27.937500,6.33
15:38:27.953125,5.01
15:38:27.968750,3.62
15:38:27.984375,2.32
15:38:28,1.19
15:38:28.015625,0.23
15:38:28.031250,-0.63
15:38:28.046875,-1.47
15:38:28.062500,-2.39
15:38:28.078125,-3.40
15:38:28.093750,-4.48
15:38:28.109375,-5.57
15:38:28.125000,-6.58
15:38:28.140625,-7.42
15:38:28.156250,-8.01
15:38:28.171875,-8.33
15:38:28.187500,-8.37
15:38:28.203125,-8.16
15:38:28.218750,-7.69
15:38:28.234375,-7.02
15:38:28.250000,-6.21
15:38:28.265625,-5.41
15:38:28.281250,-4.80
15:38:28.296875,-4.57
15:38:28.312500,-4.75
15:38:28.328125,-5.27
15:38:28.343750,-5.91
15:38:28.359375,-6.40
15:38:28.375000,-6.56
15:38:28.390625,-6.36
15:38:28.406250,-5.99
15:38:28.421875,-5.80
15:38:28.437500,-6.14
15:38:28.453125,-7.21
15:38:28.468750,-8.98
15:38:28.484375,-11.19
15:38:28.500000,-13.44
15:38:28.515625,-15.40
15:38:28.531250,-16.96
15:38:28.546875,-18.28
15:38:28.562500,-19.72
15:38:28.578125,-21.71
15:38:28.593750,-24.52
15:38:28.609375,-28.15
15:38:28.625000,-32.29
15:38:28.640625,-36.45
15:38:28.656250,-40.18
15:38:28.671875,-43.18
15:38:28.687500,-45.47
15:38:28.703125,-47.32
15:38:28.718750,-49.18
15:38:28.734375,-51.52
15:38:28.750000,-54.63
15:38:28.765625,-58.52
15:38:28.781250,-62.63
15:38:28.796875,-65.74
15:38:28.812500,-65.98
15:38:28.828125,-61.38
15:38:28.843750,-50.56
15:38:28.859375,-33.62
15:38:28.875000,-12.35
15:38:28.890625,10.15
15:38:28.906250,30.59
15:38:28.921875,46.68
15:38:28.937500,57.80
15:38:28.953125,64.90
15:38:28.968750,69.54
15:38:28.984375,73.02
15:38:29,75.80
15:38:29.015625,77.67
15:38:29.031250,78.34
15:38:29.046875,77.96
15:38:29.062500,77.12
15:38:29.078125,76.53
15:38:29.093750,76.54
15:38:29.109375,76.90
15:38:29.125000,76.96
15:38:29.140625,76.13
15:38:29.156250,74.18
15:38:29.171875,71.47
15:38:29.187500,68.71
15:38:29.203125,66.63
15:38:29.218750,65.58
15:38:29.234375,65.36
15:38:29.250000,65.27
15:38:29.265625,64.36
15:38:29.281250,61.80
15:38:29.296875,57.19
15:38:29.312500,50.67
15:38:29.328125,42.76
15:38:29.343750,34.21
15:38:29.359375,25.68
15:38:29.375000,17.63
15:38:29.390625,10.32
15:38:29.406250,3.86
15:38:29.421875,-1.71
15:38:29.437500,-6.37
15:38:29.453125,-10.16
15:38:29.468750,-13.20
15:38:29.484375,-15.67
15:38:29.500000,-17.75
15:38:29.515625,-19.56
15:38:29.531250,-21.11
15:38:29.546875,-22.42
15:38:29.562500,-23.51
15:38:29.578125,-24.46
15:38:29.593750,-25.42
15:38:29.609375,-26.48
15:38:29.625000,-27.64
15:38:29.640625,-28.81
15:38:29.656250,-29.84
15:38:29.671875,-30.59
15:38:29.687500,-30.99
15:38:29.703125,-31.09
15:38:29.718750,-30.97
15:38:29.734375,-30.67
15:38:29.750000,-30.17
15:38:29.765625,-29.39
15:38:29.781250,-28.20
15:38:29.796875,-26.51
15:38:29.812500,-24.30
15:38:29.828125,-21.63
15:38:29.843750,-18.64
15:38:29.859375,-15.50
15:38:29.875000,-12.45
15:38:29.890625,-9.71
15:38:29.906250,-7.47
15:38:29.921875,-5.78
15:38:29.937500,-4.57
15:38:29.953125,-3.65
15:38:29.968750,-2.77
15:38:29.984375,-1.81
15:38:30,-0.73
15:38:30.015625,0.35
15:38:30.031250,1.31
15:38:30.046875,2.08
15:38:30.062500,2.70
15:38:30.078125,3.30
15:38:30.093750,3.98
15:38:30.109375,4.71
15:38:30.125000,5.35
15:38:30.140625,5.70
15:38:30.156250,5.61
15:38:30.171875,5.07
15:38:30.187500,4.20
15:38:30.203125,3.20
15:38:30.218750,2.24
15:38:30.234375,1.38
15:38:30.250000,0.58
15:38:30.265625,-0.30
15:38:30.281250,-1.38
15:38:30.296875,-2.70
15:38:30.312500,-4.19
15:38:30.328125,-5.70
15:38:30.343750,-7.05
15:38:30.359375,-8.12
15:38:30.375000,-8.89
15:38:30.390625,-9.49
15:38:30.406250,-10.10
15:38:30.421875,-10.89
15:38:30.437500,-11.90
15:38:30.453125,-13.03
15:38:30.468750,-14.11
15:38:30.484375,-14.96
15:38:30.500000,-15.49
15:38:30.515625,-15.71
15:38:30.531250,-15.61
15:38:30.546875,-15.13
15:38:30.562500,-14.12
15:38:30.578125,-12.41
15:38:30.593750,-10.02
15:38:30.609375,-7.25
15:38:30.625000,-4.59
15:38:30.640625,-2.63
15:38:30.656250,-1.70
15:38:30.671875,-1.73
15:38:30.687500,-2.28
15:38:30.703125,-2.73
15:38:30.718750,-2.65
15:38:30.734375,-1.96
15:38:30.750000,-0.92
15:38:30.765625,0.07
15:38:30.781250,0.71
15:38:30.796875,1.03
15:38:30.812500,1.26
15:38:30.828125,1.65
15:38:30.843750,2.23
15:38:30.859375,2.84
15:38:30.875000,3.17
15:38:30.890625,3.04
15:38:30.906250,2.49
15:38:30.921875,1.80
15:38:30.937500,1.34
15:38:30.953125,1.34
15:38:30.968750,1.77
15:38:30.984375,2.35
15:38:31,2.74
15:38:31.015625,2.70
15:38:31.031250,2.18
15:38:31.046875,1.34
15:38:31.062500,0.43
15:38:31.078125,-0.33
15:38:31.093750,-0.87
15:38:31.109375,-1.23
15:38:31.125000,-1.53
15:38:31.140625,-1.87
15:38:31.156250,-2.26
15:38:31.171875,-2.62
15:38:31.187500,-2.77
15:38:31.203125,-2.55
15:38:31.218750,-1.89
15:38:31.234375,-0.84
15:38:31.250000,0.41
15:38:31.265625,1.61
15:38:31.281250,2.55
15:38:31.296875,3.17
15:38:31.312500,3.54
15:38:31.328125,3.86
15:38:31.343750,4.28
15:38:31.359375,4.87
15:38:31.375000,5.53
15:38:31.390625,6.09
15:38:31.406250,6.35
15:38:31.421875,6.21
15:38:31.437500,5.70
15:38:31.453125,4.94
15:38:31.468750,4.09
15:38:31.484375,3.30
15:38:31.500000,2.67
15:38:31.515625,2.26
15:38:31.531250,2.09
15:38:31.546875,2.11
15:38:31.562500,2.26
15:38:31.578125,2.44
15:38:31.593750,2.57
15:38:31.609375,2.62
15:38:31.625000,2.59
15:38:31.640625,2.50
15:38:31.656250,2.39
15:38:31.671875,2.28
15:38:31.687500,2.16
15:38:31.703125,2.02
15:38:31.718750,1.85
15:38:31.734375,1.64
15:38:31.750000,1.35
15:38:31.765625,1.01
15:38:31.781250,0.63
15:38:31.796875,0.26
15:38:31.812500,-0.07
15:38:31.828125,-0.37
15:38:31.843750,-0.66
15:38:31.859375,-0.99
15:38:31.875000,-1.33
15:38:31.890625,-1.65
15:38:31.906250,-1.88
15:38:31.921875,-1.98
15:38:31.937500,-2.03
15:38:31.953125,-2.11
15:38:31.968750,-2.32
15:38:31.984375,-2.62
15:38:32,-2.89
15:38:32.015625,-2.91
15:38:32.031250,-2.51
15:38:32.046875,-1.66
15:38:32.062500,-0.50
15:38:32.078125,0.73
15:38:32.093750,1.79
15:38:32.109375,2.53
15:38:32.125000,2.94
15:38:32.140625,3.09
15:38:32.156250,3.12
15:38:32.171875,3.17
15:38:32.187500,3.30
15:38:32.203125,3.51
15:38:32.218750,3.71
15:38:32.234375,3.81
15:38:32.250000,3.72
15:38:32.265625,3.46
15:38:32.281250,3.10
15:38:32.296875,2.78
15:38:32.312500,2.64
15:38:32.328125,2.73
15:38:32.343750,3.02
15:38:32.359375,3.40
15:38:32.375000,3.74
15:38:32.390625,3.94
15:38:32.406250,3.95
15:38:32.421875,3.77
15:38:32.437500,3.41
15:38:32.453125,2.92
15:38:32.468750,2.35
15:38:32.484375,1.81
15:38:32.500000,1.44
15:38:32.515625,1.39
15:38:32.531250,1.81
15:38:32.546875,2.70
15:38:32.562500,3.93
15:38:32.578125,5.25
15:38:32.593750,6.35
15:38:32.609375,6.98
15:38:32.625000,7.02
15:38:32.640625,6.55
15:38:32.656250,5.73
15:38:32.671875,4.82
15:38:32.687500,3.96
15:38:32.703125,3.25
15:38:32.718750,2.59
15:38:32.734375,1.85
15:38:32.750000,0.85
15:38:32.765625,-0.48
15:38:32.781250,-2.10
15:38:32.796875,-3.81
15:38:32.812500,-5.34
15:38:32.828125,-6.42
15:38:32.843750,-6.87
15:38:32.859375,-6.66
15:38:32.875000,-5.89
15:38:32.890625,-4.79
15:38:32.906250,-3.66
15:38:32.921875,-2.72
15:38:32.937500,-2.12
15:38:32.953125,-1.85
15:38:32.968750,-1.81
15:38:32.984375,-1.83
15:38:33,-1.82
15:38:33.015625,-1.76
15:38:33.031250,-1.72
15:38:33.046875,-1.79
15:38:33.062500,-1.97
15:38:33.078125,-2.18
15:38:33.093750,-2.31
15:38:33.109375,-2.26
15:38:33.125000,-2.06
15:38:33.140625,-1.84
15:38:33.156250,-1.73
15:38:33.171875,-1.77
15:38:33.187500,-1.86
15:38:33.203125,-1.85
15:38:33.218750,-1.61
15:38:33.234375,-1.19
15:38:33.250000,-0.79
15:38:33.265625,-0.63
15:38:33.281250,-0.84
15:38:33.296875,-1.37
15:38:33.312500,-2.02
15:38:33.328125,-2.57
15:38:33.343750,-2.86
15:38:33.359375,-2.90
15:38:33.375000,-2.77
15:38:33.390625,-2.59
15:38:33.406250,-2.44
15:38:33.421875,-2.36
15:38:33.437500,-2.38
15:38:33.453125,-2.50
15:38:33.468750,-2.75
15:38:33.484375,-3.07
15:38:33.500000,-3.42
15:38:33.515625,-3.76
15:38:33.531250,-4.10
15:38:33.546875,-4.49
15:38:33.562500,-5.00
15:38:33.578125,-5.61
15:38:33.593750,-6.20
15:38:33.609375,-6.58
15:38:33.625000,-6.57
15:38:33.640625,-6.11
15:38:33.656250,-5.26
15:38:33.671875,-4.21
15:38:33.687500,-3.13
15:38:33.703125,-2.15
15:38:33.718750,-1.28
15:38:33.734375,-0.50
15:38:33.750000,0.21
15:38:33.765625,0.85
15:38:33.781250,1.40
15:38:33.796875,1.82
15:38:33.812500,2.10
15:38:33.828125,2.21
15:38:33.843750,2.17
15:38:33.859375,1.99
15:38:33.875000,1.69
15:38:33.890625,1.35
15:38:33.906250,1.09
15:38:33.921875,1.03
15:38:33.937500,1.24
15:38:33.953125,1.71
15:38:33.968750,2.28
15:38:33.984375,2.79
15:38:34,3.07
15:38:34.015625,3.06
15:38:34.031250,2.80
15:38:34.046875,2.40
15:38:34.062500,1.99
15:38:34.078125,1.68
15:38:34.093750,1.48
15:38:34.109375,1.42
15:38:34.125000,1.44
15:38:34.140625,1.52
15:38:34.156250,1.62
15:38:34.171875,1.68
15:38:34.187500,1.67
15:38:34.203125,1.54
15:38:34.218750,1.30
15:38:34.234375,0.97
15:38:34.250000,0.58
15:38:34.265625,0.18
15:38:34.281250,-0.24
15:38:34.296875,-0.66
15:38:34.312500,-1.11
15:38:34.328125,-1.57
15:38:34.343750,-2.04
15:38:34.359375,-2.51
15:38:34.375000,-2.96
15:38:34.390625,-3.42
15:38:34.406250,-3.89
15:38:34.421875,-4.38
15:38:34.437500,-4.85
15:38:34.453125,-5.21
15:38:34.468750,-5.39
15:38:34.484375,-5.34
15:38:34.500000,-5.07
15:38:34.515625,-4.59
15:38:34.531250,-3.92
15:38:34.546875,-3.05
15:38:34.562500,-1.98
15:38:34.578125,-0.77
15:38:34.593750,0.46
15:38:34.609375,1.52
15:38:34.625000,2.27
15:38:34.640625,2.66
15:38:34.656250,2.75
15:38:34.671875,2.70
15:38:34.687500,2.66
15:38:34.703125,2.73
15:38:34.718750,2.86
15:38:34.734375,2.96
15:38:34.750000,2.90
15:38:34.765625,2.64
15:38:34.781250,2.23
15:38:34.796875,1.82
15:38:34.812500,1.52
15:38:34.828125,1.42
15:38:34.843750,1.49
15:38:34.859375,1.68
15:38:34.875000,1.94
15:38:34.890625,2.22
15:38:34.906250,2.48
15:38:34.921875,2.68
15:38:34.937500,2.72
15:38:34.953125,2.54
15:38:34.968750,2.11
15:38:34.984375,1.53
15:38:35,0.97
15:38:35.015625,0.57
15:38:35.031250,0.35
15:38:35.046875,0.25
15:38:35.062500,0.09
15:38:35.078125,-0.22
15:38:35.093750,-0.71
15:38:35.109375,-1.29
15:38:35.125000,-1.82
15:38:35.140625,-2.21
15:38:35.156250,-2.48
15:38:35.171875,-2.69
15:38:35.187500,-2.96
15:38:35.203125,-3.36
15:38:35.218750,-3.90
15:38:35.234375,-4.51
15:38:35.250000,-5.04
15:38:35.265625,-5.36
15:38:35.281250,-5.35
15:38:35.296875,-5.01
15:38:35.312500,-4.39
15:38:35.328125,-3.63
15:38:35.343750,-2.83
15:38:35.359375,-2.02
15:38:35.375000,-1.18
15:38:35.390625,-0.29
15:38:35.406250,0.62
15:38:35.421875,1.46
15:38:35.437500,2.10
15:38:35.453125,2.47
15:38:35.468750,2.60
15:38:35.484375,2.61
15:38:35.500000,2.64
15:38:35.515625,2.78
15:38:35.531250,3.02
15:38:35.546875,3.27
15:38:35.562500,3.44
15:38:35.578125,3.50
15:38:35.593750,3.46
15:38:35.609375,3.40
15:38:35.625000,3.34
15:38:35.640625,3.28
15:38:35.656250,3.14
15:38:35.671875,2.85
15:38:35.687500,2.39
15:38:35.703125,1.80
15:38:35.718750,1.20
15:38:35.734375,0.69
15:38:35.750000,0.37
15:38:35.765625,0.23
15:38:35.781250,0.23
15:38:35.796875,0.30
15:38:35.812500,0.39
15:38:35.828125,0.47
15:38:35.843750,0.53
15:38:35.859375,0.56
15:38:35.875000,0.49
15:38:35.890625,0.24
15:38:35.906250,-0.23
15:38:35.921875,-0.92
15:38:35.937500,-1.69
15:38:35.953125,-2.37
15:38:35.968750,-2.83
15:38:35.984375,-3.04
15:38:36,-3.11
15:38:36.015625,-3.19
15:38:36.031250,-3.43
15:38:36.046875,-3.87
15:38:36.062500,-4.43
15:38:36.078125,-4.97
15:38:36.093750,-5.37
15:38:36.109375,-5.57
15:38:36.125000,-5.55
15:38:36.140625,-5.35
15:38:36.156250,-4.97
15:38:36.171875,-4.44
15:38:36.187500,-3.81
15:38:36.203125,-3.16
15:38:36.218750,-2.53
15:38:36.234375,-1.96
15:38:36.250000,-1.41
15:38:36.265625,-0.81
15:38:36.281250,-0.13
15:38:36.296875,0.60
15:38:36.312500,1.29
15:38:36.328125,1.83
15:38:36.343750,2.16
15:38:36.359375,2.27
15:38:36.375000,2.24
15:38:36.390625,2.20
15:38:36.406250,2.21
15:38:36.421875,2.34
15:38:36.437500,2.56
15:38:36.453125,2.80
15:38:36.468750,2.97
15:38:36.484375,3.03
15:38:36.500000,2.96
15:38:36.515625,2.84
15:38:36.531250,2.72
15:38:36.546875,2.69
15:38:36.562500,2.77
15:38:36.578125,2.90
15:38:36.593750,2.97
15:38:36.609375,2.90
15:38:36.625000,2.61
15:38:36.640625,2.15
15:38:36.656250,1.61
15:38:36.671875,1.09
15:38:36.687500,0.68
15:38:36.703125,0.41
15:38:36.718750,0.26
15:38:36.734375,0.17
15:38:36.750000,0.08
15:38:36.765625,-0.02
15:38:36.781250,-0.14
15:38:36.796875,-0.28
15:38:36.812500,-0.50
15:38:36.828125,-0.87
15:38:36.843750,-1.50
15:38:36.859375,-2.39
15:38:36.875000,-3.44
15:38:36.890625,-4.47
15:38:36.906250,-5.25
15:38:36.921875,-5.62
15:38:36.937500,-5.50
15:38:36.953125,-4.92
15:38:36.968750,-4.01
15:38:36.984375,-2.90
15:38:37,-1.72
15:38:37.015625,-0.61
15:38:37.031250,0.35
15:38:37.046875,1.10
15:38:37.062500,1.65
15:38:37.078125,2.07
15:38:37.093750,2.45
15:38:37.109375,2.85
15:38:37.125000,3.25
15:38:37.140625,3.58
15:38:37.156250,3.73
15:38:37.171875,3.66
15:38:37.187500,3.37
15:38:37.203125,2.95
15:38:37.218750,2.52
15:38:37.234375,2.15
15:38:37.250000,1.87
15:38:37.265625,1.69
15:38:37.281250,1.58
15:38:37.296875,1.52
15:38:37.312500,1.49
15:38:37.328125,1.43
15:38:37.343750,1.32
15:38:37.359375,1.13
15:38:37.375000,0.94
15:38:37.390625,0.82
15:38:37.406250,0.85
15:38:37.421875,1.05
15:38:37.437500,1.30
15:38:37.453125,1.41
15:38:37.468750,1.22
15:38:37.484375,0.64
15:38:37.500000,-0.22
15:38:37.515625,-1.12
15:38:37.531250,-1.80
15:38:37.546875,-2.09
15:38:37.562500,-2.03
15:38:37.578125,-1.81
15:38:37.593750,-1.71
15:38:37.609375,-1.91
15:38:37.625000,-2.42
15:38:37.640625,-3.09
15:38:37.656250,-3.74
15:38:37.671875,-4.25
15:38:37.687500,-4.59
15:38:37.703125,-4.83
15:38:37.718750,-5.00
15:38:37.734375,-5.01
15:38:37.750000,-4.72
15:38:37.765625,-4.02
15:38:37.781250,-2.96
15:38:37.796875,-1.77
15:38:37.812500,-0.75
15:38:37.828125,-0.10
15:38:37.843750,0.16
15:38:37.859375,0.22
15:38:37.875000,0.36
15:38:37.890625,0.74
15:38:37.906250,1.36
15:38:37.921875,2.06
15:38:37.937500,2.67
15:38:37.953125,3.07
15:38:37.968750,3.29
15:38:37.984375,3.41
15:38:38,3.50
15:38:38.015625,3.57
15:38:38.031250,3.55
15:38:38.046875,3.39
15:38:38.062500,3.09
15:38:38.078125,2.69
15:38:38.093750,2.29
15:38:38.109375,1.95
15:38:38.125000,1.68
15:38:38.140625,1.50
15:38:38.156250,1.41
15:38:38.171875,1.42
15:38:38.187500,1.52
15:38:38.203125,1.70
15:38:38.218750,1.86
15:38:38.234375,1.91
15:38:38.250000,1.75
15:38:38.265625,1.34
15:38:38.281250,0.74
15:38:38.296875,0.04
15:38:38.312500,-0.63
15:38:38.328125,-1.18
15:38:38.343750,-1.55
15:38:38.359375,-1.75
15:38:38.375000,-1.84
15:38:38.390625,-1.88
15:38:38.406250,-1.99
15:38:38.421875,-2.26
15:38:38.437500,-2.79
15:38:38.453125,-3.55
15:38:38.468750,-4.45
15:38:38.484375,-5.25
15:38:38.500000,-5.71
15:38:38.515625,-5.63
15:38:38.531250,-4.97
15:38:38.546875,-3.89
15:38:38.562500,-2.65
15:38:38.578125,-1.48
15:38:38.593750,-0.54
15:38:38.609375,0.14
15:38:38.625000,0.66
15:38:38.640625,1.09
15:38:38.656250,1.51
15:38:38.671875,1.89
15:38:38.687500,2.20
15:38:38.703125,2.40
15:38:38.718750,2.47
15:38:38.734375,2.38
15:38:38.750000,2.17
15:38:38.765625,1.88
15:38:38.781250,1.59
15:38:38.796875,1.42
15:38:38.812500,1.44
15:38:38.828125,1.67
15:38:38.843750,2.03
15:38:38.859375,2.38
15:38:38.875000,2.59
15:38:38.890625,2.60
15:38:38.906250,2.41
15:38:38.921875,2.15
15:38:38.937500,1.97
15:38:38.953125,1.95
15:38:38.968750,2.10
15:38:38.984375,2.29
15:38:39,2.34
15:38:39.015625,2.10
15:38:39.031250,1.51
15:38:39.046875,0.64
15:38:39.062500,-0.35
15:38:39.078125,-1.28
15:38:39.093750,-2.07
15:38:39.109375,-2.70
15:38:39.125000,-3.24
15:38:39.140625,-3.79
15:38:39.156250,-4.36
15:38:39.171875,-4.95
15:38:39.187500,-5.47
15:38:39.203125,-5.85
15:38:39.218750,-6.03
15:38:39.234375,-5.94
15:38:39.250000,-5.51
15:38:39.265625,-4.73
15:38:39.281250,-3.64
15:38:39.296875,-2.35
15:38:39.312500,-1.05
15:38:39.328125,0.08
15:38:39.343750,0.96
15:38:39.359375,1.55
15:38:39.375000,1.91
15:38:39.390625,2.11
15:38:39.406250,2.21
15:38:39.421875,2.23
15:38:39.437500,2.21
15:38:39.453125,2.21
15:38:39.468750,2.28
15:38:39.484375,2.41
15:38:39.500000,2.56
15:38:39.515625,2.63
15:38:39.531250,2.55
15:38:39.546875,2.35
15:38:39.562500,2.12
15:38:39.578125,1.97
15:38:39.593750,1.94
15:38:39.609375,2.01
15:38:39.625000,2.09
15:38:39.640625,2.11
15:38:39.656250,2.01
15:38:39.671875,1.79
15:38:39.687500,1.47
15:38:39.703125,1.06
15:38:39.718750,0.61
15:38:39.734375,0.15
15:38:39.750000,-0.27
15:38:39.765625,-0.64
15:38:39.781250,-0.94
15:38:39.796875,-1.21
15:38:39.812500,-1.50
15:38:39.828125,-1.84
15:38:39.843750,-2.23
15:38:39.859375,-2.68
15:38:39.875000,-3.18
15:38:39.890625,-3.77
15:38:39.906250,-4.49
15:38:39.921875,-5.30
15:38:39.937500,-6.08
15:38:39.953125,-6.66
15:38:39.968750,-6.83
15:38:39.984375,-6.51
15:38:40,-5.72
15:38:40.015625,-4.61
15:38:40.031250,-3.36
15:38:40.046875,-2.11
15:38:40.062500,-0.94
15:38:40.078125,0.09
15:38:40.093750,0.96
15:38:40.109375,1.67
15:38:40.125000,2.23
15:38:40.140625,2.70
15:38:40.156250,3.19
15:38:40.171875,3.75
15:38:40.187500,4.33
15:38:40.203125,4.82
15:38:40.218750,5.07
15:38:40.234375,5.01
15:38:40.250000,4.64
15:38:40.265625,4.09
15:38:40.281250,3.52
15:38:40.296875,3.03
15:38:40.312500,2.66
15:38:40.328125,2.38
15:38:40.343750,2.17
15:38:40.359375,2.02
15:38:40.375000,1.96
15:38:40.390625,2.02
15:38:40.406250,2.15
15:38:40.421875,2.26
15:38:40.437500,2.25
15:38:40.453125,2.08
15:38:40.468750,1.75
15:38:40.484375,1.31
15:38:40.500000,0.86
15:38:40.515625,0.48
15:38:40.531250,0.18
15:38:40.546875,-0.06
15:38:40.562500,-0.33
15:38:40.578125,-0.66
15:38:40.593750,-1.09
15:38:40.609375,-1.60
15:38:40.625000,-2.21
15:38:40.640625,-2.93
15:38:40.656250,-3.77
15:38:40.671875,-4.75
15:38:40.687500,-5.78
15:38:40.703125,-6.71
15:38:40.718750,-7.36
15:38:40.734375,-7.54
15:38:40.750000,-7.17
15:38:40.765625,-6.30
15:38:40.781250,-5.05
15:38:40.796875,-3.63
15:38:40.812500,-2.19
15:38:40.828125,-0.85
15:38:40.843750,0.31
15:38:40.859375,1.26
15:38:40.875000,2.00
15:38:40.890625,2.57
15:38:40.906250,3.02
15:38:40.921875,3.42
15:38:40.937500,3.76
15:38:40.953125,4.03
15:38:40.968750,4.14
15:38:40.984375,4.05
15:38:41,3.79
15:38:41.015625,3.43
15:38:41.031250,3.07
15:38:41.046875,2.81
15:38:41.062500,2.66
15:38:41.078125,2.59
15:38:41.093750,2.56
15:38:41.109375,2.56
15:38:41.125000,2.59
15:38:41.140625,2.66
15:38:41.156250,2.74
15:38:41.171875,2.80
15:38:41.187500,2.78
15:38:41.203125,2.63
15:38:41.218750,2.33
15:38:41.234375,1.89
15:38:41.250000,1.34
15:38:41.265625,0.73
15:38:41.281250,0.11
15:38:41.296875,-0.49
15:38:41.312500,-1.03
15:38:41.328125,-1.46
15:38:41.343750,-1.76
15:38:41.359375,-1.93
15:38:41.375000,-2.02
15:38:41.390625,-2.13
15:38:41.406250,-2.39
15:38:41.421875,-2.93
15:38:41.437500,-3.75
15:38:41.453125,-4.76
15:38:41.468750,-5.76
15:38:41.484375,-6.53
15:38:41.500000,-6.93
15:38:41.515625,-6.95
15:38:41.531250,-6.64
15:38:41.546875,-6.09
15:38:41.562500,-5.37
15:38:41.578125,-4.48
15:38:41.593750,-3.45
15:38:41.609375,-2.33
15:38:41.625000,-1.22
15:38:41.640625,-0.25
15:38:41.656250,0.48
15:38:41.671875,0.92
15:38:41.687500,1.11
15:38:41.703125,1.11
15:38:41.718750,0.98
15:38:41.734375,0.76
15:38:41.750000,0.47
15:38:41.765625,0.11
15:38:41.781250,-0.33
15:38:41.796875,-0.81
15:38:41.812500,-1.30
15:38:41.828125,-1.79
15:38:41.843750,-2.27
15:38:41.859375,-2.77
15:38:41.875000,-3.31
15:38:41.890625,-3.89
15:38:41.906250,-4.51
15:38:41.921875,-5.19
15:38:41.937500,-5.97
15:38:41.953125,-6.86
15:38:41.968750,-7.84
15:38:41.984375,-8.83
15:38:42,-9.75
15:38:42.015625,-10.56
15:38:42.031250,-11.33
15:38:42.046875,-12.17
15:38:42.062500,-13.20
15:38:42.078125,-14.42
15:38:42.093750,-15.71
15:38:42.109375,-16.91
15:38:42.125000,-17.85
15:38:42.140625,-18.45
15:38:42.156250,-18.68
15:38:42.171875,-18.48
15:38:42.187500,-17.66
15:38:42.203125,-15.99
15:38:42.218750,-13.33
15:38:42.234375,-9.75
15:38:42.250000,-5.59
15:38:42.265625,-1.40
15:38:42.281250,2.30
15:38:42.296875,5.23
15:38:42.312500,7.42
15:38:42.328125,9.15
15:38:42.343750,10.88
15:38:42.359375,12.97
15:38:42.375000,15.60
15:38:42.390625,18.68
15:38:42.406250,21.99
15:38:42.421875,25.21
15:38:42.437500,28.14
15:38:42.453125,30.70
15:38:42.468750,32.97
15:38:42.484375,35.10
15:38:42.500000,37.17
15:38:42.515625,39.18
15:38:42.531250,41.03
15:38:42.546875,42.54
15:38:42.562500,43.56
15:38:42.578125,44.01
15:38:42.593750,43.84
15:38:42.609375,43.06
15:38:42.625000,41.70
15:38:42.640625,39.90
15:38:42.656250,37.85
15:38:42.671875,35.80
15:38:42.687500,34.03
15:38:42.703125,32.72
15:38:42.718750,31.96
15:38:42.734375,31.63
15:38:42.750000,31.45
15:38:42.765625,31.06
15:38:42.781250,30.06
15:38:42.796875,28.21
15:38:42.812500,25.47
15:38:42.828125,22.03
15:38:42.843750,18.27
15:38:42.859375,14.60
15:38:42.875000,11.27
15:38:42.890625,8.31
15:38:42.906250,5.59
15:38:42.921875,2.88
15:38:42.937500,0.06
15:38:42.953125,-2.86
15:38:42.968750,-5.76
15:38:42.984375,-8.52
15:38:43,-11.08
15:38:43.015625,-13.45
15:38:43.031250,-15.66
15:38:43.046875,-17.76
15:38:43.062500,-19.70
15:38:43.078125,-21.43
15:38:43.093750,-22.96
15:38:43.109375,-24.41
15:38:43.125000,-25.98
15:38:43.140625,-27.84
15:38:43.156250,-29.98
15:38:43.171875,-32.14
15:38:43.187500,-33.90
15:38:43.203125,-34.83
15:38:43.218750,-34.69
15:38:43.234375,-33.50
15:38:43.250000,-31.50
15:38:43.265625,-29.03
15:38:43.281250,-26.37
15:38:43.296875,-23.71
15:38:43.312500,-21.14
15:38:43.328125,-18.76
15:38:43.343750,-16.67
15:38:43.359375,-14.91
15:38:43.375000,-13.48
15:38:43.390625,-12.25
15:38:43.406250,-11.11
15:38:43.421875,-10.01
15:38:43.437500,-9.04
15:38:43.453125,-8.35
15:38:43.468750,-8.02
15:38:43.484375,-8.02
15:38:43.500000,-8.16
15:38:43.515625,-8.33
15:38:43.531250,-8.53
15:38:43.546875,-9.00
15:38:43.562500,-10.05
15:38:43.578125,-11.83
15:38:43.593750,-14.18
15:38:43.609375,-16.55
15:38:43.625000,-18.27
15:38:43.640625,-18.82
15:38:43.656250,-18.13
15:38:43.671875,-16.54
15:38:43.687500,-14.65
15:38:43.703125,-12.96
15:38:43.718750,-11.68
15:38:43.734375,-10.73
15:38:43.750000,-9.90
15:38:43.765625,-9.04
15:38:43.781250,-8.20
15:38:43.796875,-7.56
15:38:43.812500,-7.29
15:38:43.828125,-7.41
15:38:43.843750,-7.80
15:38:43.859375,-8.31
15:38:43.875000,-8.81
15:38:43.890625,-9.26
15:38:43.906250,-9.65
15:38:43.921875,-9.97
15:38:43.937500,-10.09
15:38:43.953125,-9.84
15:38:43.968750,-9.06
15:38:43.984375,-7.73
15:38:44,-5.92
15:38:44.015625,-3.86
15:38:44.031250,-1.83
15:38:44.046875,-0.05
15:38:44.062500,1.39
15:38:44.078125,2.55
15:38:44.093750,3.56
15:38:44.109375,4.53
15:38:44.125000,5.45
15:38:44.140625,6.17
15:38:44.156250,6.57
15:38:44.171875,6.59
15:38:44.187500,6.38
15:38:44.203125,6.18
15:38:44.218750,6.19
15:38:44.234375,6.43
15:38:44.250000,6.72
15:38:44.265625,6.82
15:38:44.281250,6.57
15:38:44.296875,6.02
15:38:44.312500,5.39
15:38:44.328125,4.94
15:38:44.343750,4.82
15:38:44.359375,4.95
15:38:44.375000,5.16
15:38:44.390625,5.26
15:38:44.406250,5.18
15:38:44.421875,4.93
15:38:44.437500,4.58
15:38:44.453125,4.21
15:38:44.468750,3.81
15:38:44.484375,3.37
15:38:44.500000,2.87
15:38:44.515625,2.31
15:38:44.531250,1.73
15:38:44.546875,1.14
15:38:44.562500,0.52
15:38:44.578125,-0.19
15:38:44.593750,-1.07
15:38:44.609375,-2.12
15:38:44.625000,-3.28
15:38:44.640625,-4.37
15:38:44.656250,-5.17
15:38:44.671875,-5.48
15:38:44.687500,-5.25
15:38:44.703125,-4.53
15:38:44.718750,-3.54
15:38:44.734375,-2.47
15:38:44.750000,-1.45
15:38:44.765625,-0.52
15:38:44.781250,0.39
15:38:44.796875,1.32
15:38:44.812500,2.26
15:38:44.828125,3.14
15:38:44.843750,3.86
15:38:44.859375,4.37
15:38:44.875000,4.66
15:38:44.890625,4.79
15:38:44.906250,4.82
15:38:44.921875,4.81
15:38:44.937500,4.84
15:38:44.953125,4.96
15:38:44.968750,5.23
15:38:44.984375,5.62
15:38:45,6.06
15:38:45.015625,6.41
15:38:45.031250,6.58
15:38:45.046875,6.53
15:38:45.062500,6.31
15:38:45.078125,6.00
15:38:45.093750,5.64
15:38:45.109375,5.21
15:38:45.125000,4.65
15:38:45.140625,3.91
15:38:45.156250,3.04
15:38:45.171875,2.17
15:38:45.187500,1.43
15:38:45.203125,0.90
15:38:45.218750,0.60
15:38:45.234375,0.45
15:38:45.250000,0.35
15:38:45.265625,0.24
15:38:45.281250,0.09
15:38:45.296875,-0.07
15:38:45.312500,-0.26
15:38:45.328125,-0.50
15:38:45.343750,-0.84
15:38:45.359375,-1.36
15:38:45.375000,-2.03
15:38:45.390625,-2.76
15:38:45.406250,-3.40
15:38:45.421875,-3.79
15:38:45.437500,-3.78
15:38:45.453125,-3.32
15:38:45.468750,-2.44
15:38:45.484375,-1.23
15:38:45.500000,0.17
15:38:45.515625,1.63
15:38:45.531250,3.04
15:38:45.546875,4.29
15:38:45.562500,5.29
15:38:45.578125,5.98
15:38:45.593750,6.36
15:38:45.609375,6.48
15:38:45.625000,6.44
15:38:45.640625,6.31
15:38:45.656250,6.14
15:38:45.671875,5.89
15:38:45.687500,5.53
15:38:45.703125,5.02
15:38:45.718750,4.44
15:38:45.734375,3.89
15:38:45.750000,3.49
15:38:45.765625,3.27
15:38:45.781250,3.18
15:38:45.796875,3.08
15:38:45.812500,2.82
15:38:45.828125,2.34
15:38:45.843750,1.72
15:38:45.859375,1.12
15:38:45.875000,0.72
15:38:45.890625,0.61
15:38:45.906250,0.80
15:38:45.921875,1.13
15:38:45.937500,1.41
15:38:45.953125,1.50
15:38:45.968750,1.30
15:38:45.984375,0.87
15:38:46,0.33
15:38:46.015625,-0.20
15:38:46.031250,-0.58
15:38:46.046875,-0.77
15:38:46.062500,-0.81
15:38:46.078125,-0.77
15:38:46.093750,-0.80
15:38:46.109375,-0.99
15:38:46.125000,-1.40
15:38:46.140625,-2.05
15:38:46.156250,-2.85
15:38:46.171875,-3.68
15:38:46.187500,-4.39
15:38:46.203125,-4.82
15:38:46.218750,-4.81
15:38:46.234375,-4.26
15:38:46.250000,-3.17
15:38:46.265625,-1.64
15:38:46.281250,0.10
15:38:46.296875,1.73
15:38:46.312500,3.03
15:38:46.328125,3.85
15:38:46.343750,4.24
15:38:46.359375,4.31
15:38:46.375000,4.22
15:38:46.390625,4.05
15:38:46.406250,3.84
15:38:46.421875,3.59
15:38:46.437500,3.31
15:38:46.453125,3.05
15:38:46.468750,2.90
15:38:46.484375,2.89
15:38:46.500000,2.98
15:38:46.515625,3.06
15:38:46.531250,3.02
15:38:46.546875,2.81
15:38:46.562500,2.43
15:38:46.578125,1.99
15:38:46.593750,1.60
15:38:46.609375,1.32
15:38:46.625000,1.18
15:38:46.640625,1.13
15:38:46.656250,1.09
15:38:46.671875,0.97
15:38:46.687500,0.72
15:38:46.703125,0.35
15:38:46.718750,-0.06
15:38:46.734375,-0.44
15:38:46.750000,-0.70
15:38:46.765625,-0.85
15:38:46.781250,-0.96
15:38:46.796875,-1.11
15:38:46.812500,-1.41
15:38:46.828125,-1.89
15:38:46.843750,-2.49
15:38:46.859375,-3.12
15:38:46.875000,-3.68
15:38:46.890625,-4.11
15:38:46.906250,-4.44
15:38:46.921875,-4.77
15:38:46.937500,-5.15
15:38:46.953125,-5.63
15:38:46.968750,-6.15
15:38:46.984375,-6.58
15:38:47,-6.75
15:38:47.015625,-6.54
15:38:47.031250,-5.92
15:38:47.046875,-4.93
15:38:47.062500,-3.74
15:38:47.078125,-2.51
15:38:47.093750,-1.36
15:38:47.109375,-0.36
15:38:47.125000,0.50
15:38:47.140625,1.22
15:38:47.156250,1.84
15:38:47.171875,2.37
15:38:47.187500,2.81
15:38:47.203125,3.16
15:38:47.218750,3.44
15:38:47.234375,3.65
15:38:47.250000,3.78
15:38:47.265625,3.80
15:38:47.281250,3.71
15:38:47.296875,3.50
15:38:47.312500,3.20
15:38:47.328125,2.91
15:38:47.343750,2.71
15:38:47.359375,2.67
15:38:47.375000,2.81
15:38:47.390625,3.08
15:38:47.406250,3.36
15:38:47.421875,3.55
15:38:47.437500,3.56
15:38:47.453125,3.39
15:38:47.468750,3.04
15:38:47.484375,2.60
15:38:47.500000,2.14
15:38:47.515625,1.72
15:38:47.531250,1.37
15:38:47.546875,1.08
15:38:47.562500,0.81
15:38:47.578125,0.49
15:38:47.593750,0.09
15:38:47.609375,-0.39
15:38:47.625000,-0.88
15:38:47.640625,-1.33
15:38:47.656250,-1.73
15:38:47.671875,-2.11
15:38:47.687500,-2.55
15:38:47.703125,-3.08
15:38:47.718750,-3.61
15:38:47.734375,-4.00
15:38:47.750000,-4.12
15:38:47.765625,-3.91
15:38:47.781250,-3.46
15:38:47.796875,-2.91
15:38:47.812500,-2.38
15:38:47.828125,-1.88
15:38:47.843750,-1.36
15:38:47.859375,-0.73
15:38:47.875000,0.05
15:38:47.890625,0.95
15:38:47.906250,1.86
15:38:47.921875,2.66
15:38:47.937500,3.24
15:38:47.953125,3.56
15:38:47.968750,3.62
15:38:47.984375,3.46
15:38:48,3.19
15:38:48.015625,2.94
15:38:48.031250,2.78
15:38:48.046875,2.72
15:38:48.062500,2.70
15:38:48.078125,2.61
15:38:48.093750,2.36
15:38:48.109375,1.93
15:38:48.125000,1.42
15:38:48.140625,0.92
15:38:48.156250,0.54
15:38:48.171875,0.30
15:38:48.187500,0.20
15:38:48.203125,0.14
15:38:48.218750,0.04
15:38:48.234375,-0.13
15:38:48.250000,-0.34
15:38:48.265625,-0.49
15:38:48.281250,-0.54
15:38:48.296875,-0.49
15:38:48.312500,-0.42
15:38:48.328125,-0.43
15:38:48.343750,-0.58
15:38:48.359375,-0.86
15:38:48.375000,-1.21
15:38:48.390625,-1.54
15:38:48.406250,-1.85
15:38:48.421875,-2.16
15:38:48.437500,-2.55
15:38:48.453125,-3.01
15:38:48.468750,-3.48
15:38:48.484375,-3.79
15:38:48.500000,-3.84
15:38:48.515625,-3.56
15:38:48.531250,-2.98
15:38:48.546875,-2.17
15:38:48.562500,-1.22
15:38:48.578125,-0.21
15:38:48.593750,0.81
15:38:48.609375,1.73
15:38:48.625000,2.40
15:38:48.640625,2.70
15:38:48.656250,2.53
15:38:48.671875,1.95
15:38:48.687500,1.18
15:38:48.703125,0.48
15:38:48.718750,0.07
15:38:48.734375,0.02
15:38:48.750000,0.22
15:38:48.765625,0.48
15:38:48.781250,0.61
15:38:48.796875,0.53
15:38:48.812500,0.29
15:38:48.828125,-0.03
15:38:48.843750,-0.35
15:38:48.859375,-0.66
15:38:48.875000,-0.97
15:38:48.890625,-1.24
15:38:48.906250,-1.37
15:38:48.921875,-1.23
15:38:48.937500,-0.75
15:38:48.953125,-0.01
15:38:48.968750,0.78
15:38:48.984375,1.39
15:38:49,1.68
15:38:49.015625,1.64
15:38:49.031250,1.37
15:38:49.046875,1.03
15:38:49.062500,0.70
15:38:49.078125,0.39
15:38:49.093750,-0.01
15:38:49.109375,-0.58
15:38:49.125000,-1.35
15:38:49.140625,-2.24
15:38:49.156250,-3.08
15:38:49.171875,-3.68
15:38:49.187500,-3.92
15:38:49.203125,-3.81
15:38:49.218750,-3.42
15:38:49.234375,-2.88
15:38:49.250000,-2.27
15:38:49.265625,-1.58
15:38:49.281250,-0.81
15:38:49.296875,0.01
15:38:49.312500,0.81
15:38:49.328125,1.46
15:38:49.343750,1.86
15:38:49.359375,2.00
15:38:49.375000,1.96
15:38:49.390625,1.85
15:38:49.406250,1.77
15:38:49.421875,1.73
15:38:49.437500,1.75
15:38:49.453125,1.79
15:38:49.468750,1.83
15:38:49.484375,1.86
15:38:49.500000,1.83
15:38:49.515625,1.72
15:38:49.531250,1.46
15:38:49.546875,1.09
15:38:49.562500,0.68
15:38:49.578125,0.33
15:38:49.593750,0.12
15:38:49.609375,0.04
15:38:49.625000,0.02
15:38:49.640625,-0.02
15:38:49.656250,-0.13
15:38:49.671875,-0.28
15:38:49.687500,-0.44
15:38:49.703125,-0.56
15:38:49.718750,-0.68
15:38:49.734375,-0.87
15:38:49.750000,-1.22
15:38:49.765625,-1.75
15:38:49.781250,-2.36
15:38:49.796875,-2.91
15:38:49.812500,-3.30
15:38:49.828125,-3.48
15:38:49.843750,-3.53
15:38:49.859375,-3.58
15:38:49.875000,-3.74
15:38:49.890625,-4.02
15:38:49.906250,-4.30
15:38:49.921875,-4.42
15:38:49.937500,-4.24
15:38:49.953125,-3.74
15:38:49.968750,-2.98
15:38:49.984375,-2.10
15:38:50,-1.25
15:38:50.015625,-0.50
15:38:50.031250,0.17
15:38:50.046875,0.83
15:38:50.062500,1.54
15:38:50.078125,2.30
15:38:50.093750,3.03
15:38:50.109375,3.57
15:38:50.125000,3.76
15:38:50.140625,3.54
15:38:50.156250,2.99
15:38:50.171875,2.27
15:38:50.187500,1.59
15:38:50.203125,1.11
15:38:50.218750,0.91
15:38:50.234375,0.96
15:38:50.250000,1.19
15:38:50.265625,1.50
15:38:50.281250,1.80
15:38:50.296875,2.01
15:38:50.312500,2.07
15:38:50.328125,1.91
15:38:50.343750,1.58
15:38:50.359375,1.11
15:38:50.375000,0.65
15:38:50.390625,0.30
15:38:50.406250,0.10
15:38:50.421875,0.03
15:38:50.437500,-0.05
15:38:50.453125,-0.27
15:38:50.468750,-0.75
15:38:50.484375,-1.46
15:38:50.500000,-2.27
15:38:50.515625,-2.93
15:38:50.531250,-3.24
15:38:50.546875,-3.13
15:38:50.562500,-2.73
15:38:50.578125,-2.38
15:38:50.593750,-2.37
15:38:50.609375,-2.85
15:38:50.625000,-3.65
15:38:50.640625,-4.41
15:38:50.656250,-4.72
15:38:50.671875,-4.39
15:38:50.687500,-3.55
15:38:50.703125,-2.52
15:38:50.718750,-1.65
15:38:50.734375,-1.10
15:38:50.750000,-0.76
15:38:50.765625,-0.37
15:38:50.781250,0.24
15:38:50.796875,1.10
15:38:50.812500,2.00
15:38:50.828125,2.68
15:38:50.843750,2.99
15:38:50.859375,2.95
15:38:50.875000,2.71
15:38:50.890625,2.50
15:38:50.906250,2.47
15:38:50.921875,2.64
15:38:50.937500,2.90
15:38:50.953125,3.10
15:38:50.968750,3.10
15:38:50.984375,2.83
15:38:51,2.35
15:38:51.015625,1.79
15:38:51.031250,1.33
15:38:51.046875,1.12
15:38:51.062500,1.19
15:38:51.078125,1.46
15:38:51.093750,1.76
15:38:51.109375,1.90
15:38:51.125000,1.80
15:38:51.140625,1.45
15:38:51.156250,0.96
15:38:51.171875,0.47
15:38:51.187500,0.10
15:38:51.203125,-0.06
15:38:51.218750,-0.01
15:38:51.234375,0.18
15:38:51.250000,0.36
15:38:51.265625,0.36
15:38:51.281250,0.04
15:38:51.296875,-0.63
15:38:51.312500,-1.53
15:38:51.328125,-2.43
15:38:51.343750,-3.06
15:38:51.359375,-3.20
15:38:51.375000,-2.82
15:38:51.390625,-2.06
15:38:51.406250,-1.13
15:38:51.421875,-0.27
15:38:51.437500,0.39
15:38:51.453125,0.80
15:38:51.468750,1.02
15:38:51.484375,1.11
15:38:51.500000,1.15
15:38:51.515625,1.18
15:38:51.531250,1.21
15:38:51.546875,1.26
15:38:51.562500,1.35
15:38:51.578125,1.47
15:38:51.593750,1.61
15:38:51.609375,1.74
15:38:51.625000,1.76
15:38:51.640625,1.63
15:38:51.656250,1.37
15:38:51.671875,1.03
15:38:51.687500,0.74
15:38:51.703125,0.60
15:38:51.718750,0.62
15:38:51.734375,0.73
15:38:51.750000,0.83
15:38:51.765625,0.82
15:38:51.781250,0.71
15:38:51.796875,0.54
15:38:51.812500,0.38
15:38:51.828125,0.25
15:38:51.843750,0.10
15:38:51.859375,-0.09
15:38:51.875000,-0.31
15:38:51.890625,-0.45
15:38:51.906250,-0.44
15:38:51.921875,-0.28
15:38:51.937500,-0.11
15:38:51.953125,-0.13
15:38:51.968750,-0.46
15:38:51.984375,-1.07
15:38:52,-1.75
15:38:52.015625,-2.26
15:38:52.031250,-2.40
15:38:52.046875,-2.14
15:38:52.062500,-1.60
15:38:52.078125,-0.93
15:38:52.093750,-0.23
15:38:52.109375,0.46
15:38:52.125000,1.13
15:38:52.140625,1.74
15:38:52.156250,2.20
15:38:52.171875,2.38
15:38:52.187500,2.22
15:38:52.203125,1.78
15:38:52.218750,1.23
15:38:52.234375,0.78
15:38:52.250000,0.59
15:38:52.265625,0.65
15:38:52.281250,0.85
15:38:52.296875,0.99
15:38:52.312500,0.93
15:38:52.328125,0.65
15:38:52.343750,0.28
15:38:52.359375,-0.04
15:38:52.375000,-0.19
15:38:52.390625,-0.17
15:38:52.406250,-0.06
15:38:52.421875,0.04
15:38:52.437500,0.05
15:38:52.453125,-0.05
15:38:52.468750,-0.19
15:38:52.484375,-0.31
15:38:52.500000,-0.34
15:38:52.515625,-0.28
15:38:52.531250,-0.18
15:38:52.546875,-0.13
15:38:52.562500,-0.26
15:38:52.578125,-0.62
15:38:52.593750,-1.20
15:38:52.609375,-1.90
15:38:52.625000,-2.55
15:38:52.640625,-3.03
15:38:52.656250,-3.31
15:38:52.671875,-3.40
15:38:52.687500,-3.36
15:38:52.703125,-3.20
15:38:52.718750,-2.86
15:38:52.734375,-2.31
15:38:52.750000,-1.56
15:38:52.765625,-0.70
15:38:52.781250,0.11
15:38:52.796875,0.75
15:38:52.812500,1.20
15:38:52.828125,1.53
15:38:52.843750,1.86
15:38:52.859375,2.22
15:38:52.875000,2.57
15:38:52.890625,2.78
15:38:52.906250,2.79
15:38:52.921875,2.61
15:38:52.937500,2.33
15:38:52.953125,2.07
15:38:52.968750,1.86
15:38:52.984375,1.65
15:38:53,1.36
15:38:53.015625,0.98
15:38:53.031250,0.55
15:38:53.046875,0.25
15:38:53.062500,0.19
15:38:53.078125,0.40
15:38:53.093750,0.76
15:38:53.109375,1.09
15:38:53.125000,1.23
15:38:53.140625,1.13
15:38:53.156250,0.83
15:38:53.171875,0.45
15:38:53.187500,0.08
15:38:53.203125,-0.19
15:38:53.218750,-0.36
15:38:53.234375,-0.43
15:38:53.250000,-0.44
15:38:53.265625,-0.45
15:38:53.281250,-0.52
15:38:53.296875,-0.71
15:38:53.312500,-1.05
15:38:53.328125,-1.48
15:38:53.343750,-1.90
15:38:53.359375,-2.25
15:38:53.375000,-2.49
15:38:53.390625,-2.67
15:38:53.406250,-2.84
15:38:53.421875,-2.96
15:38:53.437500,-2.92
15:38:53.453125,-2.57
15:38:53.468750,-1.81
15:38:53.484375,-0.73
15:38:53.500000,0.44
15:38:53.515625,1.44
15:38:53.531250,2.04
15:38:53.546875,2.23
15:38:53.562500,2.12
15:38:53.578125,1.91
15:38:53.593750,1.76
15:38:53.609375,1.72
15:38:53.625000,1.78
15:38:53.640625,1.91
15:38:53.656250,2.09
15:38:53.671875,2.32
15:38:53.687500,2.61
15:38:53.703125,2.91
15:38:53.718750,3.12
15:38:53.734375,3.20
15:38:53.750000,3.12
15:38:53.765625,2.93
15:38:53.781250,2.70
15:38:53.796875,2.46
15:38:53.812500,2.19
15:38:53.828125,1.89
15:38:53.843750,1.56
15:38:53.859375,1.29
15:38:53.875000,1.14
15:38:53.890625,1.17
15:38:53.906250,1.33
15:38:53.921875,1.49
15:38:53.937500,1.52
15:38:53.953125,1.37
15:38:53.968750,1.06
15:38:53.984375,0.71
15:38:54,0.36
15:38:54.015625,0.06
15:38:54.031250,-0.24
15:38:54.046875,-0.57
15:38:54.062500,-0.88
15:38:54.078125,-1.05
15:38:54.093750,-1.03
15:38:54.109375,-0.83
15:38:54.125000,-0.62
15:38:54.140625,-0.62
15:38:54.156250,-0.95
15:38:54.171875,-1.62
15:38:54.187500,-2.44
15:38:54.203125,-3.20
15:38:54.218750,-3.78
15:38:54.234375,-4.19
15:38:54.250000,-4.54
15:38:54.265625,-4.91
15:38:54.281250,-5.30
15:38:54.296875,-5.60
15:38:54.312500,-5.68
15:38:54.328125,-5.51
15:38:54.343750,-5.14
15:38:54.359375,-4.66
15:38:54.375000,-4.16
15:38:54.390625,-3.59
15:38:54.406250,-2.89
15:38:54.421875,-1.98
15:38:54.437500,-0.91
15:38:54.453125,0.18
15:38:54.468750,1.08
15:38:54.484375,1.66
15:38:54.500000,1.90
15:38:54.515625,1.93
15:38:54.531250,1.91
15:38:54.546875,1.98
15:38:54.562500,2.14
15:38:54.578125,2.32
15:38:54.593750,2.41
15:38:54.609375,2.36
15:38:54.625000,2.21
15:38:54.640625,2.07
15:38:54.656250,2.00
15:38:54.671875,2.01
15:38:54.687500,2.03
15:38:54.703125,1.98
15:38:54.718750,1.87
15:38:54.734375,1.75
15:38:54.750000,1.73
15:38:54.765625,1.83
15:38:54.781250,2.00
15:38:54.796875,2.15
15:38:54.812500,2.21
15:38:54.828125,2.21
15:38:54.843750,2.23
15:38:54.859375,2.37
15:38:54.875000,2.58
15:38:54.890625,2.74
15:38:54.906250,2.69
15:38:54.921875,2.34
15:38:54.937500,1.73
15:38:54.953125,1.05
15:38:54.968750,0.47
15:38:54.984375,0.09
15:38:55,-0.15
15:38:55.015625,-0.35
15:38:55.031250,-0.61
15:38:55.046875,-0.94
15:38:55.062500,-1.27
15:38:55.078125,-1.50
15:38:55.093750,-1.63
15:38:55.109375,-1.72
15:38:55.125000,-1.86
15:38:55.140625,-2.13
15:38:55.156250,-2.52
15:38:55.171875,-2.98
15:38:55.187500,-3.42
15:38:55.203125,-3.77
15:38:55.218750,-4.00
15:38:55.234375,-4.10
15:38:55.250000,-4.06
15:38:55.265625,-3.88
15:38:55.281250,-3.56
15:38:55.296875,-3.13
15:38:55.312500,-2.60
15:38:55.328125,-2.00
15:38:55.343750,-1.36
15:38:55.359375,-0.71
15:38:55.375000,-0.14
15:38:55.390625,0.28
15:38:55.406250,0.50
15:38:55.421875,0.51
15:38:55.437500,0.40
15:38:55.453125,0.30
15:38:55.468750,0.32
15:38:55.484375,0.52
15:38:55.500000,0.84
15:38:55.515625,1.20
15:38:55.531250,1.49
15:38:55.546875,1.69
15:38:55.562500,1.80
15:38:55.578125,1.86
15:38:55.593750,1.92
15:38:55.609375,1.97
15:38:55.625000,1.97
15:38:55.640625,1.87
15:38:55.656250,1.67
15:38:55.671875,1.40
15:38:55.687500,1.15
15:38:55.703125,0.99
15:38:55.718750,0.98
15:38:55.734375,1.07
15:38:55.750000,1.22
15:38:55.765625,1.32
15:38:55.781250,1.32
15:38:55.796875,1.22
15:38:55.812500,1.02
15:38:55.828125,0.78
15:38:55.843750,0.51
15:38:55.859375,0.20
15:38:55.875000,-0.18
15:38:55.890625,-0.69
15:38:55.906250,-1.32
15:38:55.921875,-2.02
15:38:55.937500,-2.74
15:38:55.953125,-3.41
15:38:55.968750,-4.02
15:38:55.984375,-4.58
15:38:56,-5.11
15:38:56.015625,-5.58
15:38:56.031250,-5.90
15:38:56.046875,-6.01
15:38:56.062500,-5.86
15:38:56.078125,-5.53
15:38:56.093750,-5.14
15:38:56.109375,-4.78
15:38:56.125000,-4.46
15:38:56.140625,-4.10
15:38:56.156250,-3.55
15:38:56.171875,-2.76
15:38:56.187500,-1.77
15:38:56.203125,-0.74
15:38:56.218750,0.15
15:38:56.234375,0.77
15:38:56.250000,1.12
15:38:56.265625,1.32
15:38:56.281250,1.49
15:38:56.296875,1.75
15:38:56.312500,2.11
15:38:56.328125,2.50
15:38:56.343750,2.81
15:38:56.359375,2.96
15:38:56.375000,2.89
15:38:56.390625,2.62
15:38:56.406250,2.24
15:38:56.421875,1.90
15:38:56.437500,1.71
15:38:56.453125,1.77
15:38:56.468750,2.09
15:38:56.484375,2.56
15:38:56.500000,3.03
15:38:56.515625,3.35
15:38:56.531250,3.41
15:38:56.546875,3.22
15:38:56.562500,2.88
15:38:56.578125,2.51
15:38:56.593750,2.25
15:38:56.609375,2.11
15:38:56.625000,2.06
15:38:56.640625,2.00
15:38:56.656250,1.84
15:38:56.671875,1.58
15:38:56.687500,1.28
15:38:56.703125,1.03
15:38:56.718750,0.90
15:38:56.734375,0.88
15:38:56.750000,0.91
15:38:56.765625,0.90
15:38:56.781250,0.77
15:38:56.796875,0.48
15:38:56.812500,0.06
15:38:56.828125,-0.47
15:38:56.843750,-1.07
15:38:56.859375,-1.73
15:38:56.875000,-2.41
15:38:56.890625,-3.06
15:38:56.906250,-3.62
15:38:56.921875,-4.09
15:38:56.937500,-4.47
15:38:56.953125,-4.80
15:38:56.968750,-5.06
15:38:56.984375,-5.18
15:38:57,-5.04
15:38:57.015625,-4.57
15:38:57.031250,-3.78
15:38:57.046875,-2.83
15:38:57.062500,-1.93
15:38:57.078125,-1.25
15:38:57.093750,-0.85
15:38:57.109375,-0.63
15:38:57.125000,-0.43
15:38:57.140625,-0.10
15:38:57.156250,0.36
15:38:57.171875,0.84
15:38:57.187500,1.17
15:38:57.203125,1.25
15:38:57.218750,1.11
15:38:57.234375,0.88
15:38:57.250000,0.74
15:38:57.265625,0.78
15:38:57.281250,0.95
15:38:57.296875,1.14
15:38:57.312500,1.21
15:38:57.328125,1.09
15:38:57.343750,0.84
15:38:57.359375,0.58
15:38:57.375000,0.47
15:38:57.390625,0.57
15:38:57.406250,0.87
15:38:57.421875,1.25
15:38:57.437500,1.58
15:38:57.453125,1.76
15:38:57.468750,1.76
15:38:57.484375,1.64
15:38:57.500000,1.51
15:38:57.515625,1.47
15:38:57.531250,1.53
15:38:57.546875,1.61
15:38:57.562500,1.59
15:38:57.578125,1.34
15:38:57.593750,0.84
15:38:57.609375,0.15
15:38:57.625000,-0.59
15:38:57.640625,-1.23
15:38:57.656250,-1.71
15:38:57.671875,-2.02
15:38:57.687500,-2.25
15:38:57.703125,-2.45
15:38:57.718750,-2.69
15:38:57.734375,-2.98
15:38:57.750000,-3.29
15:38:57.765625,-3.57
15:38:57.781250,-3.78
15:38:57.796875,-3.90
15:38:57.812500,-3.91
15:38:57.828125,-3.82
15:38:57.843750,-3.60
15:38:57.859375,-3.19
15:38:57.875000,-2.55
15:38:57.890625,-1.68
15:38:57.906250,-0.66
15:38:57.921875,0.33
15:38:57.937500,1.09
15:38:57.953125,1.50
15:38:57.968750,1.57
15:38:57.984375,1.45
15:38:58,1.34
15:38:58.015625,1.41
15:38:58.031250,1.64
15:38:58.046875,1.89
15:38:58.062500,1.99
15:38:58.078125,1.83
15:38:58.093750,1.43
15:38:58.109375,0.95
15:38:58.125000,0.53
15:38:58.140625,0.28
15:38:58.156250,0.22
15:38:58.171875,0.28
15:38:58.187500,0.42
15:38:58.203125,0.59
15:38:58.218750,0.77
15:38:58.234375,0.93
15:38:58.250000,1.01
15:38:58.265625,0.97
15:38:58.281250,0.84
15:38:58.296875,0.68
15:38:58.312500,0.57
15:38:58.328125,0.53
15:38:58.343750,0.52
15:38:58.359375,0.45
15:38:58.375000,0.31
15:38:58.390625,0.12
15:38:58.406250,-0.04
15:38:58.421875,-0.10
15:38:58.437500,-0.10
15:38:58.453125,-0.14
15:38:58.468750,-0.34
15:38:58.484375,-0.72
15:38:58.500000,-1.21
15:38:58.515625,-1.69
15:38:58.531250,-2.09
15:38:58.546875,-2.44
15:38:58.562500,-2.86
15:38:58.578125,-3.45
15:38:58.593750,-4.24
15:38:58.609375,-5.16
15:38:58.625000,-6.08
15:38:58.640625,-6.88
15:38:58.656250,-7.45
15:38:58.671875,-7.71
15:38:58.687500,-7.58
15:38:58.703125,-7.04
15:38:58.718750,-6.12
15:38:58.734375,-4.96
15:38:58.750000,-3.75
15:38:58.765625,-2.70
15:38:58.781250,-2.00
15:38:58.796875,-1.74
15:38:58.812500,-1.95
15:38:58.828125,-2.57
15:38:58.843750,-3.44
15:38:58.859375,-4.32
15:38:58.875000,-4.93
15:38:58.890625,-5.10
15:38:58.906250,-4.80
15:38:58.921875,-4.17
15:38:58.937500,-3.47
15:38:58.953125,-2.90
15:38:58.968750,-2.48
15:38:58.984375,-2.09
15:38:59,-1.54
15:38:59.015625,-0.77
15:38:59.031250,0.14
15:38:59.046875,0.96
15:38:59.062500,1.53
15:38:59.078125,1.81
15:38:59.093750,1.91
15:38:59.109375,1.95
15:38:59.125000,1.93
15:38:59.140625,1.70
15:38:59.156250,1.11
15:38:59.171875,0.10
15:38:59.187500,-1.16
15:38:59.203125,-2.29
15:38:59.218750,-2.95
15:38:59.234375,-2.97
15:38:59.250000,-2.48
15:38:59.265625,-1.80
15:38:59.281250,-1.28
15:38:59.296875,-1.13
15:38:59.312500,-1.37
15:38:59.328125,-1.91
15:38:59.343750,-2.62
15:38:59.359375,-3.43
15:38:59.375000,-4.31
15:38:59.390625,-5.17
15:38:59.406250,-5.91
15:38:59.421875,-6.38
15:38:59.437500,-6.53
15:38:59.453125,-6.42
15:38:59.468750,-6.24
15:38:59.484375,-6.19
15:38:59.500000,-6.39
15:38:59.515625,-6.80
15:38:59.531250,-7.19
15:38:59.546875,-7.27
15:38:59.562500,-6.80
15:38:59.578125,-5.67
15:38:59.593750,-4.00
15:38:59.609375,-2.05
15:38:59.625000,-0.09
15:38:59.640625,1.68
15:38:59.656250,3.30
15:38:59.671875,4.99
15:38:59.687500,7.09
15:38:59.703125,9.93
15:38:59.718750,13.67
15:38:59.734375,18.20
15:38:59.750000,23.21
15:38:59.765625,28.17
15:38:59.781250,32.51
15:38:59.796875,35.69
15:38:59.812500,37.33
15:38:59.828125,37.37
15:38:59.843750,36.09
15:38:59.859375,34.11
15:38:59.875000,32.26
15:38:59.890625,31.24
15:38:59.906250,31.42
15:38:59.921875,32.65
15:38:59.937500,34.32
15:38:59.953125,35.62
15:38:59.968750,35.81
15:38:59.984375,34.47
15:39:00,31.52
15:39:00.015625,27.18
15:39:00.031250,21.80
15:39:00.046875,15.73
15:39:00.062500,9.37
15:39:00.078125,3.16
15:39:00.093750,-2.43
15:39:00.109375,-6.95
15:39:00.125000,-10.12
15:39:00.140625,-11.96
15:39:00.156250,-12.76
15:39:00.171875,-12.97
15:39:00.187500,-12.97
15:39:00.203125,-12.89
15:39:00.218750,-12.59
15:39:00.234375,-11.83
15:39:00.250000,-10.42
15:39:00.265625,-8.41
15:39:00.281250,-6.09
15:39:00.296875,-3.88
15:39:00.312500,-2.11
15:39:00.328125,-0.95
15:39:00.343750,-0.36
15:39:00.359375,-0.22
15:39:00.375000,-0.38
15:39:00.390625,-0.73
15:39:00.406250,-1.20
15:39:00.421875,-1.68
15:39:00.437500,-2.03
15:39:00.453125,-2.14
15:39:00.468750,-1.96
15:39:00.484375,-1.52
15:39:00.500000,-0.90
15:39:00.515625,-0.22
15:39:00.531250,0.41
15:39:00.546875,0.88
15:39:00.562500,1.15
15:39:00.578125,1.19
15:39:00.593750,1.03
15:39:00.609375,0.71
15:39:00.625000,0.25
15:39:00.640625,-0.32
15:39:00.656250,-1.03
15:39:00.671875,-1.83
15:39:00.687500,-2.57
15:39:00.703125,-3.05
15:39:00.718750,-3.09
15:39:00.734375,-2.63
15:39:00.750000,-1.78
15:39:00.765625,-0.84
15:39:00.781250,-0.12
15:39:00.796875,0.22
15:39:00.812500,0.19
15:39:00.828125,-0.00
15:39:00.843750,-0.12
15:39:00.859375,0.04
15:39:00.875000,0.57
15:39:00.890625,1.48
15:39:00.906250,2.75
15:39:00.921875,4.33
15:39:00.937500,6.13
15:39:00.953125,7.99
15:39:00.968750,9.71
15:39:00.984375,11.05
15:39:01,11.89
15:39:01.015625,12.21
15:39:01.031250,12.19
15:39:01.046875,12.19
15:39:01.062500,12.66
15:39:01.078125,14.02
15:39:01.093750,16.52
15:39:01.109375,20.18
15:39:01.125000,24.77
15:39:01.140625,29.90
15:39:01.156250,35.19
15:39:01.171875,40.35
15:39:01.187500,45.27
15:39:01.203125,49.89
15:39:01.218750,54.08
15:39:01.234375,57.61
15:39:01.250000,60.17
15:39:01.265625,61.48
15:39:01.281250,61.45
15:39:01.296875,60.14
15:39:01.312500,57.77
15:39:01.328125,54.60
15:39:01.343750,50.87
15:39:01.359375,46.73
15:39:01.375000,42.11
15:39:01.390625,36.47
15:39:01.406250,28.69
15:39:01.421875,17.22
15:39:01.437500,0.65
15:39:01.453125,-21.68
15:39:01.468750,-49.12
15:39:01.484375,-79.78
15:39:01.500000,-111.17
15:39:01.515625,-140.96
15:39:01.531250,-167.44
15:39:01.546875,-189.54
15:39:01.562500,-206.38
15:39:01.578125,-217.08
15:39:01.593750,-220.94
15:39:01.609375,-217.81
15:39:01.625000,-208.32
15:39:01.640625,-193.73
15:39:01.656250,-175.29
15:39:01.671875,-153.81
15:39:01.687500,-129.65
15:39:01.703125,-103.14
15:39:01.718750,-75.25
15:39:01.734375,-47.70
15:39:01.750000,-22.64
15:39:01.765625,-1.77
15:39:01.781250,14.25
15:39:01.796875,25.99
15:39:01.812500,34.67
15:39:01.828125,41.55
15:39:01.843750,47.39
15:39:01.859375,52.33
15:39:01.875000,56.23
15:39:01.890625,58.97
15:39:01.906250,60.53
15:39:01.921875,61.03
15:39:01.937500,60.64
15:39:01.953125,59.44
15:39:01.968750,57.43
15:39:01.984375,54.64
15:39:02,51.19
15:39:02.015625,47.34
15:39:02.031250,43.49
15:39:02.046875,40.01
15:39:02.062500,37.10
15:39:02.078125,34.72
15:39:02.093750,32.54
15:39:02.109375,30.22
15:39:02.125000,27.51
15:39:02.140625,24.41
15:39:02.156250,21.19
15:39:02.171875,18.23
15:39:02.187500,15.88
15:39:02.203125,14.28
15:39:02.218750,13.37
15:39:02.234375,12.91
15:39:02.250000,12.62
15:39:02.265625,12.22
15:39:02.281250,11.54
15:39:02.296875,10.50
15:39:02.312500,9.15
15:39:02.328125,7.60
15:39:02.343750,6.05
15:39:02.359375,4.70
15:39:02.375000,3.67
15:39:02.390625,3.02
15:39:02.406250,2.68
15:39:02.421875,2.46
15:39:02.437500,2.20
15:39:02.453125,1.75
15:39:02.468750,1.11
15:39:02.484375,0.39
15:39:02.500000,-0.24
15:39:02.515625,-0.62
15:39:02.531250,-0.68
15:39:02.546875,-0.45
15:39:02.562500,-0.01
15:39:02.578125,0.50
15:39:02.593750,1.01
15:39:02.609375,1.44
15:39:02.625000,1.77
15:39:02.640625,2.01
15:39:02.656250,2.18
15:39:02.671875,2.30
15:39:02.687500,2.46
15:39:02.703125,2.69
15:39:02.718750,2.99
15:39:02.734375,3.32
15:39:02.750000,3.55
15:39:02.765625,3.54
15:39:02.781250,3.22
15:39:02.796875,2.55
15:39:02.812500,1.61
15:39:02.828125,0.52
15:39:02.843750,-0.56
15:39:02.859375,-1.51
15:39:02.875000,-2.24
15:39:02.890625,-2.68
15:39:02.906250,-2.80
15:39:02.921875,-2.59
15:39:02.937500,-2.07
15:39:02.953125,-1.26
15:39:02.968750,-0.20
15:39:02.984375,1.00
15:39:03,2.22
15:39:03.015625,3.30
15:39:03.031250,4.12
15:39:03.046875,4.58
15:39:03.062500,4.69
15:39:03.078125,4.51
15:39:03.093750,4.12
15:39:03.109375,3.61
15:39:03.125000,3.05
15:39:03.140625,2.51
15:39:03.156250,2.01
15:39:03.171875,1.59
15:39:03.187500,1.21
15:39:03.203125,0.88
15:39:03.218750,0.54
15:39:03.234375,0.19
15:39:03.250000,-0.19
15:39:03.265625,-0.56
15:39:03.281250,-0.87
15:39:03.296875,-1.10
15:39:03.312500,-1.21
15:39:03.328125,-1.27
15:39:03.343750,-1.31
15:39:03.359375,-1.39
15:39:03.375000,-1.50
15:39:03.390625,-1.58
15:39:03.406250,-1.55
15:39:03.421875,-1.38
15:39:03.437500,-1.15
15:39:03.453125,-1.01
15:39:03.468750,-1.18
15:39:03.484375,-1.76
15:39:03.500000,-2.70
15:39:03.515625,-3.80
15:39:03.531250,-4.81
15:39:03.546875,-5.52
15:39:03.562500,-5.86
15:39:03.578125,-5.88
15:39:03.593750,-5.67
15:39:03.609375,-5.24
15:39:03.625000,-4.57
15:39:03.640625,-3.61
15:39:03.656250,-2.41
15:39:03.671875,-1.11
15:39:03.687500,0.09
15:39:03.703125,1.04
15:39:03.718750,1.72
15:39:03.734375,2.20
15:39:03.750000,2.68
15:39:03.765625,3.29
15:39:03.781250,4.04
15:39:03.796875,4.85
15:39:03.812500,5.59
15:39:03.828125,6.16
15:39:03.843750,6.51
15:39:03.859375,6.70
15:39:03.875000,6.76
15:39:03.890625,6.70
15:39:03.906250,6.49
15:39:03.921875,6.14
15:39:03.937500,5.66
15:39:03.953125,5.17
15:39:03.968750,4.78
15:39:03.984375,4.55
15:39:04,4.48
15:39:04.015625,4.47
15:39:04.031250,4.36
15:39:04.046875,4.05
15:39:04.062500,3.47
15:39:04.078125,2.65
15:39:04.093750,1.67
15:39:04.109375,0.64
15:39:04.125000,-0.37
15:39:04.140625,-1.29
15:39:04.156250,-2.09
15:39:04.171875,-2.76
15:39:04.187500,-3.28
15:39:04.203125,-3.67
15:39:04.218750,-3.96
15:39:04.234375,-4.18
15:39:04.250000,-4.39
15:39:04.265625,-4.63
15:39:04.281250,-4.90
15:39:04.296875,-5.14
15:39:04.312500,-5.25
15:39:04.328125,-5.14
15:39:04.343750,-4.69
15:39:04.359375,-3.87
15:39:04.375000,-2.70
15:39:04.390625,-1.26
15:39:04.406250,0.32
15:39:04.421875,1.88
15:39:04.437500,3.24
15:39:04.453125,4.29
15:39:04.468750,4.97
15:39:04.484375,5.30
15:39:04.500000,5.37
15:39:04.515625,5.29
15:39:04.531250,5.15
15:39:04.546875,5.00
15:39:04.562500,4.84
15:39:04.578125,4.68
15:39:04.593750,4.51
15:39:04.609375,4.33
15:39:04.625000,4.16
15:39:04.640625,3.99
15:39:04.656250,3.82
15:39:04.671875,3.64
15:39:04.687500,3.46
15:39:04.703125,3.24
15:39:04.718750,2.99
15:39:04.734375,2.70
15:39:04.750000,2.40
15:39:04.765625,2.13
15:39:04.781250,1.96
15:39:04.796875,1.89
15:39:04.812500,1.88
15:39:04.828125,1.82
15:39:04.843750,1.58
15:39:04.859375,1.05
15:39:04.875000,0.22
15:39:04.890625,-0.80
15:39:04.906250,-1.77
15:39:04.921875,-2.51
15:39:04.937500,-2.95
15:39:04.953125,-3.17
15:39:04.968750,-3.38
15:39:04.984375,-3.84
15:39:05,-4.63
15:39:05.015625,-5.69
15:39:05.031250,-6.76
15:39:05.046875,-7.53
15:39:05.062500,-7.77
15:39:05.078125,-7.42
15:39:05.093750,-6.59
15:39:05.109375,-5.48
15:39:05.125000,-4.26
15:39:05.140625,-3.06
15:39:05.156250,-1.95
15:39:05.171875,-0.96
15:39:05.187500,-0.10
15:39:05.203125,0.61
15:39:05.218750,1.20
15:39:05.234375,1.71
15:39:05.250000,2.18
15:39:05.265625,2.65
15:39:05.281250,3.11
15:39:05.296875,3.54
15:39:05.312500,3.90
15:39:05.328125,4.15
15:39:05.343750,4.29
15:39:05.359375,4.31
15:39:05.375000,4.21
15:39:05.390625,4.02
15:39:05.406250,3.73
15:39:05.421875,3.39
15:39:05.437500,3.02
15:39:05.453125,2.65
15:39:05.468750,2.30
15:39:05.484375,2.00
15:39:05.500000,1.76
15:39:05.515625,1.64
15:39:05.531250,1.64
15:39:05.546875,1.75
15:39:05.562500,1.85
15:39:05.578125,1.82
15:39:05.593750,1.58
15:39:05.609375,1.12
15:39:05.625000,0.53
15:39:05.640625,-0.07
15:39:05.656250,-0.57
15:39:05.671875,-0.97
15:39:05.687500,-1.34
15:39:05.703125,-1.75
15:39:05.718750,-2.24
15:39:05.734375,-2.83
15:39:05.750000,-3.53
15:39:05.765625,-4.40
15:39:05.781250,-5.49
15:39:05.796875,-6.78
15:39:05.812500,-8.10
15:39:05.828125,-9.13
15:39:05.843750,-9.52
15:39:05.859375,-9.02
15:39:05.875000,-7.63
15:39:05.890625,-5.66
15:39:05.906250,-3.53
15:39:05.921875,-1.65
15:39:05.937500,-0.23
15:39:05.953125,0.75
15:39:05.968750,1.49
15:39:05.984375,2.18
15:39:06,2.93
15:39:06.015625,3.67
15:39:06.031250,4.20
15:39:06.046875,4.36
15:39:06.062500,4.11
15:39:06.078125,3.60
15:39:06.093750,3.06
15:39:06.109375,2.73
15:39:06.125000,2.68
15:39:06.140625,2.80
15:39:06.156250,2.88
15:39:06.171875,2.74
15:39:06.187500,2.36
15:39:06.203125,1.87
15:39:06.218750,1.51
15:39:06.234375,1.40
15:39:06.250000,1.52
15:39:06.265625,1.72
15:39:06.281250,1.76
15:39:06.296875,1.55
15:39:06.312500,1.11
15:39:06.328125,0.58
15:39:06.343750,0.12
15:39:06.359375,-0.19
15:39:06.375000,-0.42
15:39:06.390625,-0.64
15:39:06.406250,-0.95
15:39:06.421875,-1.38
15:39:06.437500,-1.86
15:39:06.453125,-2.34
15:39:06.468750,-2.77
15:39:06.484375,-3.18
15:39:06.500000,-3.64
15:39:06.515625,-4.21
15:39:06.531250,-4.89
15:39:06.546875,-5.60
15:39:06.562500,-6.22
15:39:06.578125,-6.58
15:39:06.593750,-6.57
15:39:06.609375,-6.15
15:39:06.625000,-5.34
15:39:06.640625,-4.22
15:39:06.656250,-2.90
15:39:06.671875,-1.47
15:39:06.687500,-0.02
15:39:06.703125,1.41
15:39:06.718750,2.75
15:39:06.734375,3.88
15:39:06.750000,4.71
15:39:06.765625,5.11
15:39:06.781250,5.05
15:39:06.796875,4.62
15:39:06.812500,3.98
15:39:06.828125,3.35
15:39:06.843750,2.90
15:39:06.859375,2.71
15:39:06.875000,2.73
15:39:06.890625,2.85
15:39:06.906250,2.97
15:39:06.921875,2.99
15:39:06.937500,2.89
15:39:06.953125,2.71
15:39:06.968750,2.52
15:39:06.984375,2.39
15:39:07,2.39
15:39:07.015625,2.50
15:39:07.031250,2.65
15:39:07.046875,2.74
15:39:07.062500,2.70
15:39:07.078125,2.49
15:39:07.093750,2.14
15:39:07.109375,1.71
15:39:07.125000,1.23
15:39:07.140625,0.72
15:39:07.156250,0.17
15:39:07.171875,-0.40
15:39:07.187500,-0.93
15:39:07.203125,-1.38
15:39:07.218750,-1.75
15:39:07.234375,-2.11
15:39:07.250000,-2.59
15:39:07.265625,-3.27
15:39:07.281250,-4.13
15:39:07.296875,-5.03
15:39:07.312500,-5.76
15:39:07.328125,-6.12
15:39:07.343750,-6.01
15:39:07.359375,-5.41
15:39:07.375000,-4.43
15:39:07.390625,-3.19
15:39:07.406250,-1.81
15:39:07.421875,-0.40
15:39:07.437500,0.95
15:39:07.453125,2.13
15:39:07.468750,3.05
15:39:07.484375,3.62
15:39:07.500000,3.80
15:39:07.515625,3.64
15:39:07.531250,3.28
15:39:07.546875,2.89
15:39:07.562500,2.62
15:39:07.578125,2.53
15:39:07.593750,2.60
15:39:07.609375,2.73
15:39:07.625000,2.82
15:39:07.640625,2.79
15:39:07.656250,2.67
15:39:07.671875,2.45
15:39:07.687500,2.20
15:39:07.703125,1.93
15:39:07.718750,1.68
15:39:07.734375,1.45
15:39:07.750000,1.28
15:39:07.765625,1.17
15:39:07.781250,1.15
15:39:07.796875,1.22
15:39:07.812500,1.35
15:39:07.828125,1.49
15:39:07.843750,1.57
15:39:07.859375,1.51
15:39:07.875000,1.25
15:39:07.890625,0.72
15:39:07.906250,-0.06
15:39:07.921875,-1.03
15:39:07.937500,-2.07
15:39:07.953125,-3.03
15:39:07.968750,-3.82
15:39:07.984375,-4.36
15:39:08,-4.72
15:39:08.015625,-5.02
15:39:08.031250,-5.41
15:39:08.046875,-5.99
15:39:08.062500,-6.73
15:39:08.078125,-7.50
15:39:08.093750,-8.06
15:39:08.109375,-8.23
15:39:08.125000,-7.88
15:39:08.140625,-7.01
15:39:08.156250,-5.67
15:39:08.171875,-3.98
15:39:08.187500,-2.09
15:39:08.203125,-0.16
15:39:08.218750,1.64
15:39:08.234375,3.14
15:39:08.250000,4.22
15:39:08.265625,4.80
15:39:08.281250,4.92
15:39:08.296875,4.68
15:39:08.312500,4.28
15:39:08.328125,3.91
15:39:08.343750,3.73
15:39:08.359375,3.82
15:39:08.375000,4.11
15:39:08.390625,4.41
15:39:08.406250,4.54
15:39:08.421875,4.35
15:39:08.437500,3.86
15:39:08.453125,3.24
15:39:08.468750,2.73
15:39:08.484375,2.49
15:39:08.500000,2.58
15:39:08.515625,2.88
15:39:08.531250,3.25
15:39:08.546875,3.52
15:39:08.562500,3.65
15:39:08.578125,3.63
15:39:08.593750,3.48
15:39:08.609375,3.21
15:39:08.625000,2.81
15:39:08.640625,2.29
15:39:08.656250,1.69
15:39:08.671875,1.08
15:39:08.687500,0.56
15:39:08.703125,0.14
15:39:08.718750,-0.21
15:39:08.734375,-0.63
15:39:08.750000,-1.20
15:39:08.765625,-1.96
15:39:08.781250,-2.84
15:39:08.796875,-3.68
15:39:08.812500,-4.37
15:39:08.828125,-4.86
15:39:08.843750,-5.24
15:39:08.859375,-5.66
15:39:08.875000,-6.23
15:39:08.890625,-7.01
15:39:08.906250,-7.90
15:39:08.921875,-8.76
15:39:08.937500,-9.40
15:39:08.953125,-9.67
15:39:08.968750,-9.47
15:39:08.984375,-8.75
15:39:09,-7.50
15:39:09.015625,-5.80
15:39:09.031250,-3.77
15:39:09.046875,-1.63
15:39:09.062500,0.39
15:39:09.078125,2.09
15:39:09.093750,3.39
15:39:09.109375,4.29
15:39:09.125000,4.87
15:39:09.140625,5.22
15:39:09.156250,5.42
15:39:09.171875,5.53
15:39:09.187500,5.60
15:39:09.203125,5.65
15:39:09.218750,5.69
15:39:09.234375,5.69
15:39:09.250000,5.59
15:39:09.265625,5.35
15:39:09.281250,4.98
15:39:09.296875,4.55
15:39:09.312500,4.17
15:39:09.328125,3.95
15:39:09.343750,3.88
15:39:09.359375,3.89
15:39:09.375000,3.85
15:39:09.390625,3.66
15:39:09.406250,3.32
15:39:09.421875,2.95
15:39:09.437500,2.66
15:39:09.453125,2.53
15:39:09.468750,2.53
15:39:09.484375,2.55
15:39:09.500000,2.48
15:39:09.515625,2.27
15:39:09.531250,1.98
15:39:09.546875,1.69
15:39:09.562500,1.49
15:39:09.578125,1.38
15:39:09.593750,1.29
15:39:09.609375,1.08
15:39:09.625000,0.62
15:39:09.640625,-0.15
15:39:09.656250,-1.19
15:39:09.671875,-2.36
15:39:09.687500,-3.51
15:39:09.703125,-4.50
15:39:09.718750,-5.25
15:39:09.734375,-5.78
15:39:09.750000,-6.21
15:39:09.765625,-6.66
15:39:09.781250,-7.24
15:39:09.796875,-7.96
15:39:09.812500,-8.72
15:39:09.828125,-9.36
15:39:09.843750,-9.72
15:39:09.859375,-9.70
15:39:09.875000,-9.23
15:39:09.890625,-8.34
15:39:09.906250,-7.06
15:39:09.921875,-5.45
15:39:09.937500,-3.62
15:39:09.953125,-1.71
15:39:09.968750,0.09
15:39:09.984375,1.61
15:39:10,2.73
15:39:10.015625,3.44
15:39:10.031250,3.84
15:39:10.046875,4.04
15:39:10.062500,4.14
15:39:10.078125,4.15
15:39:10.093750,4.03
15:39:10.109375,3.74
15:39:10.125000,3.31
15:39:10.140625,2.85
15:39:10.156250,2.48
15:39:10.171875,2.32
15:39:10.187500,2.38
15:39:10.203125,2.57
15:39:10.218750,2.75
15:39:10.234375,2.80
15:39:10.250000,2.68
15:39:10.265625,2.40
15:39:10.281250,2.10
15:39:10.296875,1.87
15:39:10.312500,1.83
15:39:10.328125,1.98
15:39:10.343750,2.25
15:39:10.359375,2.52
15:39:10.375000,2.66
15:39:10.390625,2.59
15:39:10.406250,2.35
15:39:10.421875,2.00
15:39:10.437500,1.68
15:39:10.453125,1.47
15:39:10.468750,1.35
15:39:10.484375,1.24
15:39:10.500000,1.03
15:39:10.515625,0.61
15:39:10.531250,0.01
15:39:10.546875,-0.69
15:39:10.562500,-1.37
15:39:10.578125,-1.93
15:39:10.593750,-2.33
15:39:10.609375,-2.62
15:39:10.625000,-2.87
15:39:10.640625,-3.12
15:39:10.656250,-3.37
15:39:10.671875,-3.64
15:39:10.687500,-3.93
15:39:10.703125,-4.32
15:39:10.718750,-4.85
15:39:10.734375,-5.53
15:39:10.750000,-6.21
15:39:10.765625,-6.65
15:39:10.781250,-6.61
15:39:10.796875,-5.95
15:39:10.812500,-4.77
15:39:10.828125,-3.31
15:39:10.843750,-1.85
15:39:10.859375,-0.58
15:39:10.875000,0.52
15:39:10.890625,1.59
15:39:10.906250,2.78
15:39:10.921875,4.10
15:39:10.937500,5.37
15:39:10.953125,6.32
15:39:10.968750,6.76
15:39:10.984375,6.66
15:39:11,6.24
15:39:11.015625,5.83
15:39:11.031250,5.72
15:39:11.046875,5.99
15:39:11.062500,6.48
15:39:11.078125,6.92
15:39:11.093750,7.04
15:39:11.109375,6.74
15:39:11.125000,6.09
15:39:11.140625,5.34
15:39:11.156250,4.72
15:39:11.171875,4.34
15:39:11.187500,4.21
15:39:11.203125,4.20
15:39:11.218750,4.13
15:39:11.234375,3.91
15:39:11.250000,3.52
15:39:11.265625,3.00
15:39:11.281250,2.46
15:39:11.296875,2.00
15:39:11.312500,1.68
15:39:11.328125,1.51
15:39:11.343750,1.43
15:39:11.359375,1.36
15:39:11.375000,1.24
15:39:11.390625,1.02
15:39:11.406250,0.69
15:39:11.421875,0.29
15:39:11.437500,-0.16
15:39:11.453125,-0.62
15:39:11.468750,-1.07
15:39:11.484375,-1.49
15:39:11.500000,-1.86
15:39:11.515625,-2.14
15:39:11.531250,-2.32
15:39:11.546875,-2.43
15:39:11.562500,-2.52
15:39:11.578125,-2.65
15:39:11.593750,-2.90
15:39:11.609375,-3.29
15:39:11.625000,-3.82
15:39:11.640625,-4.42
15:39:11.656250,-5.00
15:39:11.671875,-5.45
15:39:11.687500,-5.66
15:39:11.703125,-5.53
15:39:11.718750,-5.05
15:39:11.734375,-4.21
15:39:11.750000,-3.10
15:39:11.765625,-1.82
15:39:11.781250,-0.50
15:39:11.796875,0.74
15:39:11.812500,1.79
15:39:11.828125,2.60
15:39:11.843750,3.17
15:39:11.859375,3.58
15:39:11.875000,3.90
15:39:11.890625,4.19
15:39:11.906250,4.43
15:39:11.921875,4.58
15:39:11.937500,4.57
15:39:11.953125,4.39
15:39:11.968750,4.11
15:39:11.984375,3.85
15:39:12,3.66
15:39:12.015625,3.54
15:39:12.031250,3.38
15:39:12.046875,3.08
15:39:12.062500,2.65
15:39:12.078125,2.24
15:39:12.093750,2.05
15:39:12.109375,2.24
15:39:12.125000,2.77
15:39:12.140625,3.43
15:39:12.156250,3.94
15:39:12.171875,4.07
15:39:12.187500,3.79
15:39:12.203125,3.24
15:39:12.218750,2.61
15:39:12.234375,2.01
15:39:12.250000,1.47
15:39:12.265625,0.90
15:39:12.281250,0.29
15:39:12.296875,-0.31
15:39:12.312500,-0.77
15:39:12.328125,-0.99
15:39:12.343750,-1.03
15:39:12.359375,-1.05
15:39:12.375000,-1.28
15:39:12.390625,-1.79
15:39:12.406250,-2.50
15:39:12.421875,-3.18
15:39:12.437500,-3.63
15:39:12.453125,-3.79
15:39:12.468750,-3.78
15:39:12.484375,-3.83
15:39:12.500000,-4.12
15:39:12.515625,-4.69
15:39:12.531250,-5.45
15:39:12.546875,-6.23
15:39:12.562500,-6.85
15:39:12.578125,-7.19
15:39:12.593750,-7.19
15:39:12.609375,-6.82
15:39:12.625000,-6.08
15:39:12.640625,-5.00
15:39:12.656250,-3.69
15:39:12.671875,-2.29
15:39:12.687500,-0.98
15:39:12.703125,0.08
15:39:12.718750,0.81
15:39:12.734375,1.22
15:39:12.750000,1.40
15:39:12.765625,1.50
15:39:12.781250,1.66
15:39:12.796875,1.98
15:39:12.812500,2.47
15:39:12.828125,3.04
15:39:12.843750,3.52
15:39:12.859375,3.75
15:39:12.875000,3.63
15:39:12.890625,3.17
15:39:12.906250,2.52
15:39:12.921875,1.86
15:39:12.937500,1.38
15:39:12.953125,1.19
15:39:12.968750,1.28
15:39:12.984375,1.55
15:39:13,1.86
15:39:13.015625,2.09
15:39:13.031250,2.17
15:39:13.046875,2.12
15:39:13.062500,2.02
15:39:13.078125,1.93
15:39:13.093750,1.91
15:39:13.109375,1.95
15:39:13.125000,2.01
15:39:13.140625,2.06
15:39:13.156250,2.03
15:39:13.171875,1.92
15:39:13.187500,1.68
15:39:13.203125,1.30
15:39:13.218750,0.78
15:39:13.234375,0.15
15:39:13.250000,-0.49
15:39:13.265625,-1.05
15:39:13.281250,-1.45
15:39:13.296875,-1.67
15:39:13.312500,-1.76
15:39:13.328125,-1.82
15:39:13.343750,-1.94
15:39:13.359375,-2.16
15:39:13.375000,-2.48
15:39:13.390625,-2.88
15:39:13.406250,-3.33
15:39:13.421875,-3.85
15:39:13.437500,-4.45
15:39:13.453125,-5.16
15:39:13.468750,-5.95
15:39:13.484375,-6.71
15:39:13.500000,-7.27
15:39:13.515625,-7.46
15:39:13.531250,-7.13
15:39:13.546875,-6.27
15:39:13.562500,-5.03
15:39:13.578125,-3.65
15:39:13.593750,-2.38
15:39:13.609375,-1.39
15:39:13.625000,-0.65
15:39:13.640625,-0.06
15:39:13.656250,0.55
15:39:13.671875,1.24
15:39:13.687500,1.97
15:39:13.703125,2.58
15:39:13.718750,2.91
15:39:13.734375,2.93
15:39:13.750000,2.73
15:39:13.765625,2.49
15:39:13.781250,2.38
15:39:13.796875,2.49
15:39:13.812500,2.73
15:39:13.828125,2.96
15:39:13.843750,3.06
15:39:13.859375,2.98
15:39:13.875000,2.76
15:39:13.890625,2.51
15:39:13.906250,2.29
15:39:13.921875,2.12
15:39:13.937500,1.96
15:39:13.953125,1.77
15:39:13.968750,1.57
15:39:13.984375,1.43
15:39:14,1.42
15:39:14.015625,1.53
15:39:14.031250,1.66
15:39:14.046875,1.69
15:39:14.062500,1.50
15:39:14.078125,1.07
15:39:14.093750,0.44
