9:23:36,-0.00
9:23:36.015625,-0.00
9:23:36.031250,-0.00
9:23:36.046875,-0.00
9:23:36.062500,-0.00
9:23:36.078125,-0.00
9:23:36.093750,-0.00
9:23:36.109375,-0.00
9:23:36.125000,-0.00
9:23:36.140625,-0.00
9:23:36.156250,0.00
9:23:36.171875,0.01
9:23:36.187500,0.01
9:23:36.203125,-0.00
9:23:36.218750,-0.03
9:23:36.234375,-0.05
9:23:36.250000,-0.05
9:23:36.265625,0.00
9:23:36.281250,0.13
9:23:36.296875,0.36
9:23:36.312500,0.66
9:23:36.328125,1.01
9:23:36.343750,1.37
9:23:36.359375,1.72
9:23:36.375000,2.06
9:23:36.390625,2.40
9:23:36.406250,2.79
9:23:36.421875,3.24
9:23:36.437500,3.80
9:23:36.453125,4.42
9:23:36.468750,5.06
9:23:36.484375,5.66
9:23:36.500000,6.20
9:23:36.515625,6.68
9:23:36.531250,7.15
9:23:36.546875,7.68
9:23:36.562500,8.31
9:23:36.578125,9.14
9:23:36.593750,10.09
9:23:36.609375,11.04
9:23:36.625000,11.88
9:23:36.640625,12.56
9:23:36.656250,13.14
9:23:36.671875,13.76
9:23:36.687500,14.65
9:23:36.703125,15.96
9:23:36.718750,17.91
9:23:36.734375,20.32
9:23:36.750000,22.90
9:23:36.765625,25.38
9:23:36.781250,27.58
9:23:36.796875,29.57
9:23:36.812500,31.68
9:23:36.828125,34.32
9:23:36.843750,37.81
9:23:36.859375,42.54
9:23:36.875000,48.15
9:23:36.890625,54.10
9:23:36.906250,59.83
9:23:36.921875,64.97
9:23:36.937500,69.58
9:23:36.953125,74.14
9:23:36.968750,79.34
9:23:36.984375,85.71
9:23:37,93.76
9:23:37.015625,103.00
9:23:37.031250,112.62
9:23:37.046875,121.73
9:23:37.062500,129.77
9:23:37.078125,136.75
9:23:37.093750,143.30
9:23:37.109375,150.75
9:23:37.125000,157.77
9:23:37.140625,166.64
9:23:37.156250,177.95
9:23:37.171875,191.79
9:23:37.187500,206.97
9:23:37.203125,220.57
9:23:37.218750,228.25
9:23:37.234375,225.36
9:23:37.250000,208.53
9:23:37.265625,176.87
9:23:37.281250,132.76
9:23:37.296875,80.05
9:23:37.312500,23.07
9:23:37.328125,-34.94
9:23:37.343750,-92.44
9:23:37.359375,-149.16
9:23:37.375000,-205.23
9:23:37.390625,-260.37
9:23:37.406250,-313.74
9:23:37.421875,-363.87
9:23:37.437500,-409.83
9:23:37.453125,-450.91
9:23:37.468750,-486.50
9:23:37.484375,-515.74
9:23:37.500000,-537.23
9:23:37.515625,-549.22
9:23:37.531250,-549.96
9:23:37.546875,-538.37
9:23:37.562500,-514.21
9:23:37.578125,-478.67
9:23:37.593750,-433.88
9:23:37.609375,-382.45
9:23:37.625000,-327.02
9:23:37.640625,-269.84
9:23:37.656250,-212.63
9:23:37.671875,-156.66
9:23:37.687500,-102.95
9:23:37.703125,-52.37
9:23:37.718750,-5.90
9:23:37.734375,35.58
9:23:37.750000,71.43
9:23:37.765625,101.35
9:23:37.781250,125.50
9:23:37.796875,144.38
9:23:37.812500,158.69
9:23:37.828125,169.15
9:23:37.843750,176.37
9:23:37.859375,180.75
9:23:37.875000,182.57
9:23:37.890625,182.07
9:23:37.906250,179.51
9:23:37.921875,175.23
9:23:37.937500,169.65
9:23:37.953125,163.18
9:23:37.968750,156.15
9:23:37.984375,148.81
9:23:38,141.30
9:23:38.015625,133.69
9:23:38.031250,126.02
9:23:38.046875,118.33
9:23:38.062500,110.69
9:23:38.078125,103.16
9:23:38.093750,95.80
9:23:38.109375,88.68
9:23:38.125000,81.83
9:23:38.140625,75.25
9:23:38.156250,68.95
9:23:38.171875,62.95
9:23:38.187500,57.25
9:23:38.203125,51.86
9:23:38.218750,46.78
9:23:38.234375,42.03
9:23:38.250000,37.59
9:23:38.265625,33.45
9:23:38.281250,29.61
9:23:38.296875,26.07
9:23:38.312500,22.81
9:23:38.328125,19.83
9:23:38.343750,17.11
9:23:38.359375,14.67
9:23:38.375000,12.48
9:23:38.390625,10.54
9:23:38.406250,8.83
9:23:38.421875,7.35
9:23:38.437500,6.07
9:23:38.453125,4.97
9:23:38.468750,4.05
9:23:38.484375,3.27
9:23:38.500000,2.62
9:23:38.515625,2.09
9:23:38.531250,1.65
9:23:38.546875,1.30
9:23:38.562500,1.01
9:23:38.578125,0.79
9:23:38.593750,0.61
9:23:38.609375,0.48
9:23:38.625000,0.38
9:23:38.640625,0.30
9:23:38.656250,0.26
9:23:38.671875,0.23
9:23:38.687500,0.21
9:23:38.703125,0.21
9:23:38.718750,0.22
9:23:38.734375,0.24
9:23:38.750000,0.27
9:23:38.765625,0.30
9:23:38.781250,0.34
9:23:38.796875,0.38
9:23:38.812500,0.42
9:23:38.828125,0.47
9:23:38.843750,0.51
9:23:38.859375,0.56
9:23:38.875000,0.61
9:23:38.890625,0.67
9:23:38.906250,0.72
9:23:38.921875,0.78
9:23:38.937500,0.85
9:23:38.953125,0.92
9:23:38.968750,1.00
9:23:38.984375,1.09
9:23:39,1.18
9:23:39.015625,1.29
9:23:39.031250,1.41
9:23:39.046875,1.55
9:23:39.062500,1.70
9:23:39.078125,1.87
9:23:39.093750,2.06
9:23:39.109375,2.27
9:23:39.125000,2.51
9:23:39.140625,2.77
9:23:39.156250,3.06
9:23:39.171875,3.37
9:23:39.187500,3.72
9:23:39.203125,4.09
9:23:39.218750,4.51
9:23:39.234375,4.96
9:23:39.250000,5.45
9:23:39.265625,5.97
9:23:39.281250,6.54
9:23:39.296875,7.14
9:23:39.312500,7.79
9:23:39.328125,8.49
9:23:39.343750,9.23
9:23:39.359375,10.01
9:23:39.375000,10.84
9:23:39.390625,11.71
9:23:39.406250,12.64
9:23:39.421875,13.60
9:23:39.437500,14.64
9:23:39.453125,15.72
9:23:39.468750,16.88
9:23:39.484375,18.10
9:23:39.500000,19.37
9:23:39.515625,20.67
9:23:39.531250,21.96
9:23:39.546875,23.17
9:23:39.562500,24.22
9:23:39.578125,24.98
9:23:39.593750,25.34
9:23:39.609375,25.16
9:23:39.625000,24.35
9:23:39.640625,22.83
9:23:39.656250,20.56
9:23:39.671875,17.59
9:23:39.687500,13.96
9:23:39.703125,9.83
9:23:39.718750,5.37
9:23:39.734375,0.75
9:23:39.750000,-3.81
9:23:39.765625,-8.14
9:23:39.781250,-12.04
9:23:39.796875,-15.36
9:23:39.812500,-17.97
9:23:39.828125,-19.80
9:23:39.843750,-20.83
9:23:39.859375,-21.13
9:23:39.875000,-20.84
9:23:39.890625,-20.11
9:23:39.906250,-19.09
9:23:39.921875,-17.91
9:23:39.937500,-16.65
9:23:39.953125,-15.33
9:23:39.968750,-13.92
9:23:39.984375,-12.40
9:23:40,-10.80
9:23:40.015625,-9.20
9:23:40.031250,-7.68
9:23:40.046875,-6.30
9:23:40.062500,-5.08
9:23:40.078125,-3.94
9:23:40.093750,-2.78
9:23:40.109375,-1.43
9:23:40.125000,0.23
9:23:40.140625,2.08
9:23:40.156250,3.95
9:23:40.171875,5.59
9:23:40.187500,6.83
9:23:40.203125,7.61
9:23:40.218750,8.05
9:23:40.234375,8.47
9:23:40.250000,9.24
9:23:40.265625,10.69
9:23:40.281250,12.59
9:23:40.296875,14.57
9:23:40.312500,16.15
9:23:40.328125,16.89
9:23:40.343750,16.66
9:23:40.359375,15.68
9:23:40.375000,14.50
9:23:40.390625,13.81
9:23:40.406250,14.20
9:23:40.421875,15.34
9:23:40.437500,16.62
9:23:40.453125,17.22
9:23:40.468750,16.43
9:23:40.484375,13.96
9:23:40.500000,10.11
9:23:40.515625,5.60
9:23:40.531250,1.35
9:23:40.546875,-1.81
9:23:40.562500,-4.25
9:23:40.578125,-6.66
9:23:40.593750,-10.09
9:23:40.609375,-15.81
9:23:40.625000,-25.25
9:23:40.640625,-39.72
9:23:40.656250,-60.23
9:23:40.671875,-87.34
9:23:40.687500,-115.84
9:23:40.703125,-141.26
9:23:40.718750,-159.05
9:23:40.734375,-165.82
9:23:40.750000,-160.68
9:23:40.765625,-145.56
9:23:40.781250,-124.45
9:23:40.796875,-101.85
9:23:40.812500,-80.99
9:23:40.828125,-63.04
9:23:40.843750,-48.11
9:23:40.859375,-35.30
9:23:40.875000,-23.90
9:23:40.890625,-13.79
9:23:40.906250,-5.23
9:23:40.921875,1.70
9:23:40.937500,7.47
9:23:40.953125,12.96
9:23:40.968750,19.05
9:23:40.984375,25.58
9:23:41,31.95
9:23:41.015625,37.20
9:23:41.031250,40.46
9:23:41.046875,41.38
9:23:41.062500,40.30
9:23:41.078125,38.02
9:23:41.093750,35.57
9:23:41.109375,33.71
9:23:41.125000,32.50
9:23:41.140625,31.65
9:23:41.156250,30.66
9:23:41.171875,29.07
9:23:41.187500,26.64
9:23:41.203125,23.40
9:23:41.218750,19.62
9:23:41.234375,15.68
9:23:41.250000,11.99
9:23:41.265625,8.67
9:23:41.281250,5.69
9:23:41.296875,2.89
9:23:41.312500,-0.02
9:23:41.328125,-3.24
9:23:41.343750,-6.95
9:23:41.359375,-11.11
9:23:41.375000,-15.62
9:23:41.390625,-20.33
9:23:41.406250,-25.07
9:23:41.421875,-29.65
9:23:41.437500,-33.67
9:23:41.453125,-36.50
9:23:41.468750,-37.34
9:23:41.484375,-35.46
9:23:41.500000,-30.46
9:23:41.515625,-22.53
9:23:41.531250,-12.49
9:23:41.546875,-1.50
9:23:41.562500,9.19
9:23:41.578125,18.64
9:23:41.593750,26.27
9:23:41.609375,31.86
9:23:41.625000,35.35
9:23:41.640625,36.70
9:23:41.656250,35.97
9:23:41.671875,33.37
9:23:41.687500,29.45
9:23:41.703125,25.04
9:23:41.718750,21.11
9:23:41.734375,18.42
9:23:41.750000,17.31
9:23:41.765625,17.59
9:23:41.781250,18.64
9:23:41.796875,19.69
9:23:41.812500,20.07
9:23:41.828125,19.47
9:23:41.843750,17.97
9:23:41.859375,15.92
9:23:41.875000,13.75
9:23:41.890625,11.75
9:23:41.906250,9.95
9:23:41.921875,8.05
9:23:41.937500,5.53
9:23:41.953125,1.83
9:23:41.968750,-3.45
9:23:41.984375,-10.23
9:23:42,-17.74
9:23:42.015625,-24.50
9:23:42.031250,-28.44
9:23:42.046875,-27.49
9:23:42.062500,-20.25
9:23:42.078125,-6.68
9:23:42.093750,11.87
9:23:42.109375,33.01
9:23:42.125000,54.21
9:23:42.140625,73.70
9:23:42.156250,90.82
9:23:42.171875,105.86
9:23:42.187500,119.38
9:23:42.203125,131.70
9:23:42.218750,142.57
9:23:42.234375,151.36
9:23:42.250000,157.32
9:23:42.265625,159.68
9:23:42.281250,157.52
9:23:42.296875,149.72
9:23:42.312500,135.15
9:23:42.328125,113.27
9:23:42.343750,84.90
9:23:42.359375,52.53
9:23:42.375000,20.02
9:23:42.390625,-8.46
9:23:42.406250,-29.52
9:23:42.421875,-41.25
9:23:42.437500,-43.27
9:23:42.453125,-36.46
9:23:42.468750,-22.59
9:23:42.484375,-3.82
9:23:42.500000,17.43
9:23:42.515625,38.53
9:23:42.531250,56.71
9:23:42.546875,69.43
9:23:42.562500,74.95
9:23:42.578125,72.98
9:23:42.593750,64.97
9:23:42.609375,53.80
9:23:42.625000,43.17
9:23:42.640625,36.59
9:23:42.656250,36.19
9:23:42.671875,41.99
9:23:42.687500,51.76
9:23:42.703125,61.99
9:23:42.718750,69.15
9:23:42.734375,70.59
9:23:42.750000,64.57
9:23:42.765625,51.14
9:23:42.781250,32.55
9:23:42.796875,12.95
9:23:42.812500,-2.69
9:23:42.828125,-10.36
9:23:42.843750,-8.63
9:23:42.859375,0.48
9:23:42.875000,11.93
9:23:42.890625,18.18
9:23:42.906250,12.70
9:23:42.921875,-7.49
9:23:42.937500,-41.02
9:23:42.953125,-83.43
9:23:42.968750,-129.08
9:23:42.984375,-172.70
9:23:43,-209.94
9:23:43.015625,-237.78
9:23:43.031250,-256.54
9:23:43.046875,-267.78
9:23:43.062500,-273.05
9:23:43.078125,-273.16
9:23:43.093750,-268.47
9:23:43.109375,-259.33
9:23:43.125000,-246.01
9:23:43.140625,-228.32
9:23:43.156250,-205.95
9:23:43.171875,-181.50
9:23:43.187500,-158.23
9:23:43.203125,-138.95
9:23:43.218750,-125.10
9:23:43.234375,-117.17
9:23:43.250000,-115.01
9:23:43.265625,-117.67
9:23:43.281250,-122.62
9:23:43.296875,-111.96
9:23:43.312500,-74.30
9:23:43.328125,-11.09
9:23:43.343750,63.49
9:23:43.359375,133.64
9:23:43.375000,190.91
9:23:43.390625,234.35
9:23:43.406250,266.08
9:23:43.421875,288.80
9:23:43.437500,304.28
9:23:43.453125,311.15
9:23:43.468750,308.45
9:23:43.484375,297.82
9:23:43.500000,282.82
9:23:43.515625,267.82
9:23:43.531250,255.93
9:23:43.546875,247.51
9:23:43.562500,241.50
9:23:43.578125,236.23
9:23:43.593750,228.38
9:23:43.609375,215.63
9:23:43.625000,197.69
9:23:43.640625,175.97
9:23:43.656250,151.53
9:23:43.671875,128.42
9:23:43.687500,107.22
9:23:43.703125,87.12
9:23:43.718750,66.96
9:23:43.734375,44.88
9:23:43.750000,20.02
9:23:43.765625,-7.01
9:23:43.781250,-34.38
9:23:43.796875,-60.19
9:23:43.812500,-83.43
9:23:43.828125,-104.83
9:23:43.843750,-125.53
9:23:43.859375,-146.78
9:23:43.875000,-170.29
9:23:43.890625,-197.39
9:23:43.906250,-228.15
9:23:43.921875,-260.74
9:23:43.937500,-291.33
9:23:43.953125,-314.86
9:23:43.968750,-327.08
9:23:43.984375,-325.50
9:23:44,-310.62
9:23:44.015625,-286.00
9:23:44.031250,-256.67
9:23:44.046875,-227.01
9:23:44.062500,-199.36
9:23:44.078125,-174.12
9:23:44.093750,-150.80
9:23:44.109375,-129.75
9:23:44.125000,-112.10
9:23:44.140625,-99.05
9:23:44.156250,-90.60
9:23:44.171875,-84.82
9:23:44.187500,-78.33
9:23:44.203125,-67.79
9:23:44.218750,-51.78
9:23:44.234375,-31.72
9:23:44.250000,-11.54
9:23:44.265625,4.03
9:23:44.281250,11.50
9:23:44.296875,10.04
9:23:44.312500,1.56
9:23:44.328125,-10.16
9:23:44.343750,-21.18
9:23:44.359375,-28.71
9:23:44.375000,-31.77
9:23:44.390625,-31.08
9:23:44.406250,-28.14
9:23:44.421875,-24.47
9:23:44.437500,-21.32
9:23:44.453125,-19.48
9:23:44.468750,-19.45
9:23:44.484375,-21.35
9:23:44.500000,-24.60
9:23:44.515625,-27.79
9:23:44.531250,-28.87
9:23:44.546875,-25.86
9:23:44.562500,-17.73
9:23:44.578125,-5.01
9:23:44.593750,10.45
9:23:44.609375,26.27
9:23:44.625000,40.61
9:23:44.640625,52.65
9:23:44.656250,62.36
9:23:44.671875,69.45
9:23:44.687500,72.50
9:23:44.703125,68.80
9:23:44.718750,55.17
9:23:44.734375,29.59
9:23:44.750000,-7.37
9:23:44.765625,-52.04
9:23:44.781250,-98.52
9:23:44.796875,-140.47
9:23:44.812500,-172.96
9:23:44.828125,-193.52
9:23:44.843750,-202.08
9:23:44.859375,-200.00
9:23:44.875000,-189.05
9:23:44.890625,-170.81
9:23:44.906250,-146.69
9:23:44.921875,-118.30
9:23:44.937500,-87.56
9:23:44.953125,-56.24
9:23:44.968750,-25.32
9:23:44.984375,5.60
9:23:45,38.02
9:23:45.015625,73.37
9:23:45.031250,111.62
9:23:45.046875,150.30
9:23:45.062500,184.64
9:23:45.078125,209.01
9:23:45.093750,218.94
9:23:45.109375,212.89
9:23:45.125000,192.89
9:23:45.140625,163.76
9:23:45.156250,131.45
9:23:45.171875,101.11
9:23:45.187500,75.93
9:23:45.203125,56.97
9:23:45.218750,43.92
9:23:45.234375,35.86
9:23:45.250000,32.11
9:23:45.265625,32.14
9:23:45.281250,35.54
9:23:45.296875,41.57
9:23:45.312500,49.23
9:23:45.328125,57.39
9:23:45.343750,65.08
9:23:45.359375,71.73
9:23:45.375000,77.05
9:23:45.390625,80.76
9:23:45.406250,82.38
9:23:45.421875,81.10
9:23:45.437500,76.03
9:23:45.453125,66.58
9:23:45.468750,53.00
9:23:45.484375,36.46
9:23:45.500000,18.98
9:23:45.515625,2.80
9:23:45.531250,-10.30
9:23:45.546875,-19.51
9:23:45.562500,-25.28
9:23:45.578125,-28.99
9:23:45.593750,-32.45
9:23:45.609375,-37.22
9:23:45.625000,-44.08
9:23:45.640625,-52.84
9:23:45.656250,-62.32
9:23:45.671875,-70.68
9:23:45.687500,-75.94
9:23:45.703125,-76.44
9:23:45.718750,-71.36
9:23:45.734375,-60.97
9:23:45.750000,-46.43
9:23:45.765625,-29.42
9:23:45.781250,-11.64
9:23:45.796875,5.54
9:23:45.812500,21.11
9:23:45.828125,34.21
9:23:45.843750,43.92
9:23:45.859375,49.17
9:23:45.875000,49.10
9:23:45.890625,43.47
9:23:45.906250,33.18
9:23:45.921875,20.26
9:23:45.937500,7.55
9:23:45.953125,-2.16
9:23:45.968750,-6.84
9:23:45.984375,-5.65
9:23:46,0.93
9:23:46.015625,11.62
9:23:46.031250,24.80
9:23:46.046875,39.06
9:23:46.062500,53.37
9:23:46.078125,67.05
9:23:46.093750,79.49
9:23:46.109375,90.02
9:23:46.125000,97.87
9:23:46.140625,102.34
9:23:46.156250,103.07
9:23:46.171875,100.33
9:23:46.187500,94.90
9:23:46.203125,87.87
9:23:46.218750,80.29
9:23:46.234375,72.95
9:23:46.250000,66.25
9:23:46.265625,60.34
9:23:46.281250,55.29
9:23:46.296875,51.19
9:23:46.312500,48.19
9:23:46.328125,46.43
9:23:46.343750,45.89
9:23:46.359375,46.37
9:23:46.375000,47.49
9:23:46.390625,48.74
9:23:46.406250,49.63
9:23:46.421875,49.77
9:23:46.437500,48.93
9:23:46.453125,47.09
9:23:46.468750,44.38
9:23:46.484375,41.01
9:23:46.500000,37.14
9:23:46.515625,32.79
9:23:46.531250,27.86
9:23:46.546875,22.25
9:23:46.562500,15.95
9:23:46.578125,9.21
9:23:46.593750,2.51
9:23:46.609375,-3.52
9:23:46.625000,-8.23
9:23:46.640625,-11.20
9:23:46.656250,-12.48
9:23:46.671875,-12.78
9:23:46.687500,-13.46
9:23:46.703125,-16.24
9:23:46.718750,-22.74
9:23:46.734375,-33.84
9:23:46.750000,-49.19
9:23:46.765625,-67.04
9:23:46.781250,-84.62
9:23:46.796875,-98.89
9:23:46.812500,-107.39
9:23:46.828125,-108.96
9:23:46.843750,-103.93
9:23:46.859375,-93.88
9:23:46.875000,-80.98
9:23:46.890625,-67.32
9:23:46.906250,-54.37
9:23:46.921875,-42.78
9:23:46.937500,-32.55
9:23:46.953125,-23.42
9:23:46.968750,-15.30
9:23:46.984375,-8.44
9:23:47,-3.34
9:23:47.015625,-0.38
9:23:47.031250,0.54
9:23:47.046875,0.06
9:23:47.062500,-0.76
9:23:47.078125,-0.90
9:23:47.093750,0.35
9:23:47.109375,3.31
9:23:47.125000,7.96
9:23:47.140625,14.16
9:23:47.156250,21.52
9:23:47.171875,29.21
9:23:47.187500,35.93
9:23:47.203125,40.13
9:23:47.218750,40.74
9:23:47.234375,37.90
9:23:47.250000,33.30
9:23:47.265625,29.86
9:23:47.281250,30.62
9:23:47.296875,37.49
9:23:47.312500,50.49
9:23:47.328125,67.72
9:23:47.343750,86.14
9:23:47.359375,102.59
9:23:47.375000,114.70
9:23:47.390625,121.21
9:23:47.406250,121.85
9:23:47.421875,116.97
9:23:47.437500,107.25
9:23:47.453125,93.50
9:23:47.468750,76.66
9:23:47.484375,57.72
9:23:47.500000,37.58
9:23:47.515625,17.09
9:23:47.531250,-2.91
9:23:47.546875,-21.45
9:23:47.562500,-37.32
9:23:47.578125,-49.22
9:23:47.593750,-56.22
9:23:47.609375,-58.27
9:23:47.625000,-56.47
9:23:47.640625,-52.76
9:23:47.656250,-49.14
9:23:47.671875,-46.88
9:23:47.687500,-45.92
9:23:47.703125,-45.05
9:23:47.718750,-42.59
9:23:47.734375,-37.27
9:23:47.750000,-28.90
9:23:47.765625,-18.40
9:23:47.781250,-7.36
9:23:47.796875,2.54
9:23:47.812500,10.08
9:23:47.828125,14.65
9:23:47.843750,16.22
9:23:47.859375,15.24
9:23:47.875000,12.37
9:23:47.890625,8.52
9:23:47.906250,4.74
9:23:47.921875,2.15
9:23:47.937500,1.70
9:23:47.953125,3.91
9:23:47.968750,8.58
9:23:47.984375,14.75
9:23:48,20.93
9:23:48.015625,25.43
9:23:48.031250,26.98
9:23:48.046875,25.10
9:23:48.062500,20.30
9:23:48.078125,13.89
9:23:48.093750,7.58
9:23:48.109375,2.84
9:23:48.125000,0.52
9:23:48.140625,0.62
9:23:48.156250,2.30
9:23:48.171875,4.32
9:23:48.187500,5.53
9:23:48.203125,5.25
9:23:48.218750,3.48
9:23:48.234375,0.75
9:23:48.250000,-2.33
9:23:48.265625,-5.40
9:23:48.281250,-8.59
9:23:48.296875,-12.31
9:23:48.312500,-16.91
9:23:48.328125,-22.37
9:23:48.343750,-28.26
9:23:48.359375,-33.91
9:23:48.375000,-38.88
9:23:48.390625,-43.11
9:23:48.406250,-46.82
9:23:48.421875,-50.24
9:23:48.437500,-53.33
9:23:48.453125,-55.85
9:23:48.468750,-57.58
9:23:48.484375,-58.68
9:23:48.500000,-59.76
9:23:48.515625,-61.57
9:23:48.531250,-64.50
9:23:48.546875,-68.12
9:23:48.562500,-71.14
9:23:48.578125,-71.88
9:23:48.593750,-68.85
9:23:48.609375,-61.43
9:23:48.625000,-49.93
9:23:48.640625,-35.44
9:23:48.656250,-19.41
9:23:48.671875,-3.29
9:23:48.687500,11.67
9:23:48.703125,24.46
9:23:48.718750,34.35
9:23:48.734375,40.92
9:23:48.750000,44.21
9:23:48.765625,44.72
9:23:48.781250,43.29
9:23:48.796875,40.89
9:23:48.812500,38.21
9:23:48.828125,35.58
9:23:48.843750,32.93
9:23:48.859375,30.10
9:23:48.875000,26.96
9:23:48.890625,23.67
9:23:48.906250,20.61
9:23:48.921875,18.23
9:23:48.937500,16.90
9:23:48.953125,16.64
9:23:48.968750,17.24
9:23:48.984375,18.30
9:23:49,19.30
9:23:49.015625,19.87
9:23:49.031250,19.69
9:23:49.046875,18.65
9:23:49.062500,16.79
9:23:49.078125,14.35
9:23:49.093750,11.74
9:23:49.109375,9.48
9:23:49.125000,8.01
9:23:49.140625,7.48
9:23:49.156250,7.64
9:23:49.171875,7.84
9:23:49.187500,7.27
9:23:49.203125,5.30
9:23:49.218750,1.65
9:23:49.234375,-3.48
9:23:49.250000,-9.61
9:23:49.265625,-16.13
9:23:49.281250,-22.42
9:23:49.296875,-27.91
9:23:49.312500,-32.15
9:23:49.328125,-34.82
9:23:49.343750,-36.02
9:23:49.359375,-36.32
9:23:49.375000,-36.57
9:23:49.390625,-37.50
9:23:49.406250,-39.22
9:23:49.421875,-41.00
9:23:49.437500,-41.52
9:23:49.453125,-39.51
9:23:49.468750,-34.35
9:23:49.484375,-26.37
9:23:49.500000,-16.58
9:23:49.515625,-6.19
9:23:49.531250,3.95
9:23:49.546875,13.39
9:23:49.562500,21.89
9:23:49.578125,29.14
9:23:49.593750,34.56
9:23:49.609375,37.66
9:23:49.625000,38.30
9:23:49.640625,36.89
9:23:49.656250,34.32
9:23:49.671875,31.58
9:23:49.687500,29.31
9:23:49.703125,27.64
9:23:49.718750,26.29
9:23:49.734375,24.90
9:23:49.750000,23.34
9:23:49.765625,21.87
9:23:49.781250,20.99
9:23:49.796875,21.05
9:23:49.812500,22.07
9:23:49.828125,23.57
9:23:49.843750,24.80
9:23:49.859375,24.97
9:23:49.875000,23.71
9:23:49.890625,21.05
9:23:49.906250,17.45
9:23:49.921875,13.49
9:23:49.937500,9.57
9:23:49.953125,5.84
9:23:49.968750,2.16
9:23:49.984375,-1.73
9:23:50,-5.96
9:23:50.015625,-10.46
9:23:50.031250,-14.99
9:23:50.046875,-19.23
9:23:50.062500,-22.98
9:23:50.078125,-26.23
9:23:50.093750,-29.23
9:23:50.109375,-32.39
9:23:50.125000,-36.15
9:23:50.140625,-40.80
9:23:50.156250,-46.36
9:23:50.171875,-52.47
9:23:50.187500,-58.39
9:23:50.203125,-63.09
9:23:50.218750,-65.53
9:23:50.234375,-64.89
9:23:50.250000,-60.87
9:23:50.265625,-53.79
9:23:50.281250,-44.50
9:23:50.296875,-34.19
9:23:50.312500,-24.03
9:23:50.328125,-14.79
9:23:50.343750,-6.81
9:23:50.359375,0.02
9:23:50.375000,6.03
9:23:50.390625,11.49
9:23:50.406250,16.52
9:23:50.421875,21.01
9:23:50.437500,24.72
9:23:50.453125,27.37
9:23:50.468750,28.83
9:23:50.484375,29.09
9:23:50.500000,28.38
9:23:50.515625,27.00
9:23:50.531250,25.26
9:23:50.546875,23.44
9:23:50.562500,21.70
9:23:50.578125,20.23
9:23:50.593750,19.17
9:23:50.609375,18.70
9:23:50.625000,18.89
9:23:50.640625,19.67
9:23:50.656250,20.78
9:23:50.671875,21.77
9:23:50.687500,22.14
9:23:50.703125,21.52
9:23:50.718750,19.75
9:23:50.734375,16.89
9:23:50.750000,13.19
9:23:50.765625,8.93
9:23:50.781250,4.41
9:23:50.796875,-0.20
9:23:50.812500,-4.80
9:23:50.828125,-9.29
9:23:50.843750,-13.61
9:23:50.859375,-17.71
9:23:50.875000,-21.61
9:23:50.890625,-25.46
9:23:50.906250,-29.59
9:23:50.921875,-34.47
9:23:50.937500,-40.55
9:23:50.953125,-47.93
9:23:50.968750,-56.19
9:23:50.984375,-64.20
9:23:51,-70.38
9:23:51.015625,-73.07
9:23:51.031250,-71.04
9:23:51.046875,-63.99
9:23:51.062500,-52.60
9:23:51.078125,-38.44
9:23:51.093750,-23.43
9:23:51.109375,-9.37
9:23:51.125000,2.55
9:23:51.140625,11.86
9:23:51.156250,18.72
9:23:51.171875,23.69
9:23:51.187500,27.36
9:23:51.203125,30.15
9:23:51.218750,32.25
9:23:51.234375,33.66
9:23:51.250000,34.30
9:23:51.265625,34.02
9:23:51.281250,32.72
9:23:51.296875,30.27
9:23:51.312500,26.66
9:23:51.328125,22.12
9:23:51.343750,17.24
9:23:51.359375,12.95
9:23:51.375000,10.11
9:23:51.390625,9.24
9:23:51.406250,10.17
9:23:51.421875,12.05
9:23:51.437500,13.76
9:23:51.453125,14.39
9:23:51.468750,13.62
9:23:51.484375,11.71
9:23:51.500000,9.21
9:23:51.515625,6.51
9:23:51.531250,3.61
9:23:51.546875,0.20
9:23:51.562500,-4.02
9:23:51.578125,-9.03
9:23:51.593750,-14.42
9:23:51.609375,-19.57
9:23:51.625000,-24.01
9:23:51.640625,-27.57
9:23:51.656250,-30.55
9:23:51.671875,-33.47
9:23:51.687500,-36.84
9:23:51.703125,-41.03
9:23:51.718750,-46.01
9:23:51.734375,-51.35
9:23:51.750000,-56.34
9:23:51.765625,-60.04
9:23:51.781250,-61.58
9:23:51.796875,-60.28
9:23:51.812500,-55.95
9:23:51.828125,-48.81
9:23:51.843750,-39.43
9:23:51.859375,-28.50
9:23:51.875000,-16.59
9:23:51.890625,-4.08
9:23:51.906250,8.80
9:23:51.921875,21.64
9:23:51.937500,33.75
9:23:51.953125,43.97
9:23:51.968750,50.93
9:23:51.984375,53.47
9:23:52,51.04
9:23:52.015625,44.07
9:23:52.031250,33.99
9:23:52.046875,22.93
9:23:52.062500,13.30
9:23:52.078125,7.08
9:23:52.093750,5.52
9:23:52.109375,8.78
9:23:52.125000,15.92
9:23:52.140625,25.19
9:23:52.156250,34.44
9:23:52.171875,41.68
9:23:52.187500,45.61
9:23:52.203125,45.85
9:23:52.218750,42.85
9:23:52.234375,37.62
9:23:52.250000,31.21
9:23:52.265625,24.45
9:23:52.281250,17.82
9:23:52.296875,11.54
9:23:52.312500,5.73
9:23:52.328125,0.44
9:23:52.343750,-4.34
9:23:52.359375,-8.73
9:23:52.375000,-12.98
9:23:52.390625,-17.32
9:23:52.406250,-21.91
9:23:52.421875,-26.73
9:23:52.437500,-31.77
9:23:52.453125,-36.99
9:23:52.468750,-42.40
9:23:52.484375,-47.88
9:23:52.500000,-52.91
9:23:52.515625,-56.59
9:23:52.531250,-57.65
9:23:52.546875,-54.93
9:23:52.562500,-47.82
9:23:52.578125,-36.60
9:23:52.593750,-22.41
9:23:52.609375,-7.05
9:23:52.625000,7.61
9:23:52.640625,19.97
9:23:52.656250,29.10
9:23:52.671875,34.70
9:23:52.687500,37.05
9:23:52.703125,36.78
9:23:52.718750,34.66
9:23:52.734375,31.53
9:23:52.750000,28.21
9:23:52.765625,25.39
9:23:52.781250,23.55
9:23:52.796875,22.87
9:23:52.812500,23.04
9:23:52.828125,23.46
9:23:52.843750,23.37
9:23:52.859375,22.12
9:23:52.875000,19.58
9:23:52.890625,16.17
9:23:52.906250,12.76
9:23:52.921875,10.31
9:23:52.937500,9.45
9:23:52.953125,10.10
9:23:52.968750,11.51
9:23:52.984375,12.54
9:23:53,12.12
9:23:53.015625,9.63
9:23:53.031250,5.11
9:23:53.046875,-0.91
9:23:53.062500,-7.67
9:23:53.078125,-14.41
9:23:53.093750,-20.66
9:23:53.109375,-26.05
9:23:53.125000,-30.43
9:23:53.140625,-33.81
9:23:53.156250,-36.36
9:23:53.171875,-38.53
9:23:53.187500,-40.83
9:23:53.203125,-43.60
9:23:53.218750,-46.65
9:23:53.234375,-49.19
9:23:53.250000,-49.98
9:23:53.265625,-47.77
9:23:53.281250,-41.82
9:23:53.296875,-32.27
9:23:53.312500,-20.09
9:23:53.328125,-6.74
9:23:53.343750,6.37
9:23:53.359375,18.27
9:23:53.375000,28.56
9:23:53.390625,37.25
9:23:53.406250,44.46
9:23:53.421875,50.21
9:23:53.437500,54.29
9:23:53.453125,56.54
9:23:53.468750,56.91
9:23:53.484375,55.69
9:23:53.500000,53.35
9:23:53.515625,50.41
9:23:53.531250,47.26
9:23:53.546875,44.01
9:23:53.562500,40.62
9:23:53.578125,36.98
9:23:53.593750,33.08
9:23:53.609375,29.03
9:23:53.625000,25.04
9:23:53.640625,21.39
9:23:53.656250,18.28
9:23:53.671875,15.79
9:23:53.687500,13.78
9:23:53.703125,11.93
9:23:53.718750,9.76
9:23:53.734375,6.87
9:23:53.750000,3.06
9:23:53.765625,-1.53
9:23:53.781250,-6.46
9:23:53.796875,-11.20
9:23:53.812500,-15.39
9:23:53.828125,-19.02
9:23:53.843750,-22.42
9:23:53.859375,-26.12
9:23:53.875000,-30.61
9:23:53.890625,-36.17
9:23:53.906250,-42.79
9:23:53.921875,-50.15
9:23:53.937500,-57.62
9:23:53.953125,-64.30
9:23:53.968750,-69.16
9:23:53.984375,-71.17
9:23:54,-69.56
9:23:54.015625,-64.06
9:23:54.031250,-55.01
9:23:54.046875,-43.37
9:23:54.062500,-30.46
9:23:54.078125,-17.66
9:23:54.093750,-6.13
9:23:54.109375,3.36
9:23:54.125000,10.46
9:23:54.140625,15.21
9:23:54.156250,17.87
9:23:54.171875,18.75
9:23:54.187500,18.18
9:23:54.203125,16.48
9:23:54.218750,13.91
9:23:54.234375,10.83
9:23:54.250000,7.64
9:23:54.265625,4.83
9:23:54.281250,2.87
9:23:54.296875,2.16
9:23:54.312500,2.94
9:23:54.328125,5.21
9:23:54.343750,8.74
9:23:54.359375,13.13
9:23:54.375000,17.83
9:23:54.390625,22.19
9:23:54.406250,25.47
9:23:54.421875,26.98
9:23:54.437500,26.18
9:23:54.453125,22.90
9:23:54.468750,17.42
9:23:54.484375,10.46
9:23:54.500000,2.99
9:23:54.515625,-4.10
9:23:54.531250,-10.18
9:23:54.546875,-15.12
9:23:54.562500,-19.13
9:23:54.578125,-22.72
9:23:54.593750,-26.40
9:23:54.609375,-30.44
9:23:54.625000,-34.72
9:23:54.640625,-38.67
9:23:54.656250,-41.32
9:23:54.671875,-41.56
9:23:54.687500,-38.46
9:23:54.703125,-31.68
9:23:54.718750,-21.58
9:23:54.734375,-9.29
9:23:54.750000,3.70
9:23:54.765625,15.88
9:23:54.781250,26.16
9:23:54.796875,33.99
9:23:54.812500,39.22
9:23:54.828125,41.96
9:23:54.843750,42.38
9:23:54.859375,40.67
9:23:54.875000,37.14
9:23:54.890625,32.32
9:23:54.906250,26.98
9:23:54.921875,21.95
9:23:54.937500,17.93
9:23:54.953125,15.24
9:23:54.968750,13.75
9:23:54.984375,13.04
9:23:55,12.68
9:23:55.015625,12.38
9:23:55.031250,12.04
9:23:55.046875,11.64
9:23:55.062500,11.03
9:23:55.078125,9.89
9:23:55.093750,7.77
9:23:55.109375,4.41
9:23:55.125000,-0.16
9:23:55.140625,-5.53
9:23:55.156250,-11.09
9:23:55.171875,-16.24
9:23:55.187500,-20.68
9:23:55.203125,-24.46
9:23:55.218750,-27.97
9:23:55.234375,-31.75
9:23:55.250000,-36.27
9:23:55.265625,-41.88
9:23:55.281250,-48.50
9:23:55.296875,-55.68
9:23:55.312500,-62.40
9:23:55.328125,-67.29
9:23:55.343750,-68.88
9:23:55.359375,-66.01
9:23:55.375000,-58.29
9:23:55.390625,-46.25
9:23:55.406250,-31.29
9:23:55.421875,-15.29
9:23:55.437500,-0.17
9:23:55.453125,12.60
9:23:55.468750,22.19
9:23:55.484375,28.39
9:23:55.500000,31.44
9:23:55.515625,31.76
9:23:55.531250,29.83
9:23:55.546875,26.12
9:23:55.562500,21.26
9:23:55.578125,16.04
9:23:55.593750,11.34
9:23:55.609375,8.04
9:23:55.625000,6.73
9:23:55.640625,7.60
9:23:55.656250,10.35
9:23:55.671875,14.31
9:23:55.687500,18.57
9:23:55.703125,22.28
9:23:55.718750,24.75
9:23:55.734375,25.60
9:23:55.750000,24.76
9:23:55.765625,22.40
9:23:55.781250,18.86
9:23:55.796875,14.58
9:23:55.812500,9.98
9:23:55.828125,5.45
9:23:55.843750,1.32
9:23:55.859375,-2.20
9:23:55.875000,-5.17
9:23:55.890625,-8.01
9:23:55.906250,-11.41
9:23:55.921875,-16.16
9:23:55.937500,-22.70
9:23:55.953125,-30.70
9:23:55.968750,-38.94
9:23:55.984375,-45.51
9:23:56,-48.45
9:23:56.015625,-46.44
9:23:56.031250,-39.30
9:23:56.046875,-28.02
9:23:56.062500,-14.39
9:23:56.078125,-0.40
9:23:56.093750,12.34
9:23:56.109375,22.80
9:23:56.125000,30.51
9:23:56.140625,35.37
9:23:56.156250,37.56
9:23:56.171875,37.40
9:23:56.187500,35.37
9:23:56.203125,32.18
9:23:56.218750,28.53
9:23:56.234375,25.03
9:23:56.250000,21.96
9:23:56.265625,19.35
9:23:56.281250,17.01
9:23:56.296875,14.74
9:23:56.312500,12.42
9:23:56.328125,10.16
9:23:56.343750,8.17
9:23:56.359375,6.70
9:23:56.375000,5.89
9:23:56.390625,5.64
9:23:56.406250,5.69
9:23:56.421875,5.61
9:23:56.437500,4.99
9:23:56.453125,3.46
9:23:56.468750,0.93
9:23:56.484375,-2.53
9:23:56.500000,-6.72
9:23:56.515625,-11.46
9:23:56.531250,-16.62
9:23:56.546875,-22.17
9:23:56.562500,-28.10
9:23:56.578125,-34.40
9:23:56.593750,-41.09
9:23:56.609375,-48.15
9:23:56.625000,-55.53
9:23:56.640625,-62.89
9:23:56.656250,-69.48
9:23:56.671875,-74.02
9:23:56.687500,-75.01
9:23:56.703125,-71.22
9:23:56.718750,-62.30
9:23:56.734375,-49.14
9:23:56.750000,-33.60
9:23:56.765625,-17.95
9:23:56.781250,-3.97
9:23:56.796875,7.50
9:23:56.812500,16.62
9:23:56.828125,24.12
9:23:56.843750,30.70
9:23:56.859375,36.61
9:23:56.875000,41.59
9:23:56.890625,45.03
9:23:56.906250,46.36
9:23:56.921875,45.23
9:23:56.937500,41.67
9:23:56.953125,36.12
9:23:56.968750,29.36
9:23:56.984375,22.46
9:23:57,16.62
9:23:57.015625,12.87
9:23:57.031250,11.88
9:23:57.046875,13.69
9:23:57.062500,17.78
9:23:57.078125,23.10
9:23:57.093750,28.42
9:23:57.109375,32.62
9:23:57.125000,34.90
9:23:57.140625,34.98
9:23:57.156250,33.01
9:23:57.171875,29.56
9:23:57.187500,25.30
9:23:57.203125,20.88
9:23:57.218750,16.77
9:23:57.234375,13.16
9:23:57.250000,10.11
9:23:57.265625,7.52
9:23:57.281250,5.24
9:23:57.296875,2.99
9:23:57.312500,0.40
9:23:57.328125,-2.95
9:23:57.343750,-7.45
9:23:57.359375,-13.29
9:23:57.375000,-20.36
9:23:57.390625,-28.16
9:23:57.406250,-35.85
9:23:57.421875,-42.31
9:23:57.437500,-46.35
9:23:57.453125,-46.82
9:23:57.468750,-42.93
9:23:57.484375,-34.53
9:23:57.500000,-22.24
9:23:57.515625,-7.38
9:23:57.531250,8.26
9:23:57.546875,22.92
9:23:57.562500,35.26
9:23:57.578125,44.65
9:23:57.593750,51.07
9:23:57.609375,54.87
9:23:57.625000,56.49
9:23:57.640625,56.24
9:23:57.656250,54.30
9:23:57.671875,50.91
9:23:57.687500,46.47
9:23:57.703125,41.57
9:23:57.718750,36.84
9:23:57.734375,32.76
9:23:57.750000,29.55
9:23:57.765625,27.14
9:23:57.781250,25.30
9:23:57.796875,23.89
9:23:57.812500,22.88
9:23:57.828125,22.39
9:23:57.843750,22.53
9:23:57.859375,23.25
9:23:57.875000,24.24
9:23:57.890625,24.98
9:23:57.906250,24.96
9:23:57.921875,23.83
9:23:57.937500,21.54
9:23:57.953125,18.34
9:23:57.968750,14.63
9:23:57.984375,10.76
9:23:58,6.90
9:23:58.015625,3.02
9:23:58.031250,-1.03
9:23:58.046875,-5.39
9:23:58.062500,-10.06
9:23:58.078125,-14.93
9:23:58.093750,-19.88
9:23:58.109375,-24.84
9:23:58.125000,-29.94
9:23:58.140625,-35.45
9:23:58.156250,-41.59
9:23:58.171875,-48.36
9:23:58.187500,-55.42
9:23:58.203125,-61.91
9:23:58.218750,-66.70
9:23:58.234375,-68.52
9:23:58.250000,-66.38
9:23:58.265625,-59.84
9:23:58.281250,-49.23
9:23:58.296875,-35.59
9:23:58.312500,-20.49
9:23:58.328125,-5.62
9:23:58.343750,7.56
9:23:58.359375,18.11
9:23:58.375000,25.67
9:23:58.390625,30.39
9:23:58.406250,32.71
9:23:58.421875,33.21
9:23:58.437500,32.35
9:23:58.453125,30.56
9:23:58.468750,28.15
9:23:58.484375,25.41
9:23:58.500000,22.61
9:23:58.515625,20.01
9:23:58.531250,17.79
9:23:58.546875,16.02
9:23:58.562500,14.67
9:23:58.578125,13.70
9:23:58.593750,13.10
9:23:58.609375,12.92
9:23:58.625000,13.23
9:23:58.640625,13.95
9:23:58.656250,14.79
9:23:58.671875,15.26
9:23:58.687500,14.84
9:23:58.703125,13.19
9:23:58.718750,10.33
9:23:58.734375,6.58
9:23:58.750000,2.42
9:23:58.765625,-1.72
9:23:58.781250,-5.65
9:23:58.796875,-9.42
9:23:58.812500,-13.18
9:23:58.828125,-17.08
9:23:58.843750,-21.23
9:23:58.859375,-25.62
9:23:58.875000,-30.26
9:23:58.890625,-35.10
9:23:58.906250,-39.94
9:23:58.921875,-44.33
9:23:58.937500,-47.57
9:23:58.953125,-48.80
9:23:58.968750,-47.21
9:23:58.984375,-42.33
9:23:59,-34.20
9:23:59.015625,-23.40
9:23:59.031250,-10.99
9:23:59.046875,1.75
9:23:59.062500,13.60
9:23:59.078125,23.55
9:23:59.093750,31.03
9:23:59.109375,35.84
9:23:59.125000,38.11
9:23:59.140625,38.13
9:23:59.156250,36.21
9:23:59.171875,32.65
9:23:59.187500,27.74
9:23:59.203125,21.79
9:23:59.218750,15.25
9:23:59.234375,8.67
9:23:59.250000,2.63
9:23:59.265625,-2.35
9:23:59.281250,-5.95
9:23:59.296875,-8.13
9:23:59.312500,-9.10
9:23:59.328125,-9.27
9:23:59.343750,-9.10
9:23:59.359375,-9.07
9:23:59.375000,-9.72
9:23:59.390625,-11.57
9:23:59.406250,-14.86
9:23:59.421875,-19.36
9:23:59.437500,-24.24
9:23:59.453125,-28.27
9:23:59.468750,-30.38
9:23:59.484375,-30.32
9:23:59.500000,-28.99
9:23:59.515625,-28.11
9:23:59.531250,-29.50
9:23:59.546875,-34.13
9:23:59.562500,-41.61
9:23:59.578125,-50.29
9:23:59.593750,-57.89
9:23:59.609375,-62.40
9:23:59.625000,-62.56
9:23:59.640625,-58.11
9:23:59.656250,-49.54
9:23:59.671875,-37.85
9:23:59.687500,-24.27
9:23:59.703125,-10.20
9:23:59.718750,3.04
9:23:59.734375,14.38
9:23:59.750000,23.17
9:23:59.765625,29.33
9:23:59.781250,33.16
9:23:59.796875,35.21
9:23:59.812500,36.11
9:23:59.828125,36.34
9:23:59.843750,36.21
9:23:59.859375,35.73
9:23:59.875000,34.73
9:23:59.890625,32.96
9:23:59.906250,30.27
9:23:59.921875,26.81
9:23:59.937500,23.19
9:23:59.953125,20.23
9:23:59.968750,18.66
9:23:59.984375,18.78
9:24:00,20.22
9:24:00.015625,22.08
9:24:00.031250,23.30
9:24:00.046875,23.02
9:24:00.062500,20.90
9:24:00.078125,17.14
9:24:00.093750,12.25
9:24:00.109375,6.81
9:24:00.125000,1.24
9:24:00.140625,-4.29
9:24:00.156250,-9.82
9:24:00.171875,-15.53
9:24:00.187500,-21.69
9:24:00.203125,-28.53
9:24:00.218750,-36.10
9:24:00.234375,-44.12
9:24:00.250000,-51.84
9:24:00.265625,-58.05
9:24:00.281250,-61.38
9:24:00.296875,-60.63
9:24:00.312500,-55.26
9:24:00.328125,-45.63
9:24:00.343750,-32.93
9:24:00.359375,-18.83
9:24:00.375000,-4.95
9:24:00.390625,7.56
9:24:00.406250,18.08
9:24:00.421875,26.47
9:24:00.437500,32.77
9:24:00.453125,37.04
9:24:00.468750,39.37
9:24:00.484375,39.95
9:24:00.500000,39.15
9:24:00.515625,37.47
9:24:00.531250,35.37
9:24:00.546875,33.13
9:24:00.562500,30.83
9:24:00.578125,28.43
9:24:00.593750,25.94
9:24:00.609375,23.55
9:24:00.625000,21.54
9:24:00.640625,20.21
9:24:00.656250,19.68
9:24:00.671875,19.82
9:24:00.687500,20.23
9:24:00.703125,20.37
9:24:00.718750,19.74
9:24:00.734375,17.98
9:24:00.750000,15.05
9:24:00.765625,11.20
9:24:00.781250,6.96
9:24:00.796875,2.88
9:24:00.812500,-0.66
9:24:00.828125,-3.67
9:24:00.843750,-6.55
9:24:00.859375,-10.00
9:24:00.875000,-14.71
9:24:00.890625,-21.04
9:24:00.906250,-28.83
9:24:00.921875,-37.24
9:24:00.937500,-44.86
9:24:00.953125,-49.91
9:24:00.968750,-50.75
9:24:00.984375,-46.28
9:24:01,-36.39
9:24:01.015625,-22.02
9:24:01.031250,-4.91
9:24:01.046875,12.83
9:24:01.062500,29.32
9:24:01.078125,43.24
9:24:01.093750,54.02
9:24:01.109375,61.62
9:24:01.125000,66.33
9:24:01.140625,68.57
9:24:01.156250,68.70
9:24:01.171875,67.01
9:24:01.187500,63.79
9:24:01.203125,59.32
9:24:01.218750,53.91
9:24:01.234375,47.88
9:24:01.250000,41.45
9:24:01.265625,34.79
9:24:01.281250,27.98
9:24:01.296875,21.05
9:24:01.312500,14.16
9:24:01.328125,7.63
9:24:01.343750,2.00
9:24:01.359375,-2.23
9:24:01.375000,-4.77
9:24:01.390625,-5.81
9:24:01.406250,-5.98
9:24:01.421875,-6.13
9:24:01.437500,-6.95
9:24:01.453125,-8.69
9:24:01.468750,-11.10
9:24:01.484375,-13.62
9:24:01.500000,-15.75
9:24:01.515625,-17.26
9:24:01.531250,-18.35
9:24:01.546875,-19.51
9:24:01.562500,-21.36
9:24:01.578125,-24.50
9:24:01.593750,-29.40
9:24:01.609375,-36.35
9:24:01.625000,-45.43
9:24:01.640625,-56.17
9:24:01.656250,-67.54
9:24:01.671875,-77.88
9:24:01.687500,-85.15
9:24:01.703125,-87.51
9:24:01.718750,-83.91
9:24:01.734375,-74.49
9:24:01.750000,-60.61
9:24:01.765625,-44.38
9:24:01.781250,-28.04
9:24:01.796875,-13.37
9:24:01.812500,-1.31
9:24:01.828125,7.93
9:24:01.843750,14.68
9:24:01.859375,19.52
9:24:01.875000,23.00
9:24:01.890625,25.57
9:24:01.906250,27.55
9:24:01.921875,29.08
9:24:01.937500,30.10
9:24:01.953125,30.47
9:24:01.968750,30.05
9:24:01.984375,28.87
9:24:02,27.19
9:24:02.015625,25.44
9:24:02.031250,24.07
9:24:02.046875,23.30
9:24:02.062500,23.07
9:24:02.078125,23.15
9:24:02.093750,23.30
9:24:02.109375,23.44
9:24:02.125000,23.59
9:24:02.140625,23.78
9:24:02.156250,23.81
9:24:02.171875,23.27
9:24:02.187500,21.63
9:24:02.203125,18.51
9:24:02.218750,13.93
9:24:02.234375,8.30
9:24:02.250000,2.31
9:24:02.265625,-3.35
9:24:02.281250,-8.26
9:24:02.296875,-12.37
9:24:02.312500,-16.00
9:24:02.328125,-19.66
9:24:02.343750,-23.84
9:24:02.359375,-28.94
9:24:02.375000,-35.21
9:24:02.390625,-42.69
9:24:02.406250,-51.14
9:24:02.421875,-59.91
9:24:02.437500,-67.88
9:24:02.453125,-73.52
9:24:02.468750,-75.22
9:24:02.484375,-71.83
9:24:02.500000,-62.95
9:24:02.515625,-49.27
9:24:02.531250,-32.33
9:24:02.546875,-14.12
9:24:02.562500,3.40
9:24:02.578125,18.70
9:24:02.593750,30.89
9:24:02.609375,39.68
9:24:02.625000,45.29
9:24:02.640625,48.28
9:24:02.656250,49.43
9:24:02.671875,49.54
9:24:02.687500,49.23
9:24:02.703125,48.82
9:24:02.718750,48.20
9:24:02.734375,47.03
9:24:02.750000,44.91
9:24:02.765625,41.72
9:24:02.781250,37.78
9:24:02.796875,33.70
9:24:02.812500,30.27
9:24:02.828125,28.09
9:24:02.843750,27.37
9:24:02.859375,27.94
9:24:02.875000,29.28
9:24:02.890625,30.80
9:24:02.906250,31.93
9:24:02.921875,32.25
9:24:02.937500,31.54
9:24:02.953125,29.78
9:24:02.968750,27.13
9:24:02.984375,23.93
9:24:03,20.59
9:24:03.015625,17.41
9:24:03.031250,14.47
9:24:03.046875,11.60
9:24:03.062500,8.46
9:24:03.078125,4.75
9:24:03.093750,0.32
9:24:03.109375,-4.72
9:24:03.125000,-10.12
9:24:03.140625,-15.61
9:24:03.156250,-21.01
9:24:03.171875,-26.32
9:24:03.187500,-31.74
9:24:03.203125,-37.60
9:24:03.218750,-44.30
9:24:03.234375,-52.05
9:24:03.250000,-60.74
9:24:03.265625,-69.72
9:24:03.281250,-77.82
9:24:03.296875,-83.43
9:24:03.312500,-84.98
9:24:03.328125,-81.29
9:24:03.343750,-72.03
9:24:03.359375,-57.84
9:24:03.375000,-40.24
9:24:03.390625,-21.27
9:24:03.406250,-2.98
9:24:03.421875,13.03
9:24:03.437500,25.85
9:24:03.453125,35.31
9:24:03.468750,41.77
9:24:03.484375,45.82
9:24:03.500000,48.04
9:24:03.515625,48.86
9:24:03.531250,48.63
9:24:03.546875,47.63
9:24:03.562500,46.15
9:24:03.578125,44.41
9:24:03.593750,42.54
9:24:03.609375,40.54
9:24:03.625000,38.31
9:24:03.640625,35.86
9:24:03.656250,33.32
9:24:03.671875,31.01
9:24:03.687500,29.26
9:24:03.703125,28.30
9:24:03.718750,28.07
9:24:03.734375,28.23
9:24:03.750000,28.25
9:24:03.765625,27.66
9:24:03.781250,26.17
9:24:03.796875,23.83
9:24:03.812500,20.92
9:24:03.828125,17.78
9:24:03.843750,14.59
9:24:03.859375,11.26
9:24:03.875000,7.51
9:24:03.890625,3.04
9:24:03.906250,-2.21
9:24:03.921875,-7.91
9:24:03.937500,-13.50
9:24:03.953125,-18.39
9:24:03.968750,-22.32
9:24:03.984375,-25.38
9:24:04,-27.98
9:24:04.015625,-30.66
9:24:04.031250,-33.93
9:24:04.046875,-38.09
9:24:04.062500,-43.32
9:24:04.078125,-49.65
9:24:04.093750,-56.79
9:24:04.109375,-64.05
9:24:04.125000,-70.26
9:24:04.140625,-73.90
9:24:04.156250,-73.56
9:24:04.171875,-68.34
9:24:04.187500,-58.29
9:24:04.203125,-44.35
9:24:04.218750,-28.16
9:24:04.234375,-11.54
9:24:04.250000,3.92
9:24:04.265625,17.12
9:24:04.281250,27.49
9:24:04.296875,34.87
9:24:04.312500,39.45
9:24:04.328125,41.64
9:24:04.343750,41.97
9:24:04.359375,40.97
9:24:04.375000,39.10
9:24:04.390625,36.65
9:24:04.406250,33.76
9:24:04.421875,30.56
9:24:04.437500,27.20
9:24:04.453125,24.00
9:24:04.468750,21.27
9:24:04.484375,19.28
9:24:04.500000,18.18
9:24:04.515625,17.90
9:24:04.531250,18.26
9:24:04.546875,18.97
9:24:04.562500,19.78
9:24:04.578125,20.41
9:24:04.593750,20.65
9:24:04.609375,20.35
9:24:04.625000,19.45
9:24:04.640625,18.00
9:24:04.656250,16.06
9:24:04.671875,13.76
9:24:04.687500,11.14
9:24:04.703125,8.16
9:24:04.718750,4.76
9:24:04.734375,0.82
9:24:04.750000,-3.61
9:24:04.765625,-8.38
9:24:04.781250,-13.15
9:24:04.796875,-17.60
9:24:04.812500,-21.54
9:24:04.828125,-25.04
9:24:04.843750,-28.47
9:24:04.859375,-32.37
9:24:04.875000,-37.27
9:24:04.890625,-43.42
9:24:04.906250,-50.64
9:24:04.921875,-58.23
9:24:04.937500,-65.01
9:24:04.953125,-69.59
9:24:04.968750,-70.64
9:24:04.984375,-67.22
9:24:05,-59.05
9:24:05.015625,-46.73
9:24:05.031250,-31.58
9:24:05.046875,-15.38
9:24:05.062500,0.10
9:24:05.078125,13.47
9:24:05.093750,23.98
9:24:05.109375,31.49
9:24:05.125000,36.30
9:24:05.140625,38.84
9:24:05.156250,39.51
9:24:05.171875,38.60
9:24:05.187500,36.41
9:24:05.203125,33.29
9:24:05.218750,29.76
9:24:05.234375,26.40
9:24:05.250000,23.65
9:24:05.265625,21.75
9:24:05.281250,20.65
9:24:05.296875,20.08
9:24:05.312500,19.75
9:24:05.328125,19.51
9:24:05.343750,19.33
9:24:05.359375,19.27
9:24:05.375000,19.34
9:24:05.390625,19.38
9:24:05.406250,19.11
9:24:05.421875,18.28
9:24:05.437500,16.82
9:24:05.453125,14.85
9:24:05.468750,12.56
9:24:05.484375,10.11
9:24:05.500000,7.41
9:24:05.515625,4.31
9:24:05.531250,0.60
9:24:05.546875,-3.70
9:24:05.562500,-8.35
9:24:05.578125,-12.91
9:24:05.593750,-16.96
9:24:05.609375,-20.32
9:24:05.625000,-23.11
9:24:05.640625,-25.70
9:24:05.656250,-28.59
9:24:05.671875,-32.29
9:24:05.687500,-37.13
9:24:05.703125,-43.20
9:24:05.718750,-50.15
9:24:05.734375,-57.16
9:24:05.750000,-62.98
9:24:05.765625,-66.10
9:24:05.781250,-65.22
9:24:05.796875,-59.62
9:24:05.812500,-49.53
9:24:05.828125,-36.08
9:24:05.843750,-21.02
9:24:05.859375,-6.21
9:24:05.875000,6.93
9:24:05.890625,17.58
9:24:05.906250,25.57
9:24:05.921875,31.07
9:24:05.937500,34.42
9:24:05.953125,35.90
9:24:05.968750,35.76
9:24:05.984375,34.31
9:24:06,31.91
9:24:06.015625,29.00
9:24:06.031250,25.98
9:24:06.046875,23.16
9:24:06.062500,20.78
9:24:06.078125,18.99
9:24:06.093750,17.87
9:24:06.109375,17.46
9:24:06.125000,17.69
9:24:06.140625,18.35
9:24:06.156250,19.15
9:24:06.171875,19.79
9:24:06.187500,20.02
9:24:06.203125,19.74
9:24:06.218750,18.92
9:24:06.234375,17.55
9:24:06.250000,15.58
9:24:06.265625,12.88
9:24:06.281250,9.29
9:24:06.296875,4.72
9:24:06.312500,-0.77
9:24:06.328125,-6.88
9:24:06.343750,-13.12
9:24:06.359375,-18.92
9:24:06.375000,-23.81
9:24:06.390625,-27.64
9:24:06.406250,-30.58
9:24:06.421875,-33.17
9:24:06.437500,-36.11
9:24:06.453125,-40.09
9:24:06.468750,-45.50
9:24:06.484375,-52.15
9:24:06.500000,-59.24
9:24:06.515625,-65.40
9:24:06.531250,-68.99
9:24:06.546875,-68.54
9:24:06.562500,-63.27
9:24:06.578125,-53.37
9:24:06.593750,-39.95
9:24:06.609375,-24.72
9:24:06.625000,-9.45
9:24:06.640625,4.45
9:24:06.656250,16.21
9:24:06.671875,25.63
9:24:06.687500,32.78
9:24:06.703125,37.82
9:24:06.718750,40.81
9:24:06.734375,41.77
9:24:06.750000,40.80
9:24:06.765625,38.22
9:24:06.781250,34.60
9:24:06.796875,30.61
9:24:06.812500,26.89
9:24:06.828125,23.85
9:24:06.843750,21.59
9:24:06.859375,19.98
9:24:06.875000,18.78
9:24:06.890625,17.82
9:24:06.906250,17.11
9:24:06.921875,16.72
9:24:06.937500,16.74
9:24:06.953125,17.02
9:24:06.968750,17.20
9:24:06.984375,16.79
9:24:07,15.31
9:24:07.015625,12.55
9:24:07.031250,8.61
9:24:07.046875,3.85
9:24:07.062500,-1.24
9:24:07.078125,-6.28
9:24:07.093750,-11.01
9:24:07.109375,-15.39
9:24:07.125000,-19.56
9:24:07.140625,-23.73
9:24:07.156250,-28.16
9:24:07.171875,-33.13
9:24:07.187500,-38.83
9:24:07.203125,-45.26
9:24:07.218750,-52.05
9:24:07.234375,-58.46
9:24:07.250000,-63.35
9:24:07.265625,-65.49
9:24:07.281250,-63.84
9:24:07.296875,-57.90
9:24:07.312500,-47.96
9:24:07.328125,-34.96
9:24:07.343750,-20.38
9:24:07.359375,-5.75
9:24:07.375000,7.67
9:24:07.390625,19.06
9:24:07.406250,28.11
9:24:07.421875,34.78
9:24:07.437500,39.21
9:24:07.453125,41.49
9:24:07.468750,41.76
9:24:07.484375,40.23
9:24:07.500000,37.29
9:24:07.515625,33.50
9:24:07.531250,29.48
9:24:07.546875,25.80
9:24:07.562500,22.77
9:24:07.578125,20.40
9:24:07.593750,18.50
9:24:07.609375,16.83
9:24:07.625000,15.28
9:24:07.640625,13.95
9:24:07.656250,13.03
9:24:07.671875,12.69
9:24:07.687500,12.80
9:24:07.703125,12.99
9:24:07.718750,12.73
9:24:07.734375,11.52
9:24:07.750000,9.18
9:24:07.765625,5.84
9:24:07.781250,1.94
9:24:07.796875,-2.02
9:24:07.812500,-5.65
9:24:07.828125,-8.85
9:24:07.843750,-11.85
9:24:07.859375,-15.15
9:24:07.875000,-19.33
9:24:07.890625,-24.85
9:24:07.906250,-31.89
9:24:07.921875,-40.10
9:24:07.937500,-48.66
9:24:07.953125,-56.25
9:24:07.968750,-61.42
9:24:07.984375,-62.80
9:24:08,-59.54
9:24:08.015625,-51.55
9:24:08.031250,-39.61
9:24:08.046875,-25.25
9:24:08.062500,-10.35
9:24:08.078125,3.40
9:24:08.093750,14.77
9:24:08.109375,23.31
9:24:08.125000,29.17
9:24:08.140625,32.83
9:24:08.156250,34.81
9:24:08.171875,35.50
9:24:08.187500,35.16
9:24:08.203125,34.03
9:24:08.218750,32.34
9:24:08.234375,30.40
9:24:08.250000,28.42
9:24:08.265625,26.45
9:24:08.281250,24.43
9:24:08.296875,22.29
9:24:08.312500,20.06
9:24:08.328125,18.00
9:24:08.343750,16.50
9:24:08.359375,15.88
9:24:08.375000,16.21
9:24:08.390625,17.11
9:24:08.406250,17.88
9:24:08.421875,17.66
9:24:08.437500,15.79
9:24:08.453125,12.08
9:24:08.468750,6.87
9:24:08.484375,0.89
9:24:08.500000,-5.02
9:24:08.515625,-10.28
9:24:08.531250,-14.74
9:24:08.546875,-18.71
9:24:08.562500,-22.86
9:24:08.578125,-27.93
9:24:08.593750,-34.42
9:24:08.609375,-42.39
9:24:08.625000,-51.25
9:24:08.640625,-59.79
9:24:08.656250,-66.37
9:24:08.671875,-69.28
9:24:08.687500,-67.24
9:24:08.703125,-59.78
9:24:08.718750,-47.51
9:24:08.734375,-31.95
9:24:08.750000,-15.17
9:24:08.765625,0.84
9:24:08.781250,14.61
9:24:08.796875,25.45
9:24:08.812500,33.34
9:24:08.828125,38.68
9:24:08.843750,41.88
9:24:08.859375,43.19
9:24:08.875000,42.74
9:24:08.890625,40.65
9:24:08.906250,37.25
9:24:08.921875,33.07
9:24:08.937500,28.77
9:24:08.953125,24.91
9:24:08.968750,21.83
9:24:08.984375,19.55
9:24:09,17.89
9:24:09.015625,16.61
9:24:09.031250,15.59
9:24:09.046875,14.82
9:24:09.062500,14.36
9:24:09.078125,14.18
9:24:09.093750,14.03
9:24:09.109375,13.46
9:24:09.125000,11.99
9:24:09.140625,9.30
9:24:09.156250,5.38
9:24:09.171875,0.59
9:24:09.187500,-4.48
9:24:09.203125,-9.31
9:24:09.218750,-13.63
9:24:09.234375,-17.60
9:24:09.250000,-21.72
9:24:09.265625,-26.69
9:24:09.281250,-33.10
9:24:09.296875,-41.22
9:24:09.312500,-50.70
9:24:09.328125,-60.50
9:24:09.343750,-69.04
9:24:09.359375,-74.45
9:24:09.375000,-75.19
9:24:09.390625,-70.46
9:24:09.406250,-60.50
9:24:09.421875,-46.55
9:24:09.437500,-30.38
9:24:09.453125,-13.86
9:24:09.468750,1.51
9:24:09.484375,14.87
9:24:09.500000,25.88
9:24:09.515625,34.50
9:24:09.531250,40.81
9:24:09.546875,44.92
9:24:09.562500,46.93
9:24:09.578125,47.04
9:24:09.593750,45.64
9:24:09.609375,43.24
9:24:09.625000,40.44
9:24:09.640625,37.80
9:24:09.656250,35.71
9:24:09.671875,34.31
9:24:09.687500,33.47
9:24:09.703125,32.88
9:24:09.718750,32.20
9:24:09.734375,31.20
9:24:09.750000,29.94
9:24:09.765625,28.61
9:24:09.781250,27.50
9:24:09.796875,26.73
9:24:09.812500,26.11
9:24:09.828125,25.13
9:24:09.843750,23.20
9:24:09.859375,19.86
9:24:09.875000,15.07
9:24:09.890625,9.23
9:24:09.906250,2.98
9:24:09.921875,-3.00
9:24:09.937500,-8.36
9:24:09.953125,-13.09
9:24:09.968750,-17.55
9:24:09.984375,-22.29
9:24:10,-27.86
9:24:10.015625,-34.63
9:24:10.031250,-42.66
9:24:10.046875,-51.54
9:24:10.062500,-60.29
9:24:10.078125,-67.48
9:24:10.093750,-71.45
9:24:10.109375,-70.78
9:24:10.125000,-64.72
9:24:10.140625,-53.47
9:24:10.156250,-38.21
9:24:10.171875,-20.72
9:24:10.187500,-3.00
9:24:10.203125,13.30
9:24:10.218750,27.11
9:24:10.234375,37.95
9:24:10.250000,45.86
9:24:10.265625,51.14
9:24:10.281250,54.20
9:24:10.296875,55.38
9:24:10.312500,55.03
9:24:10.328125,53.39
9:24:10.343750,50.76
9:24:10.359375,47.46
9:24:10.375000,43.80
9:24:10.390625,40.15
9:24:10.406250,36.79
9:24:10.421875,34.02
9:24:10.437500,32.00
9:24:10.453125,30.87
9:24:10.468750,30.60
9:24:10.484375,30.98
9:24:10.500000,31.65
9:24:10.515625,32.06
9:24:10.531250,31.70
9:24:10.546875,30.18
9:24:10.562500,27.38
9:24:10.578125,23.47
9:24:10.593750,18.79
9:24:10.609375,13.71
9:24:10.625000,8.50
9:24:10.640625,3.28
9:24:10.656250,-2.02
9:24:10.671875,-7.46
9:24:10.687500,-13.07
9:24:10.703125,-18.77
9:24:10.718750,-24.45
9:24:10.734375,-30.00
9:24:10.750000,-35.44
9:24:10.765625,-40.97
9:24:10.781250,-46.94
9:24:10.796875,-53.69
9:24:10.812500,-61.45
9:24:10.828125,-70.07
9:24:10.843750,-78.81
9:24:10.859375,-86.35
9:24:10.875000,-90.95
9:24:10.890625,-90.91
9:24:10.906250,-85.07
9:24:10.921875,-73.30
9:24:10.937500,-56.60
9:24:10.953125,-36.93
9:24:10.968750,-16.61
9:24:10.984375,2.23
9:24:11,18.22
9:24:11.015625,30.82
9:24:11.031250,40.20
9:24:11.046875,46.84
9:24:11.062500,51.26
9:24:11.078125,53.85
9:24:11.093750,54.82
9:24:11.109375,54.30
9:24:11.125000,52.45
9:24:11.140625,49.50
9:24:11.156250,45.79
9:24:11.171875,41.82
9:24:11.187500,38.19
9:24:11.203125,35.53
9:24:11.218750,34.29
9:24:11.234375,34.49
9:24:11.250000,35.77
9:24:11.265625,37.44
9:24:11.281250,38.85
9:24:11.296875,39.62
9:24:11.312500,39.74
9:24:11.328125,39.39
9:24:11.343750,38.70
9:24:11.359375,37.50
9:24:11.375000,35.46
9:24:11.390625,32.24
9:24:11.406250,27.74
9:24:11.421875,22.22
9:24:11.437500,16.14
9:24:11.453125,9.98
9:24:11.468750,4.01
9:24:11.484375,-1.66
9:24:11.500000,-7.09
9:24:11.515625,-12.34
9:24:11.531250,-17.53
9:24:11.546875,-22.89
9:24:11.562500,-28.91
9:24:11.578125,-36.15
9:24:11.593750,-45.05
9:24:11.609375,-55.41
9:24:11.625000,-66.26
9:24:11.640625,-75.87
9:24:11.656250,-82.18
9:24:11.671875,-83.52
9:24:11.687500,-79.22
9:24:11.703125,-69.85
9:24:11.718750,-56.96
9:24:11.734375,-42.49
9:24:11.750000,-28.18
9:24:11.765625,-15.22
9:24:11.781250,-4.27
9:24:11.796875,4.33
9:24:11.812500,10.35
9:24:11.828125,13.59
9:24:11.843750,14.07
9:24:11.859375,12.08
9:24:11.875000,8.28
9:24:11.890625,3.58
9:24:11.906250,-1.08
9:24:11.921875,-4.92
9:24:11.937500,-7.33
9:24:11.953125,-7.98
9:24:11.968750,-6.69
9:24:11.984375,-3.53
9:24:12,1.25
9:24:12.015625,7.07
9:24:12.031250,13.17
9:24:12.046875,18.60
9:24:12.062500,22.47
9:24:12.078125,24.15
9:24:12.093750,23.41
9:24:12.109375,20.63
9:24:12.125000,16.59
9:24:12.140625,12.27
9:24:12.156250,8.43
9:24:12.171875,5.35
9:24:12.187500,2.78
9:24:12.203125,0.16
9:24:12.218750,-3.09
9:24:12.234375,-7.33
9:24:12.250000,-12.53
9:24:12.265625,-18.46
9:24:12.281250,-24.75
9:24:12.296875,-30.99
9:24:12.312500,-36.70
9:24:12.328125,-41.20
9:24:12.343750,-43.69
9:24:12.359375,-43.30
9:24:12.375000,-39.46
9:24:12.390625,-32.12
9:24:12.406250,-21.77
9:24:12.421875,-9.38
9:24:12.437500,3.96
9:24:12.453125,17.21
9:24:12.468750,29.61
9:24:12.484375,40.56
9:24:12.500000,49.54
9:24:12.515625,56.03
9:24:12.531250,59.58
9:24:12.546875,59.97
9:24:12.562500,57.43
9:24:12.578125,52.73
9:24:12.593750,46.95
9:24:12.609375,41.22
9:24:12.625000,36.33
9:24:12.640625,32.52
9:24:12.656250,29.49
9:24:12.671875,26.59
9:24:12.687500,23.19
9:24:12.703125,18.94
9:24:12.718750,13.88
9:24:12.734375,8.53
9:24:12.750000,3.73
9:24:12.765625,0.46
9:24:12.781250,-0.44
9:24:12.796875,1.47
9:24:12.812500,5.93
9:24:12.828125,12.05
9:24:12.843750,18.46
9:24:12.859375,23.77
9:24:12.875000,26.99
9:24:12.890625,27.73
9:24:12.906250,26.15
9:24:12.921875,22.56
9:24:12.937500,17.15
9:24:12.953125,9.83
9:24:12.968750,0.48
9:24:12.984375,-10.69
9:24:13,-22.84
9:24:13.015625,-34.41
9:24:13.031250,-43.46
9:24:13.046875,-48.24
9:24:13.062500,-47.71
9:24:13.078125,-41.81
9:24:13.093750,-31.51
9:24:13.109375,-18.40
9:24:13.125000,-4.25
9:24:13.140625,9.36
9:24:13.156250,21.35
9:24:13.171875,31.08
9:24:13.187500,38.29
9:24:13.203125,42.92
9:24:13.218750,45.01
9:24:13.234375,44.77
9:24:13.250000,42.51
9:24:13.265625,38.77
9:24:13.281250,34.13
9:24:13.296875,29.15
9:24:13.312500,24.27
9:24:13.328125,19.77
9:24:13.343750,15.76
9:24:13.359375,12.30
9:24:13.375000,9.37
9:24:13.390625,6.98
9:24:13.406250,5.19
9:24:13.421875,4.07
9:24:13.437500,3.65
9:24:13.453125,3.80
9:24:13.468750,4.21
9:24:13.484375,4.36
9:24:13.500000,3.69
9:24:13.515625,1.79
9:24:13.531250,-1.36
9:24:13.546875,-5.44
9:24:13.562500,-9.91
9:24:13.578125,-14.34
9:24:13.593750,-18.61
9:24:13.609375,-23.01
9:24:13.625000,-28.00
9:24:13.640625,-33.98
9:24:13.656250,-40.99
9:24:13.671875,-48.69
9:24:13.687500,-56.42
9:24:13.703125,-63.25
9:24:13.718750,-68.13
9:24:13.734375,-70.06
9:24:13.750000,-68.16
9:24:13.765625,-62.03
9:24:13.781250,-51.87
9:24:13.796875,-38.68
9:24:13.812500,-23.97
9:24:13.828125,-9.40
9:24:13.843750,3.61
9:24:13.859375,14.28
9:24:13.875000,22.43
9:24:13.890625,28.30
9:24:13.906250,32.26
9:24:13.921875,34.63
9:24:13.937500,35.70
9:24:13.953125,35.78
9:24:13.968750,35.34
9:24:13.984375,34.99
9:24:14,35.30
9:24:14.015625,36.49
9:24:14.031250,38.29
9:24:14.046875,39.89
9:24:14.062500,40.29
9:24:14.078125,38.72
9:24:14.093750,35.05
9:24:14.109375,29.82
9:24:14.125000,23.97
9:24:14.140625,18.36
9:24:14.156250,13.35
9:24:14.171875,8.84
9:24:14.187500,4.39
9:24:14.203125,-0.33
9:24:14.218750,-5.29
9:24:14.234375,-10.23
9:24:14.250000,-14.86
9:24:14.265625,-19.15
9:24:14.281250,-23.43
9:24:14.296875,-28.38
9:24:14.312500,-34.70
9:24:14.328125,-42.91
9:24:14.343750,-53.06
9:24:14.359375,-64.54
9:24:14.375000,-76.01
9:24:14.390625,-85.44
9:24:14.406250,-90.61
9:24:14.421875,-89.62
9:24:14.437500,-81.58
9:24:14.453125,-66.86
9:24:14.468750,-47.14
9:24:14.484375,-24.81
9:24:14.500000,-2.47
9:24:14.515625,17.67
9:24:14.531250,34.04
9:24:14.546875,45.75
9:24:14.562500,52.56
9:24:14.578125,54.79
9:24:14.593750,53.24
9:24:14.609375,49.01
9:24:14.625000,43.31
9:24:14.640625,37.18
9:24:14.656250,31.38
9:24:14.671875,26.36
9:24:14.687500,22.27
9:24:14.703125,19.17
9:24:14.718750,17.05
9:24:14.734375,15.84
9:24:14.750000,15.33
9:24:14.765625,15.24
9:24:14.781250,15.24
9:24:14.796875,15.02
9:24:14.812500,14.40
9:24:14.828125,13.29
9:24:14.843750,11.61
9:24:14.859375,9.31
9:24:14.875000,6.28
9:24:14.890625,2.46
9:24:14.906250,-2.12
9:24:14.921875,-7.36
9:24:14.937500,-13.06
9:24:14.953125,-19.08
9:24:14.968750,-25.43
9:24:14.984375,-32.24
9:24:15,-39.65
9:24:15.015625,-47.56
9:24:15.031250,-55.43
9:24:15.046875,-62.13
9:24:15.062500,-66.12
9:24:15.078125,-65.90
9:24:15.093750,-60.45
9:24:15.109375,-49.68
9:24:15.125000,-34.59
9:24:15.140625,-17.01
9:24:15.156250,0.86
9:24:15.171875,17.06
9:24:15.187500,30.23
9:24:15.203125,39.86
9:24:15.218750,46.08
9:24:15.234375,49.47
9:24:15.250000,50.74
9:24:15.265625,50.56
9:24:15.281250,49.41
9:24:15.296875,47.53
9:24:15.312500,44.95
9:24:15.328125,41.52
9:24:15.343750,37.08
9:24:15.359375,31.66
9:24:15.375000,25.64
9:24:15.390625,19.78
9:24:15.406250,14.99
9:24:15.421875,12.02
9:24:15.437500,11.20
9:24:15.453125,12.24
9:24:15.468750,14.38
9:24:15.484375,16.64
9:24:15.500000,18.13
9:24:15.515625,18.25
9:24:15.531250,16.75
9:24:15.546875,13.63
9:24:15.562500,9.13
9:24:15.578125,3.57
9:24:15.593750,-2.71
9:24:15.609375,-9.49
9:24:15.625000,-16.70
9:24:15.640625,-24.48
9:24:15.656250,-33.00
9:24:15.671875,-42.15
9:24:15.687500,-51.39
9:24:15.703125,-59.54
9:24:15.718750,-65.03
9:24:15.734375,-66.29
9:24:15.750000,-62.33
9:24:15.765625,-53.09
9:24:15.781250,-39.58
9:24:15.796875,-23.49
9:24:15.812500,-6.69
9:24:15.828125,9.28
9:24:15.843750,23.52
9:24:15.859375,35.72
9:24:15.875000,45.89
9:24:15.890625,54.02
9:24:15.906250,59.90
9:24:15.921875,63.11
9:24:15.937500,63.23
9:24:15.953125,60.12
9:24:15.968750,54.08
9:24:15.984375,45.88
9:24:16,36.60
9:24:16.015625,27.43
9:24:16.031250,19.34
9:24:16.046875,12.99
9:24:16.062500,8.63
9:24:16.078125,6.20
9:24:16.093750,5.35
9:24:16.109375,5.62
9:24:16.125000,6.39
9:24:16.140625,6.99
9:24:16.156250,6.70
9:24:16.171875,4.96
9:24:16.187500,1.46
9:24:16.203125,-3.71
9:24:16.218750,-10.00
9:24:16.234375,-16.61
9:24:16.250000,-22.73
9:24:16.265625,-27.87
9:24:16.281250,-32.04
9:24:16.296875,-35.74
9:24:16.312500,-39.77
9:24:16.328125,-44.81
9:24:16.343750,-51.10
9:24:16.359375,-58.19
9:24:16.375000,-64.91
9:24:16.390625,-69.65
9:24:16.406250,-70.75
9:24:16.421875,-67.07
9:24:16.437500,-58.27
9:24:16.453125,-45.03
9:24:16.468750,-28.87
9:24:16.484375,-11.77
9:24:16.500000,4.40
9:24:16.515625,18.23
9:24:16.531250,28.98
9:24:16.546875,36.51
9:24:16.562500,41.08
9:24:16.578125,43.13
9:24:16.593750,43.15
9:24:16.609375,41.61
9:24:16.625000,38.99
9:24:16.640625,35.72
9:24:16.656250,32.08
9:24:16.671875,28.16
9:24:16.687500,23.88
9:24:16.703125,19.12
9:24:16.718750,13.99
9:24:16.734375,8.89
9:24:16.750000,4.53
9:24:16.765625,1.72
9:24:16.781250,1.02
9:24:16.796875,2.51
9:24:16.812500,5.69
9:24:16.828125,9.61
9:24:16.843750,13.21
9:24:16.859375,15.58
9:24:16.875000,16.28
9:24:16.890625,15.28
9:24:16.906250,12.95
9:24:16.921875,9.79
9:24:16.937500,6.26
9:24:16.953125,2.70
9:24:16.968750,-0.78
9:24:16.984375,-4.30
9:24:17,-8.26
9:24:17.015625,-13.24
9:24:17.031250,-19.81
9:24:17.046875,-28.33
9:24:17.062500,-38.57
9:24:17.078125,-49.54
9:24:17.093750,-59.55
9:24:17.109375,-66.61
9:24:17.125000,-68.87
9:24:17.140625,-65.25
9:24:17.156250,-55.65
9:24:17.171875,-41.02
9:24:17.187500,-23.01
9:24:17.203125,-3.62
9:24:17.218750,15.19
9:24:17.234375,31.84
9:24:17.250000,45.19
9:24:17.265625,54.68
9:24:17.281250,60.19
9:24:17.296875,62.03
9:24:17.312500,60.80
9:24:17.328125,57.28
9:24:17.343750,52.30
9:24:17.359375,46.68
9:24:17.375000,41.13
9:24:17.390625,36.18
9:24:17.406250,32.11
9:24:17.421875,28.98
9:24:17.437500,26.65
9:24:17.453125,24.91
9:24:17.468750,23.64
9:24:17.484375,22.79
9:24:17.500000,22.39
9:24:17.515625,22.33
9:24:17.531250,22.25
9:24:17.546875,21.58
9:24:17.562500,19.75
9:24:17.578125,16.45
9:24:17.593750,11.84
9:24:17.609375,6.53
9:24:17.625000,1.27
9:24:17.640625,-3.29
9:24:17.656250,-6.85
9:24:17.671875,-9.47
9:24:17.687500,-11.41
9:24:17.703125,-13.16
9:24:17.718750,-15.37
9:24:17.734375,-18.95
9:24:17.750000,-24.89
9:24:17.765625,-33.93
9:24:17.781250,-46.05
9:24:17.796875,-60.09
9:24:17.812500,-73.83
9:24:17.828125,-84.54
9:24:17.843750,-89.80
9:24:17.859375,-88.18
9:24:17.875000,-79.60
9:24:17.890625,-65.16
9:24:17.906250,-46.68
9:24:17.921875,-26.20
9:24:17.937500,-5.67
9:24:17.953125,13.23
9:24:17.968750,29.18
9:24:17.984375,41.30
9:24:18,49.26
9:24:18.015625,53.30
9:24:18.031250,54.13
9:24:18.046875,52.66
9:24:18.062500,49.84
9:24:18.078125,46.43
9:24:18.093750,43.00
9:24:18.109375,39.95
9:24:18.125000,37.60
9:24:18.140625,36.13
9:24:18.156250,35.53
9:24:18.171875,35.56
9:24:18.187500,35.73
9:24:18.203125,35.41
9:24:18.218750,33.99
9:24:18.234375,30.98
9:24:18.250000,26.11
9:24:18.265625,19.36
9:24:18.281250,10.95
9:24:18.296875,1.33
9:24:18.312500,-8.76
9:24:18.328125,-18.36
9:24:18.343750,-26.41
9:24:18.359375,-32.01
9:24:18.375000,-34.65
9:24:18.390625,-34.54
9:24:18.406250,-32.54
9:24:18.421875,-29.91
9:24:18.437500,-28.00
9:24:18.453125,-27.85
9:24:18.468750,-29.94
9:24:18.484375,-34.27
9:24:18.500000,-40.46
9:24:18.515625,-47.96
9:24:18.531250,-55.99
9:24:18.546875,-63.54
9:24:18.562500,-69.17
9:24:18.578125,-71.29
9:24:18.593750,-68.53
9:24:18.609375,-60.19
9:24:18.625000,-46.74
9:24:18.640625,-29.73
9:24:18.656250,-11.50
9:24:18.671875,5.54
9:24:18.687500,19.58
9:24:18.703125,29.76
9:24:18.718750,36.10
9:24:18.734375,39.19
9:24:18.750000,39.69
9:24:18.765625,38.14
9:24:18.781250,34.88
9:24:18.796875,30.41
9:24:18.812500,25.55
9:24:18.828125,21.51
9:24:18.843750,19.51
9:24:18.859375,20.32
9:24:18.875000,23.79
9:24:18.890625,28.78
9:24:18.906250,33.55
9:24:18.921875,36.45
9:24:18.937500,36.56
9:24:18.953125,34.00
9:24:18.968750,29.70
9:24:18.984375,24.84
9:24:19,20.34
9:24:19.015625,16.46
9:24:19.031250,12.96
9:24:19.046875,9.42
9:24:19.062500,5.58
9:24:19.078125,1.54
9:24:19.093750,-2.41
9:24:19.109375,-5.98
9:24:19.125000,-9.12
9:24:19.140625,-12.07
9:24:19.156250,-15.22
9:24:19.171875,-18.95
9:24:19.187500,-23.55
9:24:19.203125,-29.17
9:24:19.218750,-35.90
9:24:19.234375,-43.68
9:24:19.250000,-52.13
9:24:19.265625,-60.39
9:24:19.281250,-67.08
9:24:19.296875,-70.49
9:24:19.312500,-69.13
9:24:19.328125,-62.21
9:24:19.343750,-50.04
9:24:19.359375,-33.97
9:24:19.375000,-16.03
9:24:19.390625,1.71
9:24:19.406250,17.66
9:24:19.421875,30.90
9:24:19.437500,41.19
9:24:19.453125,48.69
9:24:19.468750,53.61
9:24:19.484375,56.09
9:24:19.500000,56.12
9:24:19.515625,53.77
9:24:19.531250,49.36
9:24:19.546875,43.56
9:24:19.562500,37.35
9:24:19.578125,31.77
9:24:19.593750,27.62
9:24:19.609375,25.27
9:24:19.625000,24.57
9:24:19.640625,24.94
9:24:19.656250,25.64
9:24:19.671875,25.90
9:24:19.687500,25.17
9:24:19.703125,23.21
9:24:19.718750,20.07
9:24:19.734375,16.11
9:24:19.750000,11.84
9:24:19.765625,7.75
9:24:19.781250,4.19
9:24:19.796875,1.18
9:24:19.812500,-1.48
9:24:19.828125,-4.17
9:24:19.843750,-7.27
9:24:19.859375,-11.01
9:24:19.875000,-15.42
9:24:19.890625,-20.34
9:24:19.906250,-25.59
9:24:19.921875,-31.05
9:24:19.937500,-36.74
9:24:19.953125,-42.72
9:24:19.968750,-48.99
9:24:19.984375,-55.19
9:24:20,-60.48
9:24:20.015625,-63.68
9:24:20.031250,-63.46
9:24:20.046875,-58.88
9:24:20.062500,-49.66
9:24:20.078125,-36.35
9:24:20.093750,-20.21
9:24:20.109375,-2.85
9:24:20.125000,14.08
9:24:20.140625,29.13
9:24:20.156250,41.10
9:24:20.171875,49.12
9:24:20.187500,52.66
9:24:20.203125,51.62
9:24:20.218750,46.48
9:24:20.234375,38.22
9:24:20.250000,28.19
9:24:20.265625,17.72
9:24:20.281250,7.89
9:24:20.296875,-0.70
9:24:20.312500,-7.80
9:24:20.328125,-13.36
9:24:20.343750,-17.26
9:24:20.359375,-19.32
9:24:20.375000,-19.45
9:24:20.390625,-17.74
9:24:20.406250,-14.66
9:24:20.421875,-10.95
9:24:20.437500,-7.40
9:24:20.453125,-4.67
9:24:20.468750,-3.14
9:24:20.484375,-2.99
9:24:20.500000,-4.18
9:24:20.515625,-6.56
9:24:20.531250,-9.81
9:24:20.546875,-13.51
9:24:20.562500,-17.18
9:24:20.578125,-20.49
9:24:20.593750,-23.38
9:24:20.609375,-26.10
9:24:20.625000,-29.09
9:24:20.640625,-32.78
9:24:20.656250,-37.43
9:24:20.671875,-43.19
9:24:20.687500,-50.11
9:24:20.703125,-58.13
9:24:20.718750,-66.89
9:24:20.734375,-75.41
9:24:20.750000,-82.02
9:24:20.765625,-84.69
9:24:20.781250,-81.68
9:24:20.796875,-72.29
9:24:20.812500,-57.26
9:24:20.828125,-38.68
9:24:20.843750,-19.19
9:24:20.859375,-1.20
9:24:20.875000,13.83
9:24:20.890625,25.46
9:24:20.906250,33.98
9:24:20.921875,39.84
9:24:20.937500,43.34
9:24:20.953125,44.57
9:24:20.968750,43.63
9:24:20.984375,40.93
9:24:21,37.21
9:24:21.015625,33.40
9:24:21.031250,30.26
9:24:21.046875,28.17
9:24:21.062500,27.06
9:24:21.078125,26.60
9:24:21.093750,26.39
9:24:21.109375,26.18
9:24:21.125000,25.82
9:24:21.140625,25.16
9:24:21.156250,23.98
9:24:21.171875,22.02
9:24:21.187500,19.07
9:24:21.203125,15.20
9:24:21.218750,10.73
9:24:21.234375,6.19
9:24:21.250000,2.05
9:24:21.265625,-1.42
9:24:21.281250,-4.25
9:24:21.296875,-6.70
9:24:21.312500,-9.18
9:24:21.328125,-12.17
9:24:21.343750,-16.14
9:24:21.359375,-21.50
9:24:21.375000,-28.38
9:24:21.390625,-36.50
9:24:21.406250,-44.94
9:24:21.421875,-52.20
9:24:21.437500,-56.39
9:24:21.453125,-55.81
9:24:21.468750,-49.48
9:24:21.484375,-37.52
9:24:21.500000,-21.22
9:24:21.515625,-2.70
9:24:21.531250,15.67
9:24:21.546875,31.80
9:24:21.562500,44.32
9:24:21.578125,52.69
9:24:21.593750,57.08
9:24:21.609375,58.12
9:24:21.625000,56.70
9:24:21.640625,53.74
9:24:21.656250,50.06
9:24:21.671875,46.28
9:24:21.687500,42.67
9:24:21.703125,39.25
9:24:21.718750,35.73
9:24:21.734375,31.77
9:24:21.750000,27.15
9:24:21.765625,21.99
9:24:21.781250,16.84
9:24:21.796875,12.58
9:24:21.812500,10.13
9:24:21.828125,10.11
9:24:21.843750,12.56
9:24:21.859375,16.77
9:24:21.875000,21.46
9:24:21.890625,25.31
9:24:21.906250,27.28
9:24:21.921875,27.07
9:24:21.937500,25.06
9:24:21.953125,21.95
9:24:21.968750,18.32
9:24:21.984375,14.18
9:24:22,8.96
9:24:22.015625,1.87
9:24:22.031250,-7.52
9:24:22.046875,-18.72
9:24:22.062500,-30.15
9:24:22.078125,-39.41
9:24:22.093750,-44.05
9:24:22.109375,-42.43
9:24:22.125000,-34.27
9:24:22.140625,-20.91
9:24:22.156250,-4.84
9:24:22.171875,11.00
9:24:22.187500,24.07
9:24:22.203125,32.89
9:24:22.218750,37.24
9:24:22.234375,37.96
9:24:22.250000,36.47
9:24:22.265625,34.22
9:24:22.281250,32.27
9:24:22.296875,31.13
9:24:22.312500,30.83
9:24:22.328125,30.98
9:24:22.343750,30.97
9:24:22.359375,29.99
9:24:22.375000,27.10
9:24:22.390625,21.51
9:24:22.406250,12.88
9:24:22.421875,1.71
9:24:22.437500,-10.64
9:24:22.453125,-22.16
9:24:22.468750,-30.88
9:24:22.484375,-35.62
9:24:22.500000,-36.46
9:24:22.515625,-34.64
9:24:22.531250,-32.09
9:24:22.546875,-30.50
9:24:22.562500,-30.90
9:24:22.578125,-33.27
9:24:22.593750,-36.92
9:24:22.609375,-40.80
9:24:22.625000,-44.07
9:24:22.640625,-46.27
9:24:22.656250,-47.40
9:24:22.671875,-47.81
9:24:22.687500,-48.01
9:24:22.703125,-48.50
9:24:22.718750,-49.43
9:24:22.734375,-50.57
9:24:22.750000,-51.09
9:24:22.765625,-49.91
9:24:22.781250,-45.89
9:24:22.796875,-38.32
9:24:22.812500,-27.13
9:24:22.828125,-12.95
9:24:22.843750,3.00
9:24:22.859375,19.25
9:24:22.875000,34.21
9:24:22.890625,46.59
9:24:22.906250,55.48
9:24:22.921875,60.54
9:24:22.937500,61.99
9:24:22.953125,60.49
9:24:22.968750,56.98
9:24:22.984375,52.34
9:24:23,47.24
9:24:23.015625,42.05
9:24:23.031250,36.89
9:24:23.046875,31.82
9:24:23.062500,26.95
9:24:23.078125,22.44
9:24:23.093750,18.56
9:24:23.109375,15.57
9:24:23.125000,13.57
9:24:23.140625,12.50
9:24:23.156250,11.99
9:24:23.171875,11.51
9:24:23.187500,10.55
9:24:23.203125,8.75
9:24:23.218750,6.09
9:24:23.234375,2.82
9:24:23.250000,-0.67
9:24:23.265625,-4.12
9:24:23.281250,-7.50
9:24:23.296875,-10.94
9:24:23.312500,-14.66
9:24:23.328125,-18.84
9:24:23.343750,-23.66
9:24:23.359375,-29.26
9:24:23.375000,-35.76
9:24:23.390625,-43.05
9:24:23.406250,-50.54
9:24:23.421875,-57.06
9:24:23.437500,-61.02
9:24:23.453125,-60.94
9:24:23.468750,-55.99
9:24:23.484375,-46.38
9:24:23.500000,-33.31
9:24:23.515625,-18.64
9:24:23.531250,-4.17
9:24:23.546875,8.72
9:24:23.562500,19.25
9:24:23.578125,27.18
9:24:23.593750,32.54
9:24:23.609375,35.43
9:24:23.625000,36.05
9:24:23.640625,34.71
9:24:23.656250,31.91
9:24:23.671875,28.32
9:24:23.687500,24.65
9:24:23.703125,21.44
9:24:23.718750,18.98
9:24:23.734375,17.28
9:24:23.750000,16.18
9:24:23.765625,15.50
9:24:23.781250,15.14
9:24:23.796875,15.05
9:24:23.812500,15.24
9:24:23.828125,15.57
9:24:23.843750,15.78
9:24:23.859375,15.48
9:24:23.875000,14.32
9:24:23.890625,12.07
9:24:23.906250,8.81
9:24:23.921875,4.78
9:24:23.937500,0.42
9:24:23.953125,-3.78
9:24:23.968750,-7.46
9:24:23.984375,-10.48
9:24:24,-12.97
9:24:24.015625,-15.41
9:24:24.031250,-18.42
9:24:24.046875,-22.55
9:24:24.062500,-28.00
9:24:24.078125,-34.41
9:24:24.093750,-40.77
9:24:24.109375,-45.74
9:24:24.125000,-48.00
9:24:24.140625,-46.62
9:24:24.156250,-41.38
9:24:24.171875,-32.81
9:24:24.187500,-21.95
9:24:24.203125,-10.06
9:24:24.218750,1.60
9:24:24.234375,12.04
9:24:24.250000,20.59
9:24:24.265625,26.92
9:24:24.281250,31.04
9:24:24.296875,33.22
9:24:24.312500,33.83
9:24:24.328125,33.27
9:24:24.343750,31.87
9:24:24.359375,29.82
9:24:24.375000,27.26
9:24:24.390625,24.32
9:24:24.406250,21.24
9:24:24.421875,18.36
9:24:24.437500,16.09
9:24:24.453125,14.65
9:24:24.468750,14.03
9:24:24.484375,13.91
9:24:24.500000,13.79
9:24:24.515625,13.21
9:24:24.531250,11.94
9:24:24.546875,9.98
9:24:24.562500,7.45
9:24:24.578125,4.44
9:24:24.593750,0.79
9:24:24.609375,-3.79
9:24:24.625000,-9.57
9:24:24.640625,-16.61
9:24:24.656250,-24.66
9:24:24.671875,-33.31
9:24:24.687500,-42.14
9:24:24.703125,-50.90
9:24:24.718750,-59.42
9:24:24.734375,-67.43
9:24:24.750000,-74.33
9:24:24.765625,-79.07
9:24:24.781250,-80.42
9:24:24.796875,-77.37
9:24:24.812500,-69.53
9:24:24.828125,-57.42
9:24:24.843750,-42.34
9:24:24.859375,-26.03
9:24:24.875000,-10.24
9:24:24.890625,3.71
9:24:24.906250,15.04
9:24:24.921875,23.55
9:24:24.937500,29.48
9:24:24.953125,33.20
9:24:24.968750,35.11
9:24:24.984375,35.46
9:24:25,34.37
9:24:25.015625,31.90
9:24:25.031250,28.21
9:24:25.046875,23.62
9:24:25.062500,18.68
9:24:25.078125,13.95
9:24:25.093750,9.93
9:24:25.109375,6.86
9:24:25.125000,4.66
9:24:25.140625,2.99
9:24:25.156250,1.40
9:24:25.171875,-0.56
9:24:25.187500,-3.22
9:24:25.203125,-6.72
9:24:25.218750,-10.96
9:24:25.234375,-15.68
9:24:25.250000,-20.51
9:24:25.265625,-25.16
9:24:25.281250,-29.49
9:24:25.296875,-33.60
9:24:25.312500,-37.81
9:24:25.328125,-42.50
9:24:25.343750,-47.94
9:24:25.359375,-54.13
9:24:25.375000,-60.64
9:24:25.390625,-66.63
9:24:25.406250,-70.99
9:24:25.421875,-72.58
9:24:25.437500,-70.56
9:24:25.453125,-64.65
9:24:25.468750,-55.22
9:24:25.484375,-43.24
9:24:25.500000,-29.99
9:24:25.515625,-16.65
9:24:25.531250,-4.19
9:24:25.546875,6.88
9:24:25.562500,16.42
9:24:25.578125,24.52
9:24:25.593750,31.32
9:24:25.609375,36.91
9:24:25.625000,41.33
9:24:25.640625,44.54
9:24:25.656250,46.57
9:24:25.671875,47.51
9:24:25.687500,47.54
9:24:25.703125,46.85
9:24:25.718750,45.61
9:24:25.734375,43.89
9:24:25.750000,41.68
9:24:25.765625,39.04
9:24:25.781250,36.10
9:24:25.796875,33.14
9:24:25.812500,30.42
9:24:25.828125,28.09
9:24:25.843750,26.07
9:24:25.859375,24.09
9:24:25.875000,21.77
9:24:25.890625,18.87
9:24:25.906250,15.33
9:24:25.921875,11.32
9:24:25.937500,7.08
9:24:25.953125,2.83
9:24:25.968750,-1.35
9:24:25.984375,-5.58
9:24:26,-10.13
9:24:26.015625,-15.42
9:24:26.031250,-21.84
9:24:26.046875,-29.61
9:24:26.062500,-38.50
9:24:26.078125,-47.62
9:24:26.093750,-55.43
9:24:26.109375,-60.09
9:24:26.125000,-59.98
9:24:26.140625,-54.30
9:24:26.156250,-43.45
9:24:26.171875,-28.90
9:24:26.187500,-12.81
9:24:26.203125,2.64
9:24:26.218750,15.87
9:24:26.234375,26.21
9:24:26.250000,33.87
9:24:26.265625,39.69
9:24:26.281250,44.62
9:24:26.296875,49.34
9:24:26.312500,53.88
9:24:26.328125,57.71
9:24:26.343750,59.98
9:24:26.359375,59.94
9:24:26.375000,57.35
9:24:26.390625,52.60
9:24:26.406250,46.55
9:24:26.421875,40.19
9:24:26.437500,34.29
9:24:26.453125,29.31
9:24:26.468750,25.39
9:24:26.484375,22.53
9:24:26.500000,20.67
9:24:26.515625,19.64
9:24:26.531250,19.03
9:24:26.546875,18.26
9:24:26.562500,16.66
9:24:26.578125,13.77
9:24:26.593750,9.46
9:24:26.609375,4.02
9:24:26.625000,-2.08
9:24:26.640625,-8.34
9:24:26.656250,-14.46
9:24:26.671875,-20.35
9:24:26.687500,-26.11
9:24:26.703125,-31.92
9:24:26.718750,-37.97
9:24:26.734375,-44.40
9:24:26.750000,-51.29
9:24:26.765625,-58.62
9:24:26.781250,-66.12
9:24:26.796875,-73.24
9:24:26.812500,-79.08
9:24:26.828125,-82.46
9:24:26.843750,-82.13
9:24:26.859375,-77.08
9:24:26.875000,-66.91
9:24:26.890625,-52.05
9:24:26.906250,-33.74
9:24:26.921875,-13.79
9:24:26.937500,5.89
9:24:26.953125,23.78
9:24:26.968750,39.06
9:24:26.984375,51.49
9:24:27,61.22
9:24:27.015625,68.49
9:24:27.031250,73.48
9:24:27.046875,76.28
9:24:27.062500,77.07
9:24:27.078125,76.16
9:24:27.093750,74.02
9:24:27.109375,71.12
9:24:27.125000,67.77
9:24:27.140625,64.15
9:24:27.156250,60.33
9:24:27.171875,56.44
9:24:27.187500,52.71
9:24:27.203125,49.43
9:24:27.218750,46.83
9:24:27.234375,44.93
9:24:27.250000,43.54
9:24:27.265625,42.36
9:24:27.281250,41.07
9:24:27.296875,39.48
9:24:27.312500,37.47
9:24:27.328125,35.00
9:24:27.343750,32.06
9:24:27.359375,28.69
9:24:27.375000,25.01
9:24:27.390625,21.25
9:24:27.406250,17.60
9:24:27.421875,14.12
9:24:27.437500,10.66
9:24:27.453125,6.81
9:24:27.468750,2.15
9:24:27.484375,-3.56
9:24:27.500000,-10.20
9:24:27.515625,-17.29
9:24:27.531250,-24.20
9:24:27.546875,-30.47
9:24:27.562500,-36.01
9:24:27.578125,-41.13
9:24:27.593750,-46.46
9:24:27.609375,-52.59
9:24:27.625000,-59.78
9:24:27.640625,-67.72
9:24:27.656250,-75.39
9:24:27.671875,-81.27
9:24:27.687500,-83.74
9:24:27.703125,-81.54
9:24:27.718750,-74.24
9:24:27.734375,-62.38
9:24:27.750000,-47.41
9:24:27.765625,-31.15
9:24:27.781250,-15.34
9:24:27.796875,-1.18
9:24:27.812500,10.76
9:24:27.828125,20.44
9:24:27.843750,28.02
9:24:27.859375,33.64
9:24:27.875000,37.29
9:24:27.890625,38.87
9:24:27.906250,38.35
9:24:27.921875,35.83
9:24:27.937500,31.74
9:24:27.953125,26.78
9:24:27.968750,21.77
9:24:27.984375,17.55
9:24:28,14.73
9:24:28.015625,13.62
9:24:28.031250,14.12
9:24:28.046875,15.83
9:24:28.062500,18.16
9:24:28.078125,20.49
9:24:28.093750,22.30
9:24:28.109375,23.23
9:24:28.125000,23.20
9:24:28.140625,22.29
9:24:28.156250,20.77
9:24:28.171875,18.88
9:24:28.187500,16.82
9:24:28.203125,14.55
9:24:28.218750,11.84
9:24:28.234375,8.39
9:24:28.250000,3.99
9:24:28.265625,-1.39
9:24:28.281250,-7.57
9:24:28.296875,-14.30
9:24:28.312500,-21.32
9:24:28.328125,-28.51
9:24:28.343750,-35.85
9:24:28.359375,-43.45
9:24:28.375000,-51.43
9:24:28.390625,-59.90
9:24:28.406250,-68.81
9:24:28.421875,-77.84
9:24:28.437500,-86.23
9:24:28.453125,-92.68
9:24:28.468750,-95.60
9:24:28.484375,-93.46
9:24:28.500000,-85.36
9:24:28.515625,-71.49
9:24:28.531250,-53.21
9:24:28.546875,-32.78
9:24:28.562500,-12.69
9:24:28.578125,5.00
9:24:28.593750,19.11
9:24:28.609375,29.43
9:24:28.625000,36.46
9:24:28.640625,40.97
9:24:28.656250,43.63
9:24:28.671875,44.73
9:24:28.687500,44.36
9:24:28.703125,42.54
9:24:28.718750,39.41
9:24:28.734375,35.42
9:24:28.750000,31.20
9:24:28.765625,27.40
9:24:28.781250,24.53
9:24:28.796875,22.72
9:24:28.812500,21.82
9:24:28.828125,21.42
9:24:28.843750,21.04
9:24:28.859375,20.24
9:24:28.875000,18.74
9:24:28.890625,16.47
9:24:28.906250,13.66
9:24:28.921875,10.80
9:24:28.937500,8.55
9:24:28.953125,7.53
9:24:28.968750,7.99
9:24:28.984375,9.69
9:24:29,11.72
9:24:29.015625,12.74
9:24:29.031250,11.41
9:24:29.046875,6.79
9:24:29.062500,-1.23
9:24:29.078125,-11.88
9:24:29.093750,-23.71
9:24:29.109375,-35.00
9:24:29.125000,-44.35
9:24:29.140625,-51.16
9:24:29.156250,-55.83
9:24:29.171875,-59.36
9:24:29.187500,-62.54
9:24:29.203125,-65.14
9:24:29.218750,-65.50
9:24:29.234375,-61.15
9:24:29.250000,-50.13
9:24:29.265625,-32.46
9:24:29.281250,-11.22
9:24:29.296875,7.91
9:24:29.312500,18.45
9:24:29.328125,15.32
9:24:29.343750,-3.38
9:24:29.359375,-35.95
9:24:29.375000,-77.79
9:24:29.390625,-122.66
9:24:29.406250,-163.92
9:24:29.421875,-195.70
9:24:29.437500,-213.61
9:24:29.453125,-215.18
9:24:29.468750,-200.04
9:24:29.484375,-169.93
9:24:29.500000,-128.24
9:24:29.515625,-79.26
9:24:29.531250,-26.55
9:24:29.546875,28.03
9:24:29.562500,84.10
9:24:29.578125,141.61
9:24:29.593750,199.55
9:24:29.609375,255.31
9:24:29.625000,304.57
9:24:29.640625,342.31
9:24:29.656250,364.05
9:24:29.671875,367.93
9:24:29.687500,355.49
9:24:29.703125,330.58
9:24:29.718750,297.44
9:24:29.734375,259.63
9:24:29.750000,219.75
9:24:29.765625,179.55
9:24:29.781250,140.38
9:24:29.796875,102.84
9:24:29.812500,67.70
9:24:29.828125,35.98
9:24:29.843750,7.83
9:24:29.859375,-18.27
9:24:29.875000,-45.06
9:24:29.890625,-75.19
9:24:29.906250,-110.36
9:24:29.921875,-150.44
9:24:29.937500,-194.04
9:24:29.953125,-237.59
9:24:29.968750,-274.22
9:24:29.984375,-294.16
9:24:30,-292.14
9:24:30.015625,-272.38
9:24:30.031250,-245.24
9:24:30.046875,-222.34
9:24:30.062500,-205.01
9:24:30.078125,-190.93
9:24:30.093750,-176.75
9:24:30.109375,-159.67
9:24:30.125000,-139.24
9:24:30.140625,-117.27
9:24:30.156250,-95.86
9:24:30.171875,-75.48
9:24:30.187500,-54.43
9:24:30.203125,-29.72
9:24:30.218750,0.14
9:24:30.234375,34.60
9:24:30.250000,70.70
9:24:30.265625,103.44
9:24:30.281250,127.12
9:24:30.296875,137.95
9:24:30.312500,135.95
9:24:30.328125,124.58
9:24:30.343750,109.00
9:24:30.359375,92.89
9:24:30.375000,77.82
9:24:30.390625,63.51
9:24:30.406250,48.76
9:24:30.421875,32.68
9:24:30.437500,15.69
9:24:30.453125,-0.40
9:24:30.468750,-13.44
9:24:30.484375,-22.01
9:24:30.500000,-26.53
9:24:30.515625,-28.44
9:24:30.531250,-29.36
9:24:30.546875,-30.69
9:24:30.562500,-33.46
9:24:30.578125,-38.32
9:24:30.593750,-45.46
9:24:30.609375,-54.69
9:24:30.625000,-65.40
9:24:30.640625,-76.94
9:24:30.656250,-88.53
9:24:30.671875,-99.49
9:24:30.687500,-109.54
9:24:30.703125,-118.91
9:24:30.718750,-128.37
9:24:30.734375,-138.71
9:24:30.750000,-150.40
9:24:30.765625,-163.10
9:24:30.781250,-175.57
9:24:30.796875,-185.64
9:24:30.812500,-190.78
9:24:30.828125,-188.79
9:24:30.843750,-178.56
9:24:30.859375,-160.41
9:24:30.875000,-135.90
9:24:30.890625,-107.37
9:24:30.906250,-77.24
9:24:30.921875,-47.48
9:24:30.937500,-19.22
9:24:30.953125,7.18
9:24:30.968750,32.11
9:24:30.984375,56.57
9:24:31,81.89
9:24:31.015625,109.47
9:24:31.031250,140.59
9:24:31.046875,175.85
9:24:31.062500,215.02
9:24:31.078125,256.90
9:24:31.093750,299.24
9:24:31.109375,338.79
9:24:31.125000,371.67
9:24:31.140625,394.40
9:24:31.156250,405.19
9:24:31.171875,404.74
9:24:31.187500,395.97
9:24:31.203125,382.54
9:24:31.218750,366.66
9:24:31.234375,347.84
9:24:31.250000,323.22
9:24:31.265625,289.60
9:24:31.281250,245.93
9:24:31.296875,194.48
9:24:31.312500,140.23
9:24:31.328125,88.52
9:24:31.343750,42.76
9:24:31.359375,3.49
9:24:31.375000,-30.75
9:24:31.390625,-61.36
9:24:31.406250,-88.12
9:24:31.421875,-108.94
9:24:31.437500,-121.28
9:24:31.453125,-124.05
9:24:31.468750,-118.77
9:24:31.484375,-109.31
9:24:31.500000,-100.47
9:24:31.515625,-96.35
9:24:31.531250,-98.70
9:24:31.546875,-106.96
9:24:31.562500,-118.87
9:24:31.578125,-131.73
9:24:31.593750,-143.40
9:24:31.609375,-152.72
9:24:31.625000,-159.23
9:24:31.640625,-162.72
9:24:31.656250,-162.72
9:24:31.671875,-158.61
9:24:31.687500,-150.04
9:24:31.703125,-137.31
9:24:31.718750,-121.40
9:24:31.734375,-103.75
9:24:31.750000,-85.71
9:24:31.765625,-68.27
9:24:31.781250,-52.06
9:24:31.796875,-37.61
9:24:31.812500,-25.61
9:24:31.828125,-16.79
9:24:31.843750,-11.59
9:24:31.859375,-9.62
9:24:31.875000,-9.64
9:24:31.890625,-9.81
9:24:31.906250,-8.55
9:24:31.921875,-5.12
9:24:31.937500,0.04
9:24:31.953125,5.72
9:24:31.968750,10.43
9:24:31.984375,12.91
9:24:32,12.14
9:24:32.015625,7.17
9:24:32.031250,-2.91
9:24:32.046875,-18.28
9:24:32.062500,-37.34
9:24:32.078125,-56.02
9:24:32.093750,-68.50
9:24:32.109375,-69.39
9:24:32.125000,-56.22
9:24:32.140625,-30.90
9:24:32.156250,1.05
9:24:32.171875,32.86
9:24:32.187500,59.44
9:24:32.203125,78.85
9:24:32.218750,91.94
9:24:32.234375,100.54
9:24:32.250000,105.69
9:24:32.265625,107.12
9:24:32.281250,104.01
9:24:32.296875,96.28
9:24:32.312500,85.24
9:24:32.328125,73.07
9:24:32.343750,61.66
9:24:32.359375,51.74
9:24:32.375000,42.95
9:24:32.390625,34.76
9:24:32.406250,27.32
9:24:32.421875,21.75
9:24:32.437500,19.53
9:24:32.453125,21.53
9:24:32.468750,27.36
9:24:32.484375,35.47
9:24:32.500000,43.62
9:24:32.515625,49.93
9:24:32.531250,53.40
9:24:32.546875,54.04
9:24:32.562500,52.51
9:24:32.578125,49.57
9:24:32.593750,45.78
9:24:32.609375,41.41
9:24:32.625000,36.67
9:24:32.640625,31.97
9:24:32.656250,27.93
9:24:32.671875,25.20
9:24:32.687500,24.18
9:24:32.703125,24.73
9:24:32.718750,26.25
9:24:32.734375,27.97
9:24:32.750000,29.16
9:24:32.765625,29.38
9:24:32.781250,28.37
9:24:32.796875,25.95
9:24:32.812500,21.97
9:24:32.828125,16.40
9:24:32.843750,9.60
9:24:32.859375,2.42
9:24:32.875000,-4.02
9:24:32.890625,-8.68
9:24:32.906250,-11.22
9:24:32.921875,-12.17
9:24:32.937500,-12.76
9:24:32.953125,-14.34
9:24:32.968750,-17.80
9:24:32.984375,-23.21
9:24:33,-29.98
9:24:33.015625,-37.23
9:24:33.031250,-44.18
9:24:33.046875,-50.38
9:24:33.062500,-55.57
9:24:33.078125,-59.42
9:24:33.093750,-61.35
9:24:33.109375,-60.63
9:24:33.125000,-56.72
9:24:33.140625,-49.56
9:24:33.156250,-39.81
9:24:33.171875,-28.71
9:24:33.187500,-17.68
9:24:33.203125,-7.91
9:24:33.218750,-0.06
9:24:33.234375,5.79
9:24:33.250000,9.89
9:24:33.265625,12.54
9:24:33.281250,13.89
9:24:33.296875,13.94
9:24:33.312500,12.70
9:24:33.328125,10.37
9:24:33.343750,7.38
9:24:33.359375,4.26
9:24:33.375000,1.50
9:24:33.390625,-0.66
9:24:33.406250,-2.19
9:24:33.421875,-3.26
9:24:33.437500,-4.01
9:24:33.453125,-4.53
9:24:33.468750,-4.78
9:24:33.484375,-4.74
9:24:33.500000,-4.43
9:24:33.515625,-4.07
9:24:33.531250,-3.98
9:24:33.546875,-4.55
9:24:33.562500,-6.10
9:24:33.578125,-8.80
9:24:33.593750,-12.60
9:24:33.609375,-17.35
9:24:33.625000,-22.78
9:24:33.640625,-28.65
9:24:33.656250,-34.71
9:24:33.671875,-40.81
9:24:33.687500,-46.79
9:24:33.703125,-52.52
9:24:33.718750,-57.75
9:24:33.734375,-62.09
9:24:33.750000,-64.88
9:24:33.765625,-65.26
9:24:33.781250,-62.32
9:24:33.796875,-55.41
9:24:33.812500,-44.50
9:24:33.828125,-30.32
9:24:33.843750,-14.35
9:24:33.859375,1.55
9:24:33.875000,15.67
9:24:33.890625,26.80
9:24:33.906250,34.51
9:24:33.921875,39.06
9:24:33.937500,41.10
9:24:33.953125,41.30
9:24:33.968750,40.14
9:24:33.984375,37.86
9:24:34,34.53
9:24:34.015625,30.30
9:24:34.031250,25.47
9:24:34.046875,20.52
9:24:34.062500,15.95
9:24:34.078125,12.11
9:24:34.093750,9.11
9:24:34.109375,6.81
9:24:34.125000,4.99
9:24:34.140625,3.43
9:24:34.156250,2.05
9:24:34.171875,0.86
9:24:34.187500,-0.12
9:24:34.203125,-0.94
9:24:34.218750,-1.78
9:24:34.234375,-2.72
9:24:34.250000,-3.91
9:24:34.265625,-5.52
9:24:34.281250,-7.79
9:24:34.296875,-11.04
9:24:34.312500,-15.39
9:24:34.328125,-20.81
9:24:34.343750,-27.22
9:24:34.359375,-34.42
9:24:34.375000,-41.83
9:24:34.390625,-48.70
9:24:34.406250,-54.11
9:24:34.421875,-57.10
9:24:34.437500,-56.88
9:24:34.453125,-52.81
9:24:34.468750,-44.74
9:24:34.484375,-33.21
9:24:34.500000,-19.39
9:24:34.515625,-4.51
9:24:34.531250,10.04
9:24:34.546875,22.97
9:24:34.562500,33.12
9:24:34.578125,39.64
9:24:34.593750,42.63
9:24:34.609375,42.77
9:24:34.625000,40.83
9:24:34.640625,37.60
9:24:34.656250,34.58
9:24:34.671875,32.81
9:24:34.687500,32.47
9:24:34.703125,32.82
9:24:34.718750,32.22
9:24:34.734375,30.34
9:24:34.750000,27.36
9:24:34.765625,23.53
9:24:34.781250,19.18
9:24:34.796875,16.56
9:24:34.812500,17.41
9:24:34.828125,21.99
9:24:34.843750,28.72
9:24:34.859375,33.91
9:24:34.875000,36.49
9:24:34.890625,36.48
9:24:34.906250,34.35
9:24:34.921875,31.16
9:24:34.937500,31.13
9:24:34.953125,37.75
9:24:34.968750,51.91
9:24:34.984375,71.31
9:24:35,90.36
9:24:35.015625,107.66
9:24:35.031250,123.74
9:24:35.046875,139.81
9:24:35.062500,157.83
9:24:35.078125,183.57
9:24:35.093750,221.46
9:24:35.109375,271.98
9:24:35.125000,330.82
9:24:35.140625,388.53
9:24:35.156250,440.58
9:24:35.171875,484.69
9:24:35.187500,519.60
9:24:35.203125,519.91
9:24:35.218750,470.67
9:24:35.234375,375.97
9:24:35.250000,258.94
9:24:35.265625,163.10
9:24:35.281250,91.66
9:24:35.296875,39.47
9:24:35.312500,1.34
9:24:35.328125,-30.23
9:24:35.343750,-58.05
9:24:35.359375,-80.33
9:24:35.375000,-95.72
9:24:35.390625,-105.23
9:24:35.406250,-112.45
9:24:35.421875,-123.90
9:24:35.437500,-139.98
9:24:35.453125,-158.88
9:24:35.468750,-178.95
9:24:35.484375,-199.10
9:24:35.500000,-216.75
9:24:35.515625,-231.14
9:24:35.531250,-244.27
9:24:35.546875,-260.18
9:24:35.562500,-283.95
9:24:35.578125,-313.50
9:24:35.593750,-342.40
9:24:35.609375,-362.96
9:24:35.625000,-368.63
9:24:35.640625,-355.09
9:24:35.656250,-323.27
9:24:35.671875,-279.41
9:24:35.687500,-232.90
9:24:35.703125,-193.90
9:24:35.718750,-166.92
9:24:35.734375,-152.20
9:24:35.750000,-147.48
9:24:35.765625,-149.27
9:24:35.781250,-153.31
9:24:35.796875,-155.99
9:24:35.812500,-154.79
9:24:35.828125,-148.49
9:24:35.843750,-137.54
9:24:35.859375,-122.10
9:24:35.875000,-102.85
9:24:35.890625,-81.02
9:24:35.906250,-57.83
9:24:35.921875,-33.88
9:24:35.937500,-9.25
9:24:35.953125,15.91
9:24:35.968750,40.83
9:24:35.984375,63.60
9:24:36,82.05
9:24:36.015625,93.93
9:24:36.031250,97.71
9:24:36.046875,93.39
9:24:36.062500,82.73
9:24:36.078125,69.02
9:24:36.093750,56.09
9:24:36.109375,47.18
9:24:36.125000,44.12
9:24:36.140625,47.01
9:24:36.156250,54.63
9:24:36.171875,65.10
9:24:36.187500,76.44
9:24:36.203125,86.89
9:24:36.218750,94.86
9:24:36.234375,98.78
9:24:36.250000,97.15
9:24:36.265625,88.80
9:24:36.281250,73.26
9:24:36.296875,51.08
9:24:36.312500,23.82
9:24:36.328125,-6.38
9:24:36.343750,-37.25
9:24:36.359375,-66.93
9:24:36.375000,-94.18
9:24:36.390625,-118.32
9:24:36.406250,-138.99
9:24:36.421875,-155.94
9:24:36.437500,-168.83
9:24:36.453125,-177.27
9:24:36.468750,-180.92
9:24:36.484375,-179.48
9:24:36.500000,-172.78
9:24:36.515625,-160.83
9:24:36.531250,-143.91
9:24:36.546875,-122.65
9:24:36.562500,-98.10
9:24:36.578125,-71.66
9:24:36.593750,-44.86
9:24:36.609375,-19.13
9:24:36.625000,4.41
9:24:36.640625,24.91
9:24:36.656250,41.77
9:24:36.671875,54.58
9:24:36.687500,63.21
9:24:36.703125,67.88
9:24:36.718750,69.22
9:24:36.734375,68.20
9:24:36.750000,65.90
9:24:36.765625,63.28
9:24:36.781250,61.04
9:24:36.796875,59.62
9:24:36.812500,59.24
9:24:36.828125,59.91
9:24:36.843750,61.42
9:24:36.859375,63.33
9:24:36.875000,65.08
9:24:36.890625,66.12
9:24:36.906250,66.22
9:24:36.921875,65.43
9:24:36.937500,64.00
9:24:36.953125,62.13
9:24:36.968750,59.80
9:24:36.984375,56.76
9:24:37,52.67
9:24:37.015625,47.29
9:24:37.031250,40.63
9:24:37.046875,33.00
9:24:37.062500,24.84
9:24:37.078125,16.55
9:24:37.093750,8.40
9:24:37.109375,0.44
9:24:37.125000,-7.36
9:24:37.140625,-15.07
9:24:37.156250,-22.70
9:24:37.171875,-30.11
9:24:37.187500,-37.02
9:24:37.203125,-42.96
9:24:37.218750,-47.28
9:24:37.234375,-49.22
9:24:37.250000,-48.03
9:24:37.265625,-43.23
9:24:37.281250,-34.83
9:24:37.296875,-23.46
9:24:37.312500,-10.31
9:24:37.328125,3.13
9:24:37.343750,15.42
9:24:37.359375,25.53
9:24:37.375000,33.05
9:24:37.390625,38.14
9:24:37.406250,41.29
9:24:37.421875,43.15
9:24:37.437500,44.24
9:24:37.453125,44.89
9:24:37.468750,45.28
9:24:37.484375,45.48
9:24:37.500000,45.59
9:24:37.515625,45.73
9:24:37.531250,45.94
9:24:37.546875,46.26
9:24:37.562500,46.62
9:24:37.578125,46.94
9:24:37.593750,47.18
9:24:37.609375,47.40
9:24:37.625000,47.71
9:24:37.640625,48.24
9:24:37.656250,49.00
9:24:37.671875,49.84
9:24:37.687500,50.33
9:24:37.703125,49.94
9:24:37.718750,48.07
9:24:37.734375,44.25
9:24:37.750000,38.32
9:24:37.765625,30.50
9:24:37.781250,21.32
9:24:37.796875,11.35
9:24:37.812500,1.00
9:24:37.828125,-9.72
9:24:37.843750,-21.15
9:24:37.859375,-33.82
9:24:37.875000,-48.12
9:24:37.890625,-64.11
9:24:37.906250,-81.38
9:24:37.921875,-99.01
9:24:37.937500,-115.63
9:24:37.953125,-129.46
9:24:37.968750,-138.54
9:24:37.984375,-141.08
9:24:38,-135.94
9:24:38.015625,-123.10
9:24:38.031250,-103.78
9:24:38.046875,-80.20
9:24:38.062500,-54.97
9:24:38.078125,-30.44
9:24:38.093750,-8.21
9:24:38.109375,10.89
9:24:38.125000,26.71
9:24:38.140625,39.38
9:24:38.156250,49.11
9:24:38.171875,56.14
9:24:38.187500,60.67
9:24:38.203125,62.90
9:24:38.218750,63.05
9:24:38.234375,61.23
9:24:38.250000,57.54
9:24:38.265625,52.20
9:24:38.281250,45.63
9:24:38.296875,38.55
9:24:38.312500,31.85
9:24:38.328125,26.28
9:24:38.343750,22.23
9:24:38.359375,19.52
9:24:38.375000,17.49
9:24:38.390625,15.27
9:24:38.406250,12.13
9:24:38.421875,7.75
9:24:38.437500,2.22
9:24:38.453125,-4.00
9:24:38.468750,-10.36
9:24:38.484375,-16.35
9:24:38.500000,-21.60
9:24:38.515625,-25.82
9:24:38.531250,-28.90
9:24:38.546875,-30.92
9:24:38.562500,-32.20
9:24:38.578125,-33.31
9:24:38.593750,-34.91
9:24:38.609375,-37.46
9:24:38.625000,-41.04
9:24:38.640625,-45.31
9:24:38.656250,-49.62
9:24:38.671875,-53.37
9:24:38.687500,-56.13
9:24:38.703125,-57.83
9:24:38.718750,-58.57
9:24:38.734375,-58.47
9:24:38.750000,-57.45
9:24:38.765625,-55.26
9:24:38.781250,-51.59
9:24:38.796875,-46.22
9:24:38.812500,-39.18
9:24:38.828125,-30.76
9:24:38.843750,-21.55
9:24:38.859375,-12.33
9:24:38.875000,-4.03
9:24:38.890625,2.44
9:24:38.906250,6.40
9:24:38.921875,7.72
9:24:38.937500,6.98
9:24:38.953125,5.37
9:24:38.968750,4.43
9:24:38.984375,5.41
9:24:39,8.91
9:24:39.015625,14.60
9:24:39.031250,21.45
9:24:39.046875,28.06
9:24:39.062500,33.19
9:24:39.078125,36.03
9:24:39.093750,36.23
9:24:39.109375,33.90
9:24:39.125000,29.37
9:24:39.140625,23.16
9:24:39.156250,15.86
9:24:39.171875,8.09
9:24:39.187500,0.38
9:24:39.203125,-6.90
9:24:39.218750,-13.62
9:24:39.234375,-19.83
9:24:39.250000,-25.72
9:24:39.265625,-31.45
9:24:39.281250,-37.17
9:24:39.296875,-42.99
9:24:39.312500,-49.11
9:24:39.328125,-55.80
9:24:39.343750,-63.29
9:24:39.359375,-71.60
9:24:39.375000,-80.33
9:24:39.390625,-88.57
9:24:39.406250,-95.08
9:24:39.421875,-98.61
9:24:39.437500,-98.30
9:24:39.453125,-93.81
9:24:39.468750,-85.38
9:24:39.484375,-73.55
9:24:39.500000,-58.99
9:24:39.515625,-42.38
9:24:39.531250,-24.41
9:24:39.546875,-5.86
9:24:39.562500,12.38
9:24:39.578125,29.47
9:24:39.593750,44.86
9:24:39.609375,58.32
9:24:39.625000,69.91
9:24:39.640625,79.65
9:24:39.656250,87.20
9:24:39.671875,91.88
9:24:39.687500,92.86
9:24:39.703125,89.62
9:24:39.718750,82.27
9:24:39.734375,71.71
9:24:39.750000,59.47
9:24:39.765625,47.32
9:24:39.781250,36.94
9:24:39.796875,29.51
9:24:39.812500,25.59
9:24:39.828125,24.98
9:24:39.843750,26.64
9:24:39.859375,28.98
9:24:39.875000,30.26
9:24:39.890625,29.21
9:24:39.906250,25.39
9:24:39.921875,19.27
9:24:39.937500,11.79
9:24:39.953125,3.87
9:24:39.968750,-4.13
9:24:39.984375,-12.46
9:24:40,-21.76
9:24:40.015625,-32.66
9:24:40.031250,-45.35
9:24:40.046875,-59.64
9:24:40.062500,-75.17
9:24:40.078125,-91.58
9:24:40.093750,-108.41
9:24:40.109375,-124.91
9:24:40.125000,-139.82
9:24:40.140625,-151.52
9:24:40.156250,-158.25
9:24:40.171875,-158.31
9:24:40.187500,-150.57
9:24:40.203125,-134.82
9:24:40.218750,-111.68
9:24:40.234375,-82.27
9:24:40.250000,-47.91
9:24:40.265625,-10.15
9:24:40.281250,29.14
9:24:40.296875,67.62
9:24:40.312500,103.17
9:24:40.328125,133.70
9:24:40.343750,157.17
9:24:40.359375,172.04
9:24:40.375000,177.99
9:24:40.390625,176.32
9:24:40.406250,169.56
9:24:40.421875,160.53
9:24:40.437500,151.46
9:24:40.453125,144.15
9:24:40.468750,139.13
9:24:40.484375,135.25
9:24:40.500000,130.10
9:24:40.515625,121.01
9:24:40.531250,106.03
9:24:40.546875,84.34
9:24:40.562500,56.74
9:24:40.578125,26.14
9:24:40.593750,-1.49
9:24:40.609375,-19.04
9:24:40.625000,-21.28
9:24:40.640625,-7.14
9:24:40.656250,20.10
9:24:40.671875,54.11
9:24:40.687500,87.64
9:24:40.703125,114.65
9:24:40.718750,125.66
9:24:40.734375,115.25
9:24:40.750000,86.20
9:24:40.765625,47.98
9:24:40.781250,9.78
9:24:40.796875,-23.86
9:24:40.812500,-52.07
9:24:40.828125,-75.23
9:24:40.843750,-93.50
9:24:40.859375,-106.91
9:24:40.875000,-114.77
9:24:40.890625,-116.99
9:24:40.906250,-115.06
9:24:40.921875,-111.78
9:24:40.937500,-109.63
9:24:40.953125,-109.67
9:24:40.968750,-111.51
9:24:40.984375,-113.86
9:24:41,-115.38
9:24:41.015625,-114.38
9:24:41.031250,-109.82
9:24:41.046875,-102.13
9:24:41.062500,-92.98
9:24:41.078125,-84.43
9:24:41.093750,-77.18
9:24:41.109375,-71.19
9:24:41.125000,-65.94
9:24:41.140625,-60.88
9:24:41.156250,-55.30
9:24:41.171875,-48.69
9:24:41.187500,-41.55
9:24:41.203125,-35.18
9:24:41.218750,-30.94
9:24:41.234375,-29.51
9:24:41.250000,-30.88
9:24:41.265625,-34.56
9:24:41.281250,-39.78
9:24:41.296875,-45.77
9:24:41.312500,-51.83
9:24:41.328125,-58.12
9:24:41.343750,-65.40
9:24:41.359375,-74.44
9:24:41.375000,-85.45
9:24:41.390625,-97.83
9:24:41.406250,-110.23
9:24:41.421875,-120.71
9:24:41.437500,-129.25
9:24:41.453125,-134.99
9:24:41.468750,-137.48
9:24:41.484375,-136.62
9:24:41.500000,-132.37
9:24:41.515625,-124.27
9:24:41.531250,-111.35
9:24:41.546875,-92.49
9:24:41.562500,-66.86
9:24:41.578125,-34.43
9:24:41.593750,4.17
9:24:41.609375,47.70
9:24:41.625000,95.15
9:24:41.640625,146.08
9:24:41.656250,200.14
9:24:41.671875,255.92
9:24:41.687500,310.34
9:24:41.703125,359.22
9:24:41.718750,398.90
9:24:41.734375,428.25
9:24:41.750000,448.83
9:24:41.765625,463.61
9:24:41.781250,474.64
9:24:41.796875,481.23
9:24:41.812500,480.00
9:24:41.828125,466.73
9:24:41.843750,439.24
9:24:41.859375,398.80
9:24:41.875000,349.87
9:24:41.890625,297.64
9:24:41.906250,245.70
9:24:41.921875,194.79
9:24:41.937500,143.69
9:24:41.953125,91.28
9:24:41.968750,38.21
9:24:41.984375,-13.13
9:24:42,-60.55
9:24:42.015625,-103.85
9:24:42.031250,-145.14
9:24:42.046875,-187.41
9:24:42.062500,-231.47
9:24:42.078125,-273.72
9:24:42.093750,-306.46
9:24:42.109375,-320.65
9:24:42.125000,-309.78
9:24:42.140625,-272.65
9:24:42.156250,-213.86
9:24:42.171875,-142.27
9:24:42.187500,-68.38
9:24:42.203125,-1.72
9:24:42.218750,50.85
9:24:42.234375,86.13
9:24:42.250000,104.91
9:24:42.265625,111.47
9:24:42.281250,112.03
9:24:42.296875,112.36
9:24:42.312500,115.33
9:24:42.328125,119.69
9:24:42.343750,121.54
9:24:42.359375,116.81
9:24:42.375000,103.99
9:24:42.390625,84.73
9:24:42.406250,62.79
9:24:42.421875,41.66
9:24:42.437500,22.85
9:24:42.453125,5.86
9:24:42.468750,-10.71
9:24:42.484375,-27.60
9:24:42.500000,-44.41
9:24:42.515625,-60.34
9:24:42.531250,-75.44
9:24:42.546875,-91.64
9:24:42.562500,-112.39
9:24:42.578125,-140.58
9:24:42.593750,-176.02
9:24:42.609375,-214.33
9:24:42.625000,-247.73
9:24:42.640625,-268.19
9:24:42.656250,-270.88
9:24:42.671875,-256.36
9:24:42.687500,-230.13
9:24:42.703125,-200.08
9:24:42.718750,-173.11
9:24:42.734375,-152.89
9:24:42.750000,-139.57
9:24:42.765625,-131.08
9:24:42.781250,-124.92
9:24:42.796875,-119.17
9:24:42.812500,-112.43
9:24:42.828125,-103.39
9:24:42.843750,-90.72
9:24:42.859375,-73.75
9:24:42.875000,-53.59
9:24:42.890625,-33.98
9:24:42.906250,-20.71
9:24:42.921875,-19.73
9:24:42.937500,-34.52
9:24:42.953125,-63.76
9:24:42.968750,-100.87
9:24:42.984375,-135.75
9:24:43,-158.22
9:24:43.015625,-161.57
9:24:43.031250,-144.55
9:24:43.046875,-110.87
9:24:43.062500,-66.71
9:24:43.078125,-17.87
9:24:43.093750,31.99
9:24:43.109375,81.13
9:24:43.125000,128.22
9:24:43.140625,170.74
9:24:43.156250,204.74
9:24:43.171875,226.00
9:24:43.187500,232.03
9:24:43.203125,223.56
9:24:43.218750,204.63
9:24:43.234375,181.15
9:24:43.250000,158.54
9:24:43.265625,139.64
9:24:43.281250,124.02
9:24:43.296875,108.76
9:24:43.312500,90.59
9:24:43.328125,67.78
9:24:43.343750,40.96
9:24:43.359375,12.22
9:24:43.375000,-16.56
9:24:43.390625,-45.16
9:24:43.406250,-74.82
9:24:43.421875,-106.60
9:24:43.437500,-139.15
9:24:43.453125,-167.58
9:24:43.468750,-184.56
9:24:43.484375,-183.35
9:24:43.500000,-161.08
9:24:43.515625,-120.58
9:24:43.531250,-69.59
9:24:43.546875,-17.95
9:24:43.562500,25.95
9:24:43.578125,57.56
9:24:43.593750,76.73
9:24:43.609375,86.41
9:24:43.625000,90.75
9:24:43.640625,93.27
9:24:43.656250,96.02
9:24:43.671875,99.55
9:24:43.687500,103.38
9:24:43.703125,106.71
9:24:43.718750,108.79
9:24:43.734375,109.09
9:24:43.750000,107.28
9:24:43.765625,103.03
9:24:43.781250,96.06
9:24:43.796875,86.20
9:24:43.812500,73.76
9:24:43.828125,59.62
9:24:43.843750,45.29
9:24:43.859375,32.42
9:24:43.875000,22.28
9:24:43.890625,15.07
9:24:43.906250,9.90
9:24:43.921875,5.09
9:24:43.937500,-0.99
9:24:43.953125,-9.18
9:24:43.968750,-19.10
9:24:43.984375,-29.47
9:24:44,-38.76
9:24:44.015625,-45.98
9:24:44.031250,-51.06
9:24:44.046875,-54.74
9:24:44.062500,-58.04
9:24:44.078125,-61.76
9:24:44.093750,-66.17
9:24:44.109375,-70.97
9:24:44.125000,-75.50
9:24:44.140625,-78.88
9:24:44.156250,-80.18
9:24:44.171875,-78.56
9:24:44.187500,-73.44
9:24:44.203125,-64.70
9:24:44.218750,-52.85
9:24:44.234375,-38.97
9:24:44.250000,-24.50
9:24:44.265625,-10.83
9:24:44.281250,0.98
9:24:44.296875,10.47
9:24:44.312500,17.77
9:24:44.328125,23.45
9:24:44.343750,28.31
9:24:44.359375,33.04
9:24:44.375000,38.00
9:24:44.390625,43.03
9:24:44.406250,47.50
9:24:44.421875,50.63
9:24:44.437500,51.85
9:24:44.453125,51.07
9:24:44.468750,48.85
9:24:44.484375,46.19
9:24:44.500000,44.11
9:24:44.515625,43.29
9:24:44.531250,43.81
9:24:44.546875,45.22
9:24:44.562500,46.70
9:24:44.578125,47.42
9:24:44.593750,46.74
9:24:44.609375,44.36
9:24:44.625000,40.30
9:24:44.640625,34.74
9:24:44.656250,28.09
9:24:44.671875,20.89
9:24:44.687500,13.80
9:24:44.703125,7.54
9:24:44.718750,2.65
9:24:44.734375,-0.82
9:24:44.750000,-3.49
9:24:44.765625,-6.66
9:24:44.781250,-11.93
9:24:44.796875,-20.53
9:24:44.812500,-32.58
9:24:44.828125,-46.75
9:24:44.843750,-60.44
9:24:44.859375,-70.58
9:24:44.875000,-74.67
9:24:44.890625,-71.62
9:24:44.906250,-62.00
9:24:44.921875,-47.63
9:24:44.937500,-30.79
9:24:44.953125,-13.47
9:24:44.968750,2.88
9:24:44.984375,17.30
9:24:45,28.91
9:24:45.015625,36.78
9:24:45.031250,40.07
9:24:45.046875,38.51
9:24:45.062500,32.83
9:24:45.078125,24.72
9:24:45.093750,16.36
9:24:45.109375,9.55
9:24:45.125000,5.03
9:24:45.140625,2.30
9:24:45.156250,-0.01
9:24:45.171875,-3.20
9:24:45.187500,-7.76
9:24:45.203125,-13.00
9:24:45.218750,-17.43
9:24:45.234375,-19.44
9:24:45.250000,-18.18
9:24:45.265625,-13.90
9:24:45.281250,-7.89
9:24:45.296875,-1.81
9:24:45.312500,2.89
9:24:45.328125,5.48
9:24:45.343750,5.94
9:24:45.359375,4.76
9:24:45.375000,2.54
9:24:45.390625,-0.21
9:24:45.406250,-3.17
9:24:45.421875,-6.07
9:24:45.437500,-8.71
9:24:45.453125,-10.96
9:24:45.468750,-12.91
9:24:45.484375,-14.91
9:24:45.500000,-17.50
9:24:45.515625,-21.19
9:24:45.531250,-26.15
9:24:45.546875,-31.97
9:24:45.562500,-37.69
9:24:45.578125,-42.01
9:24:45.593750,-43.63
9:24:45.609375,-41.65
9:24:45.625000,-35.79
9:24:45.640625,-26.47
9:24:45.656250,-14.69
9:24:45.671875,-1.73
9:24:45.687500,11.08
9:24:45.703125,22.64
9:24:45.718750,32.26
9:24:45.734375,39.59
9:24:45.750000,44.58
9:24:45.765625,47.27
9:24:45.781250,47.71
9:24:45.796875,46.02
9:24:45.812500,42.53
9:24:45.828125,37.82
9:24:45.843750,32.69
9:24:45.859375,27.92
9:24:45.875000,24.13
9:24:45.890625,21.57
9:24:45.906250,20.17
9:24:45.921875,19.72
9:24:45.937500,19.94
9:24:45.953125,20.60
9:24:45.968750,21.46
9:24:45.984375,22.19
9:24:46,22.34
9:24:46.015625,21.39
9:24:46.031250,18.92
9:24:46.046875,14.80
9:24:46.062500,9.22
9:24:46.078125,2.68
9:24:46.093750,-4.19
9:24:46.109375,-10.78
9:24:46.125000,-16.61
9:24:46.140625,-21.44
9:24:46.156250,-25.29
9:24:46.171875,-28.37
9:24:46.187500,-31.01
9:24:46.203125,-33.61
9:24:46.218750,-36.44
9:24:46.234375,-39.69
9:24:46.250000,-43.29
9:24:46.265625,-46.85
9:24:46.281250,-49.60
9:24:46.296875,-50.53
9:24:46.312500,-48.63
9:24:46.328125,-43.25
9:24:46.343750,-34.43
9:24:46.359375,-22.93
9:24:46.375000,-10.07
9:24:46.390625,2.68
9:24:46.406250,14.08
9:24:46.421875,23.36
9:24:46.437500,30.19
9:24:46.453125,34.61
9:24:46.468750,36.84
9:24:46.484375,37.20
9:24:46.500000,36.13
9:24:46.515625,34.16
9:24:46.531250,31.82
9:24:46.546875,29.62
9:24:46.562500,27.80
9:24:46.578125,26.38
9:24:46.593750,25.23
9:24:46.609375,24.12
9:24:46.625000,22.90
9:24:46.640625,21.47
9:24:46.656250,19.87
9:24:46.671875,18.31
9:24:46.687500,17.09
9:24:46.703125,16.42
9:24:46.718750,16.28
9:24:46.734375,16.15
9:24:46.750000,15.13
9:24:46.765625,12.18
9:24:46.781250,6.74
9:24:46.796875,-0.95
9:24:46.812500,-9.81
9:24:46.828125,-18.27
9:24:46.843750,-25.05
9:24:46.859375,-29.49
9:24:46.875000,-31.80
9:24:46.890625,-32.73
9:24:46.906250,-33.20
9:24:46.921875,-33.95
9:24:46.937500,-35.45
9:24:46.953125,-37.97
9:24:46.968750,-41.51
9:24:46.984375,-45.67
9:24:47,-49.51
9:24:47.015625,-51.61
9:24:47.031250,-50.49
9:24:47.046875,-45.10
9:24:47.062500,-35.42
9:24:47.078125,-22.50
9:24:47.093750,-8.19
9:24:47.109375,5.53
9:24:47.125000,17.13
9:24:47.140625,25.89
9:24:47.156250,31.84
9:24:47.171875,35.41
9:24:47.187500,37.04
9:24:47.203125,36.90
9:24:47.218750,34.99
9:24:47.234375,31.29
9:24:47.250000,26.18
9:24:47.265625,20.48
9:24:47.281250,15.42
9:24:47.296875,12.20
9:24:47.312500,11.56
9:24:47.328125,13.50
9:24:47.343750,17.15
9:24:47.359375,21.13
9:24:47.375000,24.04
9:24:47.390625,25.00
9:24:47.406250,23.94
9:24:47.421875,21.55
9:24:47.437500,18.94
9:24:47.453125,17.17
9:24:47.468750,16.86
9:24:47.484375,18.10
9:24:47.500000,20.53
9:24:47.515625,23.48
9:24:47.531250,26.00
9:24:47.546875,26.98
9:24:47.562500,25.33
9:24:47.578125,20.35
9:24:47.593750,12.09
9:24:47.609375,1.36
9:24:47.625000,-10.58
9:24:47.640625,-22.60
9:24:47.656250,-34.17
9:24:47.671875,-45.29
9:24:47.687500,-56.10
9:24:47.703125,-66.17
9:24:47.718750,-74.29
9:24:47.734375,-78.86
9:24:47.750000,-78.50
9:24:47.765625,-72.75
9:24:47.781250,-62.39
9:24:47.796875,-48.98
9:24:47.812500,-34.26
9:24:47.828125,-19.70
9:24:47.843750,-6.20
9:24:47.859375,5.76
9:24:47.875000,15.91
9:24:47.890625,24.02
9:24:47.906250,29.83
9:24:47.921875,33.18
9:24:47.937500,34.07
9:24:47.953125,32.81
9:24:47.968750,30.01
9:24:47.984375,26.49
9:24:48,23.08
9:24:48.015625,20.39
9:24:48.031250,18.63
9:24:48.046875,17.54
9:24:48.062500,16.61
9:24:48.078125,15.40
9:24:48.093750,13.73
9:24:48.109375,11.83
9:24:48.125000,10.14
9:24:48.140625,9.04
9:24:48.156250,8.63
9:24:48.171875,8.57
9:24:48.187500,8.24
9:24:48.203125,6.96
9:24:48.218750,4.32
9:24:48.234375,0.30
9:24:48.250000,-4.73
9:24:48.265625,-10.20
9:24:48.281250,-15.64
9:24:48.296875,-20.86
9:24:48.312500,-26.02
9:24:48.328125,-31.46
9:24:48.343750,-37.47
9:24:48.359375,-44.07
9:24:48.375000,-50.90
9:24:48.390625,-57.29
9:24:48.406250,-62.41
9:24:48.421875,-65.53
9:24:48.437500,-66.12
9:24:48.453125,-63.95
9:24:48.468750,-59.02
9:24:48.484375,-51.56
9:24:48.500000,-41.86
9:24:48.515625,-30.38
9:24:48.531250,-17.71
9:24:48.546875,-4.65
9:24:48.562500,7.73
9:24:48.578125,18.15
9:24:48.593750,25.21
9:24:48.609375,27.78
9:24:48.625000,25.38
9:24:48.640625,18.62
9:24:48.656250,9.27
9:24:48.671875,0.16
9:24:48.687500,-5.53
9:24:48.703125,-5.07
9:24:48.718750,2.78
9:24:48.734375,17.21
9:24:48.750000,35.53
9:24:48.765625,53.78
9:24:48.781250,68.16
9:24:48.796875,76.21
9:24:48.812500,77.42
9:24:48.828125,73.09
9:24:48.843750,65.34
9:24:48.859375,56.15
9:24:48.875000,46.63
9:24:48.890625,37.10
9:24:48.906250,27.55
9:24:48.921875,18.13
9:24:48.937500,9.30
9:24:48.953125,1.60
9:24:48.968750,-4.62
9:24:48.984375,-9.36
9:24:49,-12.71
9:24:49.015625,-14.76
9:24:49.031250,-15.53
9:24:49.046875,-15.25
9:24:49.062500,-14.48
9:24:49.078125,-14.11
9:24:49.093750,-15.11
9:24:49.109375,-18.03
9:24:49.125000,-22.76
9:24:49.140625,-28.51
9:24:49.156250,-34.10
9:24:49.171875,-38.27
9:24:49.187500,-39.94
9:24:49.203125,-38.34
9:24:49.218750,-33.08
9:24:49.234375,-24.51
9:24:49.250000,-13.52
9:24:49.265625,-1.66
9:24:49.281250,9.40
9:24:49.296875,18.29
9:24:49.312500,24.17
9:24:49.328125,26.91
9:24:49.343750,26.79
9:24:49.359375,24.35
9:24:49.375000,20.18
9:24:49.390625,14.96
9:24:49.406250,9.40
9:24:49.421875,4.25
9:24:49.437500,0.22
9:24:49.453125,-2.14
9:24:49.468750,-2.61
9:24:49.484375,-1.35
9:24:49.500000,1.03
9:24:49.515625,3.62
9:24:49.531250,5.39
9:24:49.546875,5.53
9:24:49.562500,3.72
9:24:49.578125,0.32
9:24:49.593750,-3.69
9:24:49.609375,-7.07
9:24:49.625000,-8.73
9:24:49.640625,-8.08
9:24:49.656250,-5.28
9:24:49.671875,-1.09
9:24:49.687500,3.39
9:24:49.703125,7.03
9:24:49.718750,9.05
9:24:49.734375,9.10
9:24:49.750000,7.23
9:24:49.765625,3.76
9:24:49.781250,-1.10
9:24:49.796875,-7.14
9:24:49.812500,-14.31
9:24:49.828125,-22.47
9:24:49.843750,-31.12
9:24:49.859375,-39.41
9:24:49.875000,-46.19
9:24:49.890625,-50.40
9:24:49.906250,-51.31
9:24:49.921875,-48.71
9:24:49.937500,-42.83
9:24:49.953125,-34.08
9:24:49.968750,-22.97
9:24:49.984375,-10.03
9:24:50,4.03
9:24:50.015625,18.27
9:24:50.031250,31.67
9:24:50.046875,43.32
9:24:50.062500,52.70
9:24:50.078125,59.72
9:24:50.093750,64.53
9:24:50.109375,67.28
9:24:50.125000,67.86
9:24:50.140625,65.93
9:24:50.156250,61.24
9:24:50.171875,53.84
9:24:50.187500,44.40
9:24:50.203125,34.14
9:24:50.218750,24.55
9:24:50.234375,16.94
9:24:50.250000,12.16
9:24:50.265625,10.39
9:24:50.281250,11.15
9:24:50.296875,13.75
9:24:50.312500,17.34
9:24:50.328125,21.24
9:24:50.343750,24.93
9:24:50.359375,27.90
9:24:50.375000,29.75
9:24:50.390625,30.16
9:24:50.406250,29.11
9:24:50.421875,26.97
9:24:50.437500,24.32
9:24:50.453125,21.64
9:24:50.468750,18.98
9:24:50.484375,15.79
9:24:50.500000,11.13
9:24:50.515625,4.08
9:24:50.531250,-5.83
9:24:50.546875,-18.39
9:24:50.562500,-32.61
9:24:50.578125,-46.95
9:24:50.593750,-59.61
9:24:50.609375,-68.97
9:24:50.625000,-74.06
9:24:50.640625,-74.78
9:24:50.656250,-71.90
9:24:50.671875,-66.71
9:24:50.687500,-60.47
9:24:50.703125,-53.95
9:24:50.718750,-47.20
9:24:50.734375,-39.78
9:24:50.750000,-31.21
9:24:50.765625,-21.42
9:24:50.781250,-10.83
9:24:50.796875,-0.17
9:24:50.812500,9.89
9:24:50.828125,19.05
9:24:50.843750,27.26
9:24:50.859375,34.42
9:24:50.875000,40.02
9:24:50.890625,43.09
9:24:50.906250,42.58
9:24:50.921875,37.94
9:24:50.937500,29.86
9:24:50.953125,20.19
9:24:50.968750,11.43
9:24:50.984375,5.78
9:24:51,4.19
9:24:51.015625,6.18
9:24:51.031250,10.29
9:24:51.046875,15.07
9:24:51.062500,19.73
9:24:51.078125,24.30
9:24:51.093750,29.11
9:24:51.109375,34.05
9:24:51.125000,38.17
9:24:51.140625,39.95
9:24:51.156250,38.12
9:24:51.171875,32.39
9:24:51.187500,23.72
9:24:51.203125,13.94
9:24:51.218750,4.90
9:24:51.234375,-2.24
9:24:51.250000,-7.43
9:24:51.265625,-11.38
9:24:51.281250,-15.00
9:24:51.296875,-18.75
9:24:51.312500,-22.43
9:24:51.328125,-25.27
9:24:51.343750,-26.54
9:24:51.359375,-26.00
9:24:51.375000,-24.33
9:24:51.390625,-22.86
9:24:51.406250,-23.09
9:24:51.421875,-26.07
9:24:51.437500,-31.81
9:24:51.453125,-39.35
9:24:51.468750,-47.02
9:24:51.484375,-52.98
9:24:51.500000,-55.81
9:24:51.515625,-54.72
9:24:51.531250,-49.64
9:24:51.546875,-41.05
9:24:51.562500,-29.86
9:24:51.578125,-17.11
9:24:51.593750,-3.93
9:24:51.609375,8.64
9:24:51.625000,19.75
9:24:51.640625,28.78
9:24:51.656250,35.37
9:24:51.671875,39.44
9:24:51.687500,41.13
9:24:51.703125,40.75
9:24:51.718750,38.75
9:24:51.734375,35.63
9:24:51.750000,31.95
9:24:51.765625,28.25
9:24:51.781250,25.01
9:24:51.796875,22.64
9:24:51.812500,21.49
9:24:51.828125,21.77
9:24:51.843750,23.38
9:24:51.859375,25.83
9:24:51.875000,28.14
9:24:51.890625,29.13
9:24:51.906250,27.73
9:24:51.921875,23.43
9:24:51.937500,16.55
9:24:51.953125,8.10
9:24:51.968750,-0.59
9:24:51.984375,-8.34
9:24:52,-14.41
9:24:52.015625,-18.63
9:24:52.031250,-21.14
9:24:52.046875,-22.16
9:24:52.062500,-21.93
9:24:52.078125,-20.68
9:24:52.093750,-18.83
9:24:52.109375,-16.95
9:24:52.125000,-15.68
9:24:52.140625,-15.43
9:24:52.156250,-16.27
9:24:52.171875,-17.96
9:24:52.187500,-20.07
9:24:52.203125,-22.30
9:24:52.218750,-24.58
9:24:52.234375,-27.07
9:24:52.250000,-30.03
9:24:52.265625,-33.52
9:24:52.281250,-37.30
9:24:52.296875,-40.66
9:24:52.312500,-42.71
9:24:52.328125,-42.52
9:24:52.343750,-39.63
9:24:52.359375,-34.13
9:24:52.375000,-26.70
9:24:52.390625,-18.38
9:24:52.406250,-10.21
9:24:52.421875,-2.96
9:24:52.437500,2.98
9:24:52.453125,7.57
9:24:52.468750,10.89
9:24:52.484375,13.04
9:24:52.500000,14.07
9:24:52.515625,14.06
9:24:52.531250,13.18
9:24:52.546875,11.71
9:24:52.562500,9.95
9:24:52.578125,8.19
9:24:52.593750,6.67
9:24:52.609375,5.56
9:24:52.625000,5.03
9:24:52.640625,5.20
9:24:52.656250,6.11
9:24:52.671875,7.65
9:24:52.687500,9.58
9:24:52.703125,11.55
9:24:52.718750,13.29
9:24:52.734375,14.59
9:24:52.750000,15.37
9:24:52.765625,15.63
9:24:52.781250,15.37
9:24:52.796875,14.63
9:24:52.812500,13.44
9:24:52.828125,11.91
9:24:52.843750,10.14
9:24:52.859375,8.22
9:24:52.875000,6.13
9:24:52.890625,3.75
9:24:52.906250,0.95
9:24:52.921875,-2.30
9:24:52.937500,-5.88
9:24:52.953125,-9.55
9:24:52.968750,-13.05
9:24:52.984375,-16.25
9:24:53,-19.25
9:24:53.015625,-22.31
9:24:53.031250,-25.72
9:24:53.046875,-29.61
9:24:53.062500,-33.79
9:24:53.078125,-37.73
9:24:53.093750,-40.63
9:24:53.109375,-41.64
9:24:53.125000,-40.10
9:24:53.140625,-35.75
9:24:53.156250,-28.84
9:24:53.171875,-20.09
9:24:53.187500,-10.48
9:24:53.203125,-0.99
9:24:53.218750,7.59
9:24:53.234375,14.76
9:24:53.250000,20.31
9:24:53.265625,24.20
9:24:53.281250,26.42
9:24:53.296875,26.99
9:24:53.312500,25.99
9:24:53.328125,23.62
9:24:53.343750,20.27
9:24:53.359375,16.46
9:24:53.375000,12.76
9:24:53.390625,9.64
9:24:53.406250,7.35
9:24:53.421875,5.93
9:24:53.437500,5.24
9:24:53.453125,5.08
9:24:53.468750,5.25
9:24:53.484375,5.64
9:24:53.500000,6.19
9:24:53.515625,6.83
9:24:53.531250,7.38
9:24:53.546875,7.52
9:24:53.562500,6.88
9:24:53.578125,5.25
9:24:53.593750,2.66
9:24:53.609375,-0.57
9:24:53.625000,-3.98
9:24:53.640625,-7.18
9:24:53.656250,-9.99
9:24:53.671875,-12.54
9:24:53.687500,-15.15
9:24:53.703125,-18.11
9:24:53.718750,-21.64
9:24:53.734375,-25.77
9:24:53.750000,-30.34
9:24:53.765625,-35.07
9:24:53.781250,-39.51
9:24:53.796875,-43.05
9:24:53.812500,-44.91
9:24:53.828125,-44.38
9:24:53.843750,-40.97
9:24:53.859375,-34.74
9:24:53.875000,-26.29
9:24:53.890625,-16.70
9:24:53.906250,-7.20
9:24:53.921875,1.18
9:24:53.937500,7.85
9:24:53.953125,12.64
9:24:53.968750,15.73
9:24:53.984375,17.32
9:24:54,17.52
9:24:54.015625,16.28
9:24:54.031250,13.57
9:24:54.046875,9.53
9:24:54.062500,4.61
9:24:54.078125,-0.47
9:24:54.093750,-4.95
9:24:54.109375,-8.21
9:24:54.125000,-10.01
9:24:54.140625,-10.52
9:24:54.156250,-10.23
9:24:54.171875,-9.69
9:24:54.187500,-9.35
9:24:54.203125,-9.38
9:24:54.218750,-9.77
9:24:54.234375,-10.41
9:24:54.250000,-11.29
9:24:54.265625,-12.47
9:24:54.281250,-14.07
9:24:54.296875,-15.99
9:24:54.312500,-17.95
9:24:54.328125,-19.52
9:24:54.343750,-20.41
9:24:54.359375,-20.74
9:24:54.375000,-21.11
9:24:54.390625,-22.30
9:24:54.406250,-24.79
9:24:54.421875,-28.33
9:24:54.437500,-31.91
9:24:54.453125,-34.07
9:24:54.468750,-33.50
9:24:54.484375,-29.60
9:24:54.500000,-22.56
9:24:54.515625,-13.15
9:24:54.531250,-2.25
9:24:54.546875,9.42
9:24:54.562500,21.24
9:24:54.578125,32.52
9:24:54.593750,42.22
9:24:54.609375,49.03
9:24:54.625000,51.70
9:24:54.640625,49.59
9:24:54.656250,43.10
9:24:54.671875,33.71
9:24:54.687500,23.60
9:24:54.703125,14.95
9:24:54.718750,9.21
9:24:54.734375,6.65
9:24:54.750000,6.39
9:24:54.765625,6.89
9:24:54.781250,6.65
9:24:54.796875,4.92
9:24:54.812500,1.92
9:24:54.828125,-1.33
9:24:54.843750,-3.61
9:24:54.859375,-4.07
9:24:54.875000,-2.62
9:24:54.890625,0.07
9:24:54.906250,3.00
9:24:54.921875,5.25
9:24:54.937500,6.28
9:24:54.953125,5.85
9:24:54.968750,3.91
9:24:54.984375,0.32
9:24:55,-5.09
9:24:55.015625,-12.35
9:24:55.031250,-21.08
9:24:55.046875,-30.30
9:24:55.062500,-38.60
9:24:55.078125,-44.51
9:24:55.093750,-46.98
9:24:55.109375,-45.66
9:24:55.125000,-40.93
9:24:55.140625,-33.71
9:24:55.156250,-25.13
9:24:55.171875,-16.27
9:24:55.187500,-7.95
9:24:55.203125,-0.66
9:24:55.218750,5.44
9:24:55.234375,10.42
9:24:55.250000,14.45
9:24:55.265625,17.65
9:24:55.281250,19.99
9:24:55.296875,21.35
9:24:55.312500,21.63
9:24:55.328125,20.94
9:24:55.343750,19.63
9:24:55.359375,18.19
9:24:55.375000,16.93
9:24:55.390625,15.80
9:24:55.406250,14.45
9:24:55.421875,12.50
9:24:55.437500,9.97
9:24:55.453125,7.50
9:24:55.468750,6.12
9:24:55.484375,6.74
9:24:55.500000,9.59
9:24:55.515625,14.00
9:24:55.531250,18.56
9:24:55.546875,21.80
9:24:55.562500,22.73
9:24:55.578125,21.22
9:24:55.593750,17.86
9:24:55.609375,13.60
9:24:55.625000,9.25
9:24:55.640625,5.21
9:24:55.656250,1.40
9:24:55.671875,-2.63
9:24:55.687500,-7.35
9:24:55.703125,-13.07
9:24:55.718750,-19.64
9:24:55.734375,-26.42
9:24:55.750000,-32.35
9:24:55.765625,-36.22
9:24:55.781250,-36.98
9:24:55.796875,-34.12
9:24:55.812500,-27.82
9:24:55.828125,-18.83
9:24:55.843750,-8.31
9:24:55.859375,2.51
9:24:55.875000,12.50
9:24:55.890625,20.76
9:24:55.906250,26.72
9:24:55.921875,30.18
9:24:55.937500,31.35
9:24:55.953125,30.75
9:24:55.968750,29.16
9:24:55.984375,27.27
9:24:56,25.57
9:24:56.015625,24.21
9:24:56.031250,23.08
9:24:56.046875,21.94
9:24:56.062500,20.60
9:24:56.078125,19.03
9:24:56.093750,17.29
9:24:56.109375,15.48
9:24:56.125000,13.72
9:24:56.140625,12.12
9:24:56.156250,10.78
9:24:56.171875,9.75
9:24:56.187500,9.00
9:24:56.203125,8.32
9:24:56.218750,7.40
9:24:56.234375,5.94
9:24:56.250000,3.80
9:24:56.265625,1.10
9:24:56.281250,-1.81
9:24:56.296875,-4.40
9:24:56.312500,-6.25
9:24:56.328125,-7.17
9:24:56.343750,-7.41
9:24:56.359375,-7.55
9:24:56.375000,-8.37
9:24:56.390625,-10.52
9:24:56.406250,-14.24
9:24:56.421875,-19.23
9:24:56.437500,-24.74
9:24:56.453125,-29.82
9:24:56.468750,-33.72
9:24:56.484375,-36.26
9:24:56.500000,-37.89
9:24:56.515625,-39.61
9:24:56.531250,-42.47
9:24:56.546875,-47.00
9:24:56.562500,-52.91
9:24:56.578125,-58.92
9:24:56.593750,-63.13
9:24:56.609375,-63.75
9:24:56.625000,-59.74
9:24:56.640625,-51.35
9:24:56.656250,-40.04
9:24:56.671875,-28.03
9:24:56.687500,-17.43
9:24:56.703125,-9.56
9:24:56.718750,-4.57
9:24:56.734375,-1.59
9:24:56.750000,0.73
9:24:56.765625,3.44
9:24:56.781250,6.84
9:24:56.796875,10.37
9:24:56.812500,12.93
9:24:56.828125,13.34
9:24:56.843750,10.80
9:24:56.859375,5.00
9:24:56.875000,-3.69
9:24:56.890625,-14.13
9:24:56.906250,-24.20
9:24:56.921875,-31.16
9:24:56.937500,-32.42
9:24:56.953125,-26.68
9:24:56.968750,-14.74
9:24:56.984375,0.59
9:24:57,15.77
9:24:57.015625,28.37
9:24:57.031250,38.42
9:24:57.046875,48.25
9:24:57.062500,60.93
9:24:57.078125,78.07
9:24:57.093750,98.39
9:24:57.109375,117.99
9:24:57.125000,132.10
9:24:57.140625,137.30
9:24:57.156250,132.99
9:24:57.171875,121.17
9:24:57.187500,105.21
9:24:57.203125,88.10
9:24:57.218750,71.43
9:24:57.234375,55.29
9:24:57.250000,39.03
9:24:57.265625,22.14
9:24:57.281250,4.94
9:24:57.296875,-11.41
9:24:57.312500,-25.37
9:24:57.328125,-35.67
9:24:57.343750,-41.73
9:24:57.359375,-43.81
9:24:57.375000,-42.87
9:24:57.390625,-40.28
9:24:57.406250,-37.38
9:24:57.421875,-35.24
9:24:57.437500,-34.49
9:24:57.453125,-35.15
9:24:57.468750,-36.77
9:24:57.484375,-38.64
9:24:57.500000,-39.97
9:24:57.515625,-40.21
9:24:57.531250,-39.04
9:24:57.546875,-36.44
9:24:57.562500,-32.45
9:24:57.578125,-27.12
9:24:57.593750,-20.48
9:24:57.609375,-12.64
9:24:57.625000,-4.03
9:24:57.640625,4.56
9:24:57.656250,12.13
9:24:57.671875,17.78
9:24:57.687500,21.12
9:24:57.703125,22.47
9:24:57.718750,22.69
9:24:57.734375,22.91
9:24:57.750000,24.04
9:24:57.765625,26.41
9:24:57.781250,29.78
9:24:57.796875,33.52
9:24:57.812500,36.89
9:24:57.828125,39.42
9:24:57.843750,41.00
9:24:57.859375,41.83
9:24:57.875000,42.31
9:24:57.890625,42.77
9:24:57.906250,43.45
9:24:57.921875,44.37
9:24:57.937500,45.42
9:24:57.953125,46.41
9:24:57.968750,47.11
9:24:57.984375,47.32
9:24:58,46.87
9:24:58.015625,45.60
9:24:58.031250,43.40
9:24:58.046875,40.20
9:24:58.062500,36.01
9:24:58.078125,30.98
9:24:58.093750,25.36
9:24:58.109375,19.45
9:24:58.125000,13.52
9:24:58.140625,7.68
9:24:58.156250,1.86
9:24:58.171875,-4.05
9:24:58.187500,-10.15
9:24:58.203125,-16.40
9:24:58.218750,-22.60
9:24:58.234375,-28.53
9:24:58.250000,-34.01
9:24:58.265625,-39.01
9:24:58.281250,-43.59
9:24:58.296875,-47.80
9:24:58.312500,-51.60
9:24:58.328125,-54.88
9:24:58.343750,-57.55
9:24:58.359375,-59.50
9:24:58.375000,-60.58
9:24:58.390625,-60.55
9:24:58.406250,-58.94
9:24:58.421875,-55.21
9:24:58.437500,-48.97
9:24:58.453125,-40.19
9:24:58.468750,-29.38
9:24:58.484375,-17.42
9:24:58.500000,-5.40
9:24:58.515625,5.68
9:24:58.531250,15.08
9:24:58.546875,22.32
9:24:58.562500,27.16
9:24:58.578125,29.58
9:24:58.593750,29.73
9:24:58.609375,28.01
9:24:58.625000,25.03
9:24:58.640625,21.49
9:24:58.656250,18.00
9:24:58.671875,14.96
9:24:58.687500,12.52
9:24:58.703125,10.58
9:24:58.718750,9.03
9:24:58.734375,7.83
9:24:58.750000,7.09
9:24:58.765625,6.97
9:24:58.781250,7.50
9:24:58.796875,8.51
9:24:58.812500,9.65
9:24:58.828125,10.58
9:24:58.843750,11.08
9:24:58.859375,11.16
9:24:58.875000,10.95
9:24:58.890625,10.55
9:24:58.906250,9.91
9:24:58.921875,8.87
9:24:58.937500,7.31
9:24:58.953125,5.26
9:24:58.968750,2.91
9:24:58.984375,0.48
9:24:59,-1.95
9:24:59.015625,-4.52
9:24:59.031250,-7.53
9:24:59.046875,-11.24
9:24:59.062500,-15.74
9:24:59.078125,-20.77
9:24:59.093750,-25.87
9:24:59.109375,-30.43
9:24:59.125000,-33.85
9:24:59.140625,-35.62
9:24:59.156250,-35.40
9:24:59.171875,-33.02
9:24:59.187500,-28.58
9:24:59.203125,-22.47
9:24:59.218750,-15.31
9:24:59.234375,-7.91
9:24:59.250000,-1.08
9:24:59.265625,4.47
9:24:59.281250,8.29
9:24:59.296875,10.24
9:24:59.312500,10.49
9:24:59.328125,9.48
9:24:59.343750,7.75
9:24:59.359375,5.77
9:24:59.375000,3.88
9:24:59.390625,2.25
9:24:59.406250,1.04
9:24:59.421875,0.46
9:24:59.437500,0.86
9:24:59.453125,2.57
9:24:59.468750,5.70
9:24:59.484375,9.99
9:24:59.500000,14.82
9:24:59.515625,19.38
9:24:59.531250,22.97
9:24:59.546875,25.17
9:24:59.562500,25.85
9:24:59.578125,25.09
9:24:59.593750,22.98
9:24:59.609375,19.63
9:24:59.625000,15.16
9:24:59.640625,9.88
9:24:59.656250,4.35
9:24:59.671875,-0.75
9:24:59.687500,-4.86
9:24:59.703125,-7.73
9:24:59.718750,-9.58
9:24:59.734375,-10.96
9:24:59.750000,-12.56
9:24:59.765625,-14.98
9:24:59.781250,-18.50
9:24:59.796875,-23.04
9:24:59.812500,-28.17
9:24:59.828125,-33.15
9:24:59.843750,-37.12
9:24:59.859375,-39.14
9:24:59.875000,-38.49
9:24:59.890625,-34.80
9:24:59.906250,-28.25
9:24:59.921875,-19.61
9:24:59.937500,-10.03
9:24:59.953125,-0.78
9:24:59.968750,7.17
9:24:59.984375,13.26
9:25:00,17.47
9:25:00.015625,20.02
9:25:00.031250,21.23
9:25:00.046875,21.28
9:25:00.062500,20.28
9:25:00.078125,18.32
9:25:00.093750,15.69
9:25:00.109375,12.88
9:25:00.125000,10.48
9:25:00.140625,9.02
9:25:00.156250,8.77
9:25:00.171875,9.69
9:25:00.187500,11.48
9:25:00.203125,13.74
9:25:00.218750,16.13
9:25:00.234375,18.36
9:25:00.250000,20.26
9:25:00.265625,21.61
9:25:00.281250,22.20
9:25:00.296875,21.79
9:25:00.312500,20.21
9:25:00.328125,17.40
9:25:00.343750,13.48
9:25:00.359375,8.72
9:25:00.375000,3.51
9:25:00.390625,-1.70
9:25:00.406250,-6.52
9:25:00.421875,-10.67
9:25:00.437500,-14.06
9:25:00.453125,-16.82
9:25:00.468750,-19.25
9:25:00.484375,-21.75
9:25:00.500000,-24.69
9:25:00.515625,-28.21
9:25:00.531250,-32.06
9:25:00.546875,-35.63
9:25:00.562500,-37.94
9:25:00.578125,-38.03
9:25:00.593750,-35.20
9:25:00.609375,-29.32
9:25:00.625000,-20.90
9:25:00.640625,-10.98
9:25:00.656250,-0.85
9:25:00.671875,8.35
9:25:00.687500,15.79
9:25:00.703125,21.07
9:25:00.718750,24.10
9:25:00.734375,25.02
9:25:00.750000,24.14
9:25:00.765625,21.92
9:25:00.781250,18.89
9:25:00.796875,15.68
9:25:00.812500,12.81
9:25:00.828125,10.64
9:25:00.843750,9.21
9:25:00.859375,8.34
9:25:00.875000,7.67
9:25:00.890625,6.81
9:25:00.906250,5.52
9:25:00.921875,3.75
9:25:00.937500,1.69
9:25:00.953125,-0.34
9:25:00.968750,-2.00
9:25:00.984375,-3.12
9:25:01,-3.73
9:25:01.015625,-4.10
9:25:01.031250,-4.67
9:25:01.046875,-5.85
9:25:01.062500,-7.89
9:25:01.078125,-10.72
9:25:01.093750,-14.01
9:25:01.109375,-17.28
9:25:01.125000,-20.08
9:25:01.140625,-22.18
9:25:01.156250,-23.68
9:25:01.171875,-24.95
9:25:01.187500,-26.49
9:25:01.203125,-28.76
9:25:01.218750,-31.99
9:25:01.234375,-36.13
9:25:01.250000,-40.77
9:25:01.265625,-45.25
9:25:01.281250,-48.86
9:25:01.296875,-51.00
9:25:01.312500,-51.37
9:25:01.328125,-50.01
9:25:01.343750,-47.23
9:25:01.359375,-43.52
9:25:01.375000,-39.36
9:25:01.390625,-35.20
9:25:01.406250,-31.39
9:25:01.421875,-28.21
9:25:01.437500,-25.83
9:25:01.453125,-24.36
9:25:01.468750,-23.68
9:25:01.484375,-23.54
9:25:01.500000,-23.60
9:25:01.515625,-23.53
9:25:01.531250,-23.20
9:25:01.546875,-22.81
9:25:01.562500,-22.87
9:25:01.578125,-24.13
9:25:01.593750,-27.25
9:25:01.609375,-32.62
9:25:01.625000,-40.05
9:25:01.640625,-48.76
9:25:01.656250,-57.50
9:25:01.671875,-64.87
9:25:01.687500,-69.73
9:25:01.703125,-71.50
9:25:01.718750,-70.34
9:25:01.734375,-67.13
9:25:01.750000,-63.19
9:25:01.765625,-59.89
9:25:01.781250,-58.07
9:25:01.796875,-57.73
9:25:01.812500,-57.96
9:25:01.828125,-57.20
9:25:01.843750,-53.77
9:25:01.859375,-46.28
9:25:01.875000,-33.93
9:25:01.890625,-16.63
9:25:01.906250,4.90
9:25:01.921875,29.07
9:25:01.937500,53.56
9:25:01.953125,75.61
9:25:01.968750,92.82
9:25:01.984375,103.84
9:25:02,108.94
9:25:02.015625,109.83
9:25:02.031250,109.07
9:25:02.046875,108.97
9:25:02.062500,110.89
9:25:02.078125,114.93
9:25:02.093750,120.27
9:25:02.109375,125.57
9:25:02.125000,129.41
9:25:02.140625,130.54
9:25:02.156250,127.91
9:25:02.171875,120.91
9:25:02.187500,109.60
9:25:02.203125,94.89
9:25:02.218750,78.46
9:25:02.234375,62.46
9:25:02.250000,48.87
9:25:02.265625,39.02
9:25:02.281250,33.26
9:25:02.296875,30.93
9:25:02.312500,30.70
9:25:02.328125,31.02
9:25:02.343750,30.72
9:25:02.359375,29.28
9:25:02.375000,26.97
9:25:02.390625,24.54
9:25:02.406250,22.76
9:25:02.421875,22.01
9:25:02.437500,22.00
9:25:02.453125,21.93
9:25:02.468750,20.85
9:25:02.484375,18.11
9:25:02.500000,13.54
9:25:02.515625,7.45
9:25:02.531250,0.38
9:25:02.546875,-7.25
9:25:02.562500,-15.17
9:25:02.578125,-23.23
9:25:02.593750,-31.09
9:25:02.609375,-38.25
9:25:02.625000,-44.12
9:25:02.640625,-48.39
9:25:02.656250,-51.29
9:25:02.671875,-53.65
9:25:02.687500,-56.54
9:25:02.703125,-60.75
9:25:02.718750,-66.27
9:25:02.734375,-72.28
9:25:02.750000,-77.43
9:25:02.765625,-80.49
9:25:02.781250,-80.95
9:25:02.796875,-79.37
9:25:02.812500,-77.15
9:25:02.828125,-76.07
9:25:02.843750,-77.68
9:25:02.859375,-82.63
9:25:02.875000,-90.17
9:25:02.890625,-97.96
9:25:02.906250,-102.46
9:25:02.921875,-99.94
9:25:02.937500,-87.94
9:25:02.953125,-66.45
9:25:02.968750,-38.42
9:25:02.984375,-9.07
9:25:03,15.69
9:25:03.015625,31.00
9:25:03.031250,34.34
9:25:03.046875,25.77
9:25:03.062500,7.50
9:25:03.078125,-17.08
9:25:03.093750,-44.07
9:25:03.109375,-69.58
9:25:03.125000,-90.00
9:25:03.140625,-102.39
9:25:03.156250,-104.93
9:25:03.171875,-97.28
9:25:03.187500,-80.72
9:25:03.203125,-57.64
9:25:03.218750,-30.90
9:25:03.234375,-3.14
9:25:03.250000,23.71
9:25:03.265625,48.48
9:25:03.281250,70.59
9:25:03.296875,89.74
9:25:03.312500,105.77
9:25:03.328125,118.65
9:25:03.343750,128.45
9:25:03.359375,135.44
9:25:03.375000,139.80
9:25:03.390625,141.38
9:25:03.406250,139.60
9:25:03.421875,133.64
9:25:03.437500,123.10
9:25:03.453125,108.59
9:25:03.468750,92.04
9:25:03.484375,76.32
9:25:03.500000,64.33
9:25:03.515625,57.90
9:25:03.531250,57.10
9:25:03.546875,60.36
9:25:03.562500,65.16
9:25:03.578125,69.13
9:25:03.593750,70.79
9:25:03.609375,69.87
9:25:03.625000,67.01
9:25:03.640625,63.10
9:25:03.656250,58.74
9:25:03.671875,54.05
9:25:03.687500,48.82
9:25:03.703125,42.85
9:25:03.718750,36.38
9:25:03.734375,30.08
9:25:03.750000,24.84
9:25:03.765625,21.31
9:25:03.781250,19.57
9:25:03.796875,19.05
9:25:03.812500,18.87
9:25:03.828125,18.32
9:25:03.843750,17.20
9:25:03.859375,15.91
9:25:03.875000,15.06
9:25:03.890625,15.01
9:25:03.906250,15.53
9:25:03.921875,15.80
9:25:03.937500,14.83
9:25:03.953125,11.91
9:25:03.968750,7.06
9:25:03.984375,0.99
9:25:04,-5.19
9:25:04.015625,-10.53
9:25:04.031250,-14.61
9:25:04.046875,-17.69
9:25:04.062500,-20.43
9:25:04.078125,-23.58
9:25:04.093750,-27.58
9:25:04.109375,-32.45
9:25:04.125000,-37.77
9:25:04.140625,-42.92
9:25:04.156250,-47.22
9:25:04.171875,-50.05
9:25:04.187500,-50.88
9:25:04.203125,-49.27
9:25:04.218750,-44.93
9:25:04.234375,-37.80
9:25:04.250000,-28.29
