16:26:05,-0.00
16:26:05.015625,-0.00
16:26:05.031250,-0.00
16:26:05.046875,-0.00
16:26:05.062500,-0.00
16:26:05.078125,-0.00
16:26:05.093750,-0.00
16:26:05.109375,-0.00
16:26:05.125000,-0.00
16:26:05.140625,-0.00
16:26:05.156250,0.00
16:26:05.171875,0.01
16:26:05.187500,0.01
16:26:05.203125,-0.00
16:26:05.218750,-0.03
16:26:05.234375,-0.05
16:26:05.250000,-0.05
16:26:05.265625,0.00
16:26:05.281250,0.13
16:26:05.296875,0.36
16:26:05.312500,0.66
16:26:05.328125,1.01
16:26:05.343750,1.37
16:26:05.359375,1.72
16:26:05.375000,2.06
16:26:05.390625,2.40
16:26:05.406250,2.79
16:26:05.421875,3.24
16:26:05.437500,3.80
16:26:05.453125,4.42
16:26:05.468750,5.06
16:26:05.484375,5.66
16:26:05.500000,6.20
16:26:05.515625,6.68
16:26:05.531250,7.15
16:26:05.546875,7.68
16:26:05.562500,8.31
16:26:05.578125,9.14
16:26:05.593750,10.09
16:26:05.609375,11.04
16:26:05.625000,11.88
16:26:05.640625,12.56
16:26:05.656250,13.14
16:26:05.671875,13.76
16:26:05.687500,14.65
16:26:05.703125,15.96
16:26:05.718750,17.91
16:26:05.734375,20.32
16:26:05.750000,22.90
16:26:05.765625,25.38
16:26:05.781250,27.58
16:26:05.796875,29.57
16:26:05.812500,31.68
16:26:05.828125,34.32
16:26:05.843750,37.81
16:26:05.859375,42.54
16:26:05.875000,48.15
16:26:05.890625,54.10
16:26:05.906250,59.83
16:26:05.921875,64.97
16:26:05.937500,69.58
16:26:05.953125,74.14
16:26:05.968750,79.34
16:26:05.984375,85.71
16:26:06,93.76
16:26:06.015625,103.00
16:26:06.031250,112.62
16:26:06.046875,121.73
16:26:06.062500,129.77
16:26:06.078125,136.75
16:26:06.093750,143.30
16:26:06.109375,150.75
16:26:06.125000,157.77
16:26:06.140625,166.64
16:26:06.156250,177.95
16:26:06.171875,191.79
16:26:06.187500,206.97
16:26:06.203125,220.57
16:26:06.218750,228.25
16:26:06.234375,225.36
16:26:06.250000,208.53
16:26:06.265625,176.87
16:26:06.281250,132.76
16:26:06.296875,80.05
16:26:06.312500,23.07
16:26:06.328125,-34.94
16:26:06.343750,-92.44
16:26:06.359375,-149.16
16:26:06.375000,-205.23
16:26:06.390625,-260.37
16:26:06.406250,-313.74
16:26:06.421875,-363.87
16:26:06.437500,-409.83
16:26:06.453125,-450.91
16:26:06.468750,-486.50
16:26:06.484375,-515.74
16:26:06.500000,-537.23
16:26:06.515625,-549.22
16:26:06.531250,-549.96
16:26:06.546875,-538.37
16:26:06.562500,-514.21
16:26:06.578125,-478.67
16:26:06.593750,-433.88
16:26:06.609375,-382.45
16:26:06.625000,-327.02
16:26:06.640625,-269.84
16:26:06.656250,-212.63
16:26:06.671875,-156.66
16:26:06.687500,-102.95
16:26:06.703125,-52.37
16:26:06.718750,-5.90
16:26:06.734375,35.58
16:26:06.750000,71.43
16:26:06.765625,101.35
16:26:06.781250,125.50
16:26:06.796875,144.38
16:26:06.812500,158.69
16:26:06.828125,169.15
16:26:06.843750,176.37
16:26:06.859375,180.75
16:26:06.875000,182.57
16:26:06.890625,182.07
16:26:06.906250,179.51
16:26:06.921875,175.23
16:26:06.937500,169.65
16:26:06.953125,163.18
16:26:06.968750,156.15
16:26:06.984375,148.81
16:26:07,141.30
16:26:07.015625,133.69
16:26:07.031250,126.02
16:26:07.046875,118.33
16:26:07.062500,110.69
16:26:07.078125,103.16
16:26:07.093750,95.80
16:26:07.109375,88.68
16:26:07.125000,81.83
16:26:07.140625,75.25
16:26:07.156250,68.95
16:26:07.171875,62.95
16:26:07.187500,57.25
16:26:07.203125,51.86
16:26:07.218750,46.78
16:26:07.234375,42.03
16:26:07.250000,37.59
16:26:07.265625,33.45
16:26:07.281250,29.61
16:26:07.296875,26.07
16:26:07.312500,22.81
16:26:07.328125,19.83
16:26:07.343750,17.11
16:26:07.359375,14.67
16:26:07.375000,12.48
16:26:07.390625,10.54
16:26:07.406250,8.83
16:26:07.421875,7.35
16:26:07.437500,6.07
16:26:07.453125,4.97
16:26:07.468750,4.05
16:26:07.484375,3.27
16:26:07.500000,2.62
16:26:07.515625,2.09
16:26:07.531250,1.65
16:26:07.546875,1.30
16:26:07.562500,1.01
16:26:07.578125,0.79
16:26:07.593750,0.61
16:26:07.609375,0.48
16:26:07.625000,0.37
16:26:07.640625,0.29
16:26:07.656250,0.24
16:26:07.671875,0.20
16:26:07.687500,0.18
16:26:07.703125,0.17
16:26:07.718750,0.17
16:26:07.734375,0.19
16:26:07.750000,0.21
16:26:07.765625,0.24
16:26:07.781250,0.27
16:26:07.796875,0.31
16:26:07.812500,0.35
16:26:07.828125,0.39
16:26:07.843750,0.43
16:26:07.859375,0.48
16:26:07.875000,0.53
16:26:07.890625,0.57
16:26:07.906250,0.62
16:26:07.921875,0.68
16:26:07.937500,0.74
16:26:07.953125,0.80
16:26:07.968750,0.86
16:26:07.984375,0.94
16:26:08,1.02
16:26:08.015625,1.11
16:26:08.031250,1.21
16:26:08.046875,1.32
16:26:08.062500,1.45
16:26:08.078125,1.59
16:26:08.093750,1.75
16:26:08.109375,1.93
16:26:08.125000,2.13
16:26:08.140625,2.35
16:26:08.156250,2.59
16:26:08.171875,2.86
16:26:08.187500,3.15
16:26:08.203125,3.48
16:26:08.218750,3.84
16:26:08.234375,4.22
16:26:08.250000,4.65
16:26:08.265625,5.11
16:26:08.281250,5.60
16:26:08.296875,6.14
16:26:08.312500,6.71
16:26:08.328125,7.33
16:26:08.343750,7.99
16:26:08.359375,8.69
16:26:08.375000,9.43
16:26:08.390625,10.22
16:26:08.406250,11.06
16:26:08.421875,11.94
16:26:08.437500,12.86
16:26:08.453125,13.84
16:26:08.468750,14.88
16:26:08.484375,15.97
16:26:08.500000,17.14
16:26:08.515625,18.35
16:26:08.531250,19.62
16:26:08.546875,20.88
16:26:08.562500,22.11
16:26:08.578125,23.21
16:26:08.593750,24.10
16:26:08.609375,24.64
16:26:08.625000,24.71
16:26:08.640625,24.22
16:26:08.656250,23.04
16:26:08.671875,21.14
16:26:08.687500,18.52
16:26:08.703125,15.22
16:26:08.718750,11.33
16:26:08.734375,7.03
16:26:08.750000,2.50
16:26:08.765625,-2.03
16:26:08.781250,-6.34
16:26:08.796875,-10.24
16:26:08.812500,-13.55
16:26:08.828125,-16.16
16:26:08.843750,-18.00
16:26:08.859375,-19.07
16:26:08.875000,-19.40
16:26:08.890625,-19.08
16:26:08.906250,-18.25
16:26:08.921875,-17.01
16:26:08.937500,-15.50
16:26:08.953125,-13.81
16:26:08.968750,-12.04
16:26:08.984375,-10.22
16:26:09,-8.37
16:26:09.015625,-6.49
16:26:09.031250,-4.60
16:26:09.046875,-2.73
16:26:09.062500,-0.91
16:26:09.078125,0.86
16:26:09.093750,2.57
16:26:09.109375,4.27
16:26:09.125000,5.98
16:26:09.140625,7.81
16:26:09.156250,9.87
16:26:09.171875,12.06
16:26:09.187500,14.38
16:26:09.203125,16.75
16:26:09.218750,19.15
16:26:09.234375,21.55
16:26:09.250000,23.96
16:26:09.265625,26.48
16:26:09.281250,29.22
16:26:09.296875,32.37
16:26:09.312500,35.78
16:26:09.328125,39.34
16:26:09.343750,42.96
16:26:09.359375,46.55
16:26:09.375000,50.03
16:26:09.390625,53.45
16:26:09.406250,56.92
16:26:09.421875,60.70
16:26:09.437500,65.13
16:26:09.453125,69.95
16:26:09.468750,74.96
16:26:09.484375,79.92
16:26:09.500000,84.56
16:26:09.515625,88.70
16:26:09.531250,92.35
16:26:09.546875,95.73
16:26:09.562500,99.27
16:26:09.578125,103.47
16:26:09.593750,107.97
16:26:09.609375,112.32
16:26:09.625000,115.87
16:26:09.640625,117.78
16:26:09.656250,117.24
16:26:09.671875,113.58
16:26:09.687500,106.19
16:26:09.703125,94.08
16:26:09.718750,80.61
16:26:09.734375,66.74
16:26:09.750000,52.66
16:26:09.765625,37.96
16:26:09.781250,21.93
16:26:09.796875,4.02
16:26:09.812500,-15.87
16:26:09.828125,-37.25
16:26:09.843750,-59.10
16:26:09.859375,-80.21
16:26:09.875000,-100.29
16:26:09.890625,-119.34
16:26:09.906250,-137.81
16:26:09.921875,-156.62
16:26:09.937500,-177.02
16:26:09.953125,-200.37
16:26:09.968750,-227.54
16:26:09.984375,-258.21
16:26:10,-290.06
16:26:10.015625,-319.28
16:26:10.031250,-340.58
16:26:10.046875,-348.88
16:26:10.062500,-341.13
16:26:10.078125,-317.51
16:26:10.093750,-281.35
16:26:10.109375,-237.90
16:26:10.125000,-192.55
16:26:10.140625,-149.29
16:26:10.156250,-110.55
16:26:10.171875,-77.19
16:26:10.187500,-49.30
16:26:10.203125,-26.80
16:26:10.218750,-9.56
16:26:10.234375,2.86
16:26:10.250000,11.39
16:26:10.265625,17.35
16:26:10.281250,22.04
16:26:10.296875,26.25
16:26:10.312500,30.25
16:26:10.328125,33.88
16:26:10.343750,36.86
16:26:10.359375,39.02
16:26:10.375000,40.45
16:26:10.390625,41.42
16:26:10.406250,42.33
16:26:10.421875,43.58
16:26:10.437500,45.40
16:26:10.453125,47.78
16:26:10.468750,50.44
16:26:10.484375,52.70
16:26:10.500000,53.67
16:26:10.515625,52.48
16:26:10.531250,48.63
16:26:10.546875,42.26
16:26:10.562500,34.19
16:26:10.578125,25.67
16:26:10.593750,17.93
16:26:10.609375,11.69
16:26:10.625000,7.00
16:26:10.640625,3.23
16:26:10.656250,-0.63
16:26:10.671875,-5.64
16:26:10.687500,-12.64
16:26:10.703125,-21.98
16:26:10.718750,-33.37
16:26:10.734375,-45.71
16:26:10.750000,-57.12
16:26:10.765625,-65.25
16:26:10.781250,-67.85
16:26:10.796875,-63.56
16:26:10.812500,-52.41
16:26:10.828125,-35.86
16:26:10.843750,-16.30
16:26:10.859375,3.77
16:26:10.875000,22.41
16:26:10.890625,38.47
16:26:10.906250,51.47
16:26:10.921875,61.19
16:26:10.937500,67.47
16:26:10.953125,70.24
16:26:10.968750,69.64
16:26:10.984375,66.20
16:26:11,60.80
16:26:11.015625,54.36
16:26:11.031250,47.64
16:26:11.046875,41.08
16:26:11.062500,34.81
16:26:11.078125,28.85
16:26:11.093750,23.29
16:26:11.109375,18.40
16:26:11.125000,14.59
16:26:11.140625,12.16
16:26:11.156250,11.14
16:26:11.171875,11.08
16:26:11.187500,11.20
16:26:11.203125,10.59
16:26:11.218750,8.46
16:26:11.234375,4.32
16:26:11.250000,-1.88
16:26:11.265625,-9.98
16:26:11.281250,-19.62
16:26:11.296875,-30.28
16:26:11.312500,-41.21
16:26:11.328125,-51.53
16:26:11.343750,-60.46
16:26:11.359375,-67.55
16:26:11.375000,-73.06
16:26:11.390625,-78.06
16:26:11.406250,-84.37
16:26:11.421875,-94.02
16:26:11.437500,-108.23
16:26:11.453125,-126.59
16:26:11.468750,-146.56
16:26:11.484375,-163.96
16:26:11.500000,-174.51
16:26:11.515625,-175.49
16:26:11.531250,-166.73
16:26:11.546875,-150.23
16:26:11.562500,-128.84
16:26:11.578125,-104.74
16:26:11.593750,-79.02
16:26:11.609375,-52.32
16:26:11.625000,-25.88
16:26:11.640625,-2.00
16:26:11.656250,16.90
16:26:11.671875,29.99
16:26:11.687500,39.40
16:26:11.703125,49.89
16:26:11.718750,66.55
16:26:11.734375,91.84
16:26:11.750000,123.81
16:26:11.765625,156.48
16:26:11.781250,182.63
16:26:11.796875,197.14
16:26:11.812500,199.24
16:26:11.828125,192.25
16:26:11.843750,181.26
16:26:11.859375,170.21
16:26:11.875000,160.11
16:26:11.890625,149.46
16:26:11.906250,136.25
16:26:11.921875,120.25
16:26:11.937500,104.02
16:26:11.953125,91.73
16:26:11.968750,86.53
16:26:11.984375,88.31
16:26:12,93.16
16:26:12.015625,95.33
16:26:12.031250,90.09
16:26:12.046875,75.96
16:26:12.062500,55.20
16:26:12.078125,32.09
16:26:12.093750,10.77
16:26:12.109375,-6.46
16:26:12.125000,-19.40
16:26:12.140625,-29.30
16:26:12.156250,-37.63
16:26:12.171875,-45.44
16:26:12.187500,-53.10
16:26:12.203125,-60.31
16:26:12.218750,-66.27
16:26:12.234375,-69.82
16:26:12.250000,-69.62
16:26:12.265625,-64.78
16:26:12.281250,-55.24
16:26:12.296875,-41.86
16:26:12.312500,-26.18
16:26:12.328125,-10.19
16:26:12.343750,3.85
16:26:12.359375,13.37
16:26:12.375000,15.77
16:26:12.390625,9.20
16:26:12.406250,-6.26
16:26:12.421875,-27.98
16:26:12.437500,-51.19
16:26:12.453125,-70.46
16:26:12.468750,-81.59
16:26:12.484375,-82.71
16:26:12.500000,-74.22
16:26:12.515625,-57.65
16:26:12.531250,-34.80
16:26:12.546875,-7.49
16:26:12.562500,21.96
16:26:12.578125,50.36
16:26:12.593750,74.14
16:26:12.609375,90.65
16:26:12.625000,99.46
16:26:12.640625,102.51
16:26:12.656250,102.86
16:26:12.671875,102.65
16:26:12.687500,101.81
16:26:12.703125,98.25
16:26:12.718750,89.43
16:26:12.734375,74.30
16:26:12.750000,54.25
16:26:12.765625,32.62
16:26:12.781250,13.09
16:26:12.796875,-1.89
16:26:12.812500,-11.70
16:26:12.828125,-17.24
16:26:12.843750,-20.00
16:26:12.859375,-21.42
16:26:12.875000,-22.58
16:26:12.890625,-24.20
16:26:12.906250,-26.57
16:26:12.921875,-29.25
16:26:12.937500,-30.88
16:26:12.953125,-29.40
16:26:12.968750,-22.97
16:26:12.984375,-11.13
16:26:13,4.50
16:26:13.015625,20.58
16:26:13.031250,33.40
16:26:13.046875,40.59
16:26:13.062500,42.16
16:26:13.078125,40.42
16:26:13.093750,38.72
16:26:13.109375,39.71
16:26:13.125000,44.15
16:26:13.140625,50.59
16:26:13.156250,56.36
16:26:13.171875,58.95
16:26:13.187500,57.15
16:26:13.203125,51.36
16:26:13.218750,42.99
16:26:13.234375,33.64
16:26:13.250000,24.32
16:26:13.265625,15.38
16:26:13.281250,6.98
16:26:13.296875,-0.42
16:26:13.312500,-5.85
16:26:13.328125,-8.22
16:26:13.343750,-7.01
16:26:13.359375,-2.80
16:26:13.375000,2.67
16:26:13.390625,7.06
16:26:13.406250,8.29
16:26:13.421875,5.40
16:26:13.437500,-1.22
16:26:13.453125,-10.01
16:26:13.468750,-18.93
16:26:13.484375,-26.24
16:26:13.500000,-31.07
16:26:13.515625,-33.63
16:26:13.531250,-34.90
16:26:13.546875,-36.29
16:26:13.562500,-39.18
16:26:13.578125,-44.47
16:26:13.593750,-52.36
16:26:13.609375,-62.16
16:26:13.625000,-72.22
16:26:13.640625,-80.08
16:26:13.656250,-83.10
16:26:13.671875,-79.25
16:26:13.687500,-67.95
16:26:13.703125,-50.48
16:26:13.718750,-29.59
16:26:13.734375,-8.66
16:26:13.750000,9.50
16:26:13.765625,23.37
16:26:13.781250,32.88
16:26:13.796875,38.85
16:26:13.812500,42.34
16:26:13.828125,44.01
16:26:13.843750,44.05
16:26:13.859375,42.44
16:26:13.875000,39.29
16:26:13.890625,35.03
16:26:13.906250,30.39
16:26:13.921875,26.07
16:26:13.937500,22.48
16:26:13.953125,19.59
16:26:13.968750,17.00
16:26:13.984375,14.27
16:26:14,11.26
16:26:14.015625,8.25
16:26:14.031250,5.92
16:26:14.046875,4.89
16:26:14.062500,5.32
16:26:14.078125,6.65
16:26:14.093750,7.67
16:26:14.109375,7.00
16:26:14.125000,3.70
16:26:14.140625,-2.37
16:26:14.156250,-10.52
16:26:14.171875,-19.42
16:26:14.187500,-27.74
16:26:14.203125,-34.48
16:26:14.218750,-39.19
16:26:14.234375,-41.84
16:26:14.250000,-42.78
16:26:14.265625,-42.66
16:26:14.281250,-42.55
16:26:14.296875,-43.80
16:26:14.312500,-47.63
16:26:14.328125,-54.35
16:26:14.343750,-62.79
16:26:14.359375,-70.31
16:26:14.375000,-73.69
16:26:14.390625,-70.49
16:26:14.406250,-60.16
16:26:14.421875,-44.30
16:26:14.437500,-25.80
16:26:14.453125,-7.58
16:26:14.468750,8.51
16:26:14.484375,22.08
16:26:14.500000,33.60
16:26:14.515625,43.58
16:26:14.531250,51.99
16:26:14.546875,58.26
16:26:14.562500,61.74
16:26:14.578125,62.19
16:26:14.593750,60.00
16:26:14.609375,56.06
16:26:14.625000,51.40
16:26:14.640625,46.87
16:26:14.656250,42.95
16:26:14.671875,39.68
16:26:14.687500,36.79
16:26:14.703125,33.89
16:26:14.718750,30.78
16:26:14.734375,27.67
16:26:14.750000,25.15
16:26:14.765625,23.93
16:26:14.781250,24.34
16:26:14.796875,25.96
16:26:14.812500,27.67
16:26:14.828125,27.99
16:26:14.843750,25.80
16:26:14.859375,20.81
16:26:14.875000,13.68
16:26:14.890625,5.65
16:26:14.906250,-2.13
16:26:14.921875,-9.12
16:26:14.937500,-15.49
16:26:14.953125,-21.79
16:26:14.968750,-28.47
16:26:14.984375,-35.50
16:26:15,-42.60
16:26:15.015625,-49.52
16:26:15.031250,-56.36
16:26:15.046875,-63.40
16:26:15.062500,-70.46
16:26:15.078125,-76.49
16:26:15.093750,-79.50
16:26:15.109375,-77.23
16:26:15.125000,-68.31
16:26:15.140625,-53.10
16:26:15.156250,-33.78
16:26:15.171875,-13.60
16:26:15.187500,4.39
16:26:15.203125,18.40
16:26:15.218750,28.19
16:26:15.234375,34.65
16:26:15.250000,38.96
16:26:15.265625,41.90
16:26:15.281250,43.72
16:26:15.296875,44.23
16:26:15.312500,43.32
16:26:15.328125,41.15
16:26:15.343750,38.22
16:26:15.359375,35.12
16:26:15.375000,32.28
16:26:15.390625,29.77
16:26:15.406250,27.23
16:26:15.421875,24.17
16:26:15.437500,20.33
16:26:15.453125,16.01
16:26:15.468750,12.08
16:26:15.484375,9.61
16:26:15.500000,9.22
16:26:15.515625,10.60
16:26:15.531250,12.45
16:26:15.546875,12.96
16:26:15.562500,10.75
16:26:15.578125,5.50
16:26:15.593750,-1.84
16:26:15.609375,-9.60
16:26:15.625000,-16.23
16:26:15.640625,-21.01
16:26:15.656250,-24.23
16:26:15.671875,-26.88
16:26:15.687500,-30.05
16:26:15.703125,-34.57
16:26:15.718750,-40.84
16:26:15.734375,-48.89
16:26:15.750000,-58.34
16:26:15.765625,-68.21
16:26:15.781250,-76.85
16:26:15.796875,-82.12
16:26:15.812500,-81.95
16:26:15.828125,-75.11
16:26:15.843750,-61.81
16:26:15.859375,-43.72
16:26:15.875000,-23.41
16:26:15.890625,-3.53
16:26:15.906250,14.04
16:26:15.921875,28.42
16:26:15.937500,39.58
16:26:15.953125,47.83
16:26:15.968750,53.40
16:26:15.984375,56.29
16:26:16,56.41
16:26:16.015625,53.78
16:26:16.031250,48.80
16:26:16.046875,42.25
16:26:16.062500,35.16
16:26:16.078125,28.53
16:26:16.093750,23.04
16:26:16.109375,18.90
16:26:16.125000,15.97
16:26:16.140625,13.95
16:26:16.156250,12.70
16:26:16.171875,12.21
16:26:16.187500,12.50
16:26:16.203125,13.33
16:26:16.218750,14.02
16:26:16.234375,13.60
16:26:16.250000,11.24
16:26:16.265625,6.66
16:26:16.281250,0.36
16:26:16.296875,-6.55
16:26:16.312500,-12.90
16:26:16.328125,-17.96
16:26:16.343750,-21.74
16:26:16.359375,-24.89
16:26:16.375000,-28.34
16:26:16.390625,-32.98
16:26:16.406250,-39.44
16:26:16.421875,-47.92
16:26:16.437500,-57.93
16:26:16.453125,-68.20
16:26:16.468750,-76.67
16:26:16.484375,-80.95
16:26:16.500000,-79.03
16:26:16.515625,-70.15
16:26:16.531250,-55.17
16:26:16.546875,-36.41
16:26:16.562500,-16.75
16:26:16.578125,1.32
16:26:16.593750,16.32
16:26:16.609375,27.89
16:26:16.625000,36.34
16:26:16.640625,42.12
16:26:16.656250,45.47
16:26:16.671875,46.53
16:26:16.687500,45.55
16:26:16.703125,43.04
16:26:16.718750,39.82
16:26:16.734375,36.67
16:26:16.750000,34.08
16:26:16.765625,32.05
16:26:16.781250,30.21
16:26:16.796875,28.10
16:26:16.812500,25.50
16:26:16.828125,22.63
16:26:16.843750,20.06
16:26:16.859375,18.32
16:26:16.875000,17.58
16:26:16.890625,17.41
16:26:16.906250,16.99
16:26:16.921875,15.45
16:26:16.937500,12.33
16:26:16.953125,7.77
16:26:16.968750,2.35
16:26:16.984375,-3.28
16:26:17,-8.74
16:26:17.015625,-13.97
16:26:17.031250,-19.07
16:26:17.046875,-24.17
16:26:17.062500,-29.47
16:26:17.078125,-35.24
16:26:17.093750,-41.96
16:26:17.109375,-50.03
16:26:17.125000,-59.25
16:26:17.140625,-68.48
16:26:17.156250,-75.59
16:26:17.171875,-78.16
16:26:17.187500,-74.43
16:26:17.203125,-64.06
16:26:17.218750,-48.36
16:26:17.234375,-29.71
16:26:17.250000,-10.72
16:26:17.265625,6.59
16:26:17.281250,21.09
16:26:17.296875,32.46
16:26:17.312500,40.80
16:26:17.328125,46.33
16:26:17.343750,49.26
16:26:17.359375,49.83
16:26:17.375000,48.36
16:26:17.390625,45.32
16:26:17.406250,41.26
16:26:17.421875,36.82
16:26:17.437500,32.61
16:26:17.453125,29.11
16:26:17.468750,26.55
16:26:17.484375,24.89
16:26:17.500000,23.82
16:26:17.515625,22.95
16:26:17.531250,22.11
16:26:17.546875,21.38
16:26:17.562500,20.99
16:26:17.578125,21.05
16:26:17.593750,21.21
16:26:17.609375,20.68
16:26:17.625000,18.50
16:26:17.640625,14.01
16:26:17.656250,7.25
16:26:17.671875,-0.96
16:26:17.687500,-9.38
16:26:17.703125,-16.94
16:26:17.718750,-23.14
16:26:17.734375,-28.21
16:26:17.750000,-32.91
16:26:17.765625,-38.11
16:26:17.781250,-44.54
16:26:17.796875,-52.51
16:26:17.812500,-61.79
16:26:17.828125,-71.42
16:26:17.843750,-79.75
16:26:17.859375,-84.69
16:26:17.875000,-84.23
16:26:17.890625,-77.20
16:26:17.906250,-63.84
16:26:17.921875,-45.80
16:26:17.937500,-25.56
16:26:17.953125,-5.61
16:26:17.968750,12.25
16:26:17.984375,27.20
16:26:18,39.10
16:26:18.015625,48.09
16:26:18.031250,54.21
16:26:18.046875,57.50
16:26:18.062500,58.14
16:26:18.078125,56.59
16:26:18.093750,53.61
16:26:18.109375,50.03
16:26:18.125000,46.47
16:26:18.140625,43.23
16:26:18.156250,40.27
16:26:18.171875,37.40
16:26:18.187500,34.45
16:26:18.203125,31.42
16:26:18.218750,28.55
16:26:18.234375,26.25
16:26:18.250000,24.86
16:26:18.265625,24.48
16:26:18.281250,24.71
16:26:18.296875,24.76
16:26:18.312500,23.63
16:26:18.328125,20.60
16:26:18.343750,15.57
16:26:18.359375,9.08
16:26:18.375000,2.14
16:26:18.390625,-4.27
16:26:18.406250,-9.61
16:26:18.421875,-13.94
16:26:18.437500,-17.81
16:26:18.453125,-22.03
16:26:18.468750,-27.41
16:26:18.484375,-34.58
16:26:18.500000,-43.77
16:26:18.515625,-54.55
16:26:18.531250,-65.70
16:26:18.546875,-75.16
16:26:18.562500,-80.53
16:26:18.578125,-79.81
16:26:18.593750,-72.12
16:26:18.609375,-58.22
16:26:18.625000,-40.25
16:26:18.640625,-21.00
16:26:18.656250,-2.95
16:26:18.671875,12.45
16:26:18.687500,24.81
16:26:18.703125,34.52
16:26:18.718750,42.09
16:26:18.734375,47.76
16:26:18.750000,51.43
16:26:18.765625,52.86
16:26:18.781250,52.03
16:26:18.796875,49.27
16:26:18.812500,45.27
16:26:18.828125,40.92
16:26:18.843750,37.06
16:26:18.859375,34.22
16:26:18.875000,32.53
16:26:18.890625,31.71
16:26:18.906250,31.16
16:26:18.921875,30.31
16:26:18.937500,28.88
16:26:18.953125,27.01
16:26:18.968750,25.12
16:26:18.984375,23.66
16:26:19,22.61
16:26:19.015625,21.42
16:26:19.031250,19.17
16:26:19.046875,15.01
16:26:19.062500,8.76
16:26:19.078125,1.06
16:26:19.093750,-6.86
16:26:19.109375,-13.73
16:26:19.125000,-18.91
16:26:19.140625,-22.57
16:26:19.156250,-25.52
16:26:19.171875,-28.81
16:26:19.187500,-33.29
16:26:19.203125,-39.40
16:26:19.218750,-47.18
16:26:19.234375,-56.31
16:26:19.250000,-65.98
16:26:19.265625,-74.78
16:26:19.281250,-80.84
16:26:19.296875,-82.18
16:26:19.312500,-77.43
16:26:19.328125,-66.48
16:26:19.343750,-50.61
16:26:19.359375,-32.10
16:26:19.375000,-13.46
16:26:19.390625,3.45
16:26:19.406250,17.71
16:26:19.421875,29.25
16:26:19.437500,38.39
16:26:19.453125,45.43
16:26:19.468750,50.40
16:26:19.484375,53.16
16:26:19.500000,53.62
16:26:19.515625,51.96
16:26:19.531250,48.73
16:26:19.546875,44.68
16:26:19.562500,40.67
16:26:19.578125,37.35
16:26:19.593750,34.96
16:26:19.609375,33.32
16:26:19.625000,31.89
16:26:19.640625,30.18
16:26:19.656250,28.05
16:26:19.671875,25.84
16:26:19.687500,24.18
16:26:19.703125,23.47
16:26:19.718750,23.54
16:26:19.734375,23.47
16:26:19.750000,21.92
16:26:19.765625,17.73
16:26:19.781250,10.57
16:26:19.796875,1.24
16:26:19.812500,-8.56
16:26:19.828125,-16.92
16:26:19.843750,-22.59
16:26:19.859375,-25.51
16:26:19.875000,-26.88
16:26:19.890625,-28.55
16:26:19.906250,-32.26
16:26:19.921875,-38.86
16:26:19.937500,-48.03
16:26:19.953125,-58.47
16:26:19.968750,-68.26
16:26:19.984375,-75.42
16:26:20,-78.29
16:26:20.015625,-75.76
16:26:20.031250,-67.47
16:26:20.046875,-53.94
16:26:20.062500,-36.59
16:26:20.078125,-17.51
16:26:20.093750,1.00
16:26:20.109375,17.10
16:26:20.125000,29.77
16:26:20.140625,39.01
16:26:20.156250,45.42
16:26:20.171875,49.77
16:26:20.187500,52.55
16:26:20.203125,53.90
16:26:20.218750,53.70
16:26:20.234375,51.89
16:26:20.250000,48.67
16:26:20.265625,44.55
16:26:20.281250,40.27
16:26:20.296875,36.48
16:26:20.312500,33.60
16:26:20.328125,31.69
16:26:20.343750,30.42
16:26:20.359375,29.32
16:26:20.375000,27.99
16:26:20.390625,26.26
16:26:20.406250,24.33
16:26:20.421875,22.46
16:26:20.437500,20.82
16:26:20.453125,19.16
16:26:20.468750,16.93
16:26:20.484375,13.42
16:26:20.500000,8.19
16:26:20.515625,1.33
16:26:20.531250,-6.49
16:26:20.546875,-14.25
16:26:20.562500,-21.04
16:26:20.578125,-26.33
16:26:20.593750,-30.29
16:26:20.609375,-33.50
16:26:20.625000,-36.88
16:26:20.640625,-41.24
16:26:20.656250,-47.21
16:26:20.671875,-55.00
16:26:20.687500,-64.36
16:26:20.703125,-74.36
16:26:20.718750,-83.42
16:26:20.734375,-89.45
16:26:20.750000,-90.36
16:26:20.765625,-84.74
16:26:20.781250,-72.47
16:26:20.796875,-54.86
16:26:20.812500,-34.36
16:26:20.828125,-13.69
16:26:20.843750,4.93
16:26:20.859375,20.29
16:26:20.875000,32.19
16:26:20.890625,41.04
16:26:20.906250,47.36
16:26:20.921875,51.51
16:26:20.937500,53.63
16:26:20.953125,53.87
16:26:20.968750,52.56
16:26:20.984375,50.27
16:26:21,47.66
16:26:21.015625,45.30
16:26:21.031250,43.53
16:26:21.046875,42.35
16:26:21.062500,41.52
16:26:21.078125,40.69
16:26:21.093750,39.53
16:26:21.109375,37.91
16:26:21.125000,35.96
16:26:21.140625,34.04
16:26:21.156250,32.46
16:26:21.171875,31.33
16:26:21.187500,30.33
16:26:21.203125,28.78
16:26:21.218750,25.85
16:26:21.234375,20.98
16:26:21.250000,14.13
16:26:21.265625,5.93
16:26:21.281250,-2.64
16:26:21.296875,-10.53
16:26:21.312500,-17.11
16:26:21.328125,-22.29
16:26:21.343750,-26.46
16:26:21.359375,-30.35
16:26:21.375000,-34.71
16:26:21.390625,-40.22
16:26:21.406250,-47.33
16:26:21.421875,-56.09
16:26:21.437500,-65.96
16:26:21.453125,-75.62
16:26:21.468750,-83.09
16:26:21.484375,-86.15
16:26:21.500000,-83.16
16:26:21.515625,-73.62
16:26:21.531250,-58.50
16:26:21.546875,-39.91
16:26:21.562500,-20.33
16:26:21.578125,-1.91
16:26:21.593750,14.04
16:26:21.609375,27.04
16:26:21.625000,37.16
16:26:21.640625,44.65
16:26:21.656250,49.68
16:26:21.671875,52.29
16:26:21.687500,52.54
16:26:21.703125,50.68
16:26:21.718750,47.16
16:26:21.734375,42.64
16:26:21.750000,37.85
16:26:21.765625,33.46
16:26:21.781250,29.84
16:26:21.796875,27.04
16:26:21.812500,24.82
16:26:21.828125,22.82
16:26:21.843750,20.92
16:26:21.859375,19.24
16:26:21.875000,18.05
16:26:21.890625,17.52
16:26:21.906250,17.43
16:26:21.921875,17.11
16:26:21.937500,15.68
16:26:21.953125,12.48
16:26:21.968750,7.44
16:26:21.984375,1.11
16:26:22,-5.53
16:26:22.015625,-11.53
16:26:22.031250,-16.29
16:26:22.046875,-19.82
16:26:22.062500,-22.57
16:26:22.078125,-25.29
16:26:22.093750,-28.80
16:26:22.109375,-33.84
16:26:22.125000,-40.92
16:26:22.140625,-50.05
16:26:22.156250,-60.47
16:26:22.171875,-70.53
16:26:22.187500,-77.96
16:26:22.203125,-80.50
16:26:22.218750,-76.72
16:26:22.234375,-66.58
16:26:22.250000,-51.51
16:26:22.265625,-33.78
16:26:22.281250,-15.76
16:26:22.296875,0.84
16:26:22.312500,15.25
16:26:22.328125,27.38
16:26:22.343750,37.37
16:26:22.359375,45.26
16:26:22.375000,50.79
16:26:22.390625,53.69
16:26:22.406250,53.86
16:26:22.421875,51.69
16:26:22.437500,47.98
16:26:22.453125,43.76
16:26:22.468750,39.97
16:26:22.484375,37.15
16:26:22.500000,35.32
16:26:22.515625,34.06
16:26:22.531250,32.84
16:26:22.546875,31.29
16:26:22.562500,29.45
16:26:22.578125,27.68
16:26:22.593750,26.42
16:26:22.609375,25.84
16:26:22.625000,25.60
16:26:22.640625,24.95
16:26:22.656250,22.94
16:26:22.671875,18.86
16:26:22.687500,12.58
16:26:22.703125,4.71
16:26:22.718750,-3.68
16:26:22.734375,-11.38
16:26:22.750000,-17.51
16:26:22.765625,-21.81
16:26:22.781250,-24.72
16:26:22.796875,-27.16
16:26:22.812500,-30.28
16:26:22.828125,-35.10
16:26:22.843750,-42.20
16:26:22.859375,-51.41
16:26:22.875000,-61.66
16:26:22.890625,-71.01
16:26:22.906250,-77.08
16:26:22.921875,-77.68
16:26:22.937500,-71.54
16:26:22.953125,-58.85
16:26:22.968750,-41.18
16:26:22.984375,-21.04
16:26:23,-1.06
16:26:23.015625,16.85
16:26:23.031250,31.76
16:26:23.046875,43.76
16:26:23.062500,53.51
16:26:23.078125,61.64
16:26:23.093750,68.30
16:26:23.109375,72.91
16:26:23.125000,74.40
16:26:23.140625,71.83
16:26:23.156250,65.07
16:26:23.171875,55.06
16:26:23.187500,43.65
16:26:23.203125,32.92
16:26:23.218750,24.35
16:26:23.234375,18.43
16:26:23.250000,14.84
16:26:23.265625,12.95
16:26:23.281250,12.34
16:26:23.296875,12.81
16:26:23.312500,14.16
16:26:23.328125,15.80
16:26:23.343750,16.74
16:26:23.359375,15.91
16:26:23.375000,12.56
16:26:23.390625,6.55
16:26:23.406250,-1.66
16:26:23.421875,-11.29
16:26:23.437500,-21.46
16:26:23.453125,-31.28
16:26:23.468750,-39.92
16:26:23.484375,-46.75
16:26:23.500000,-51.68
16:26:23.515625,-55.28
16:26:23.531250,-58.71
16:26:23.546875,-63.35
16:26:23.562500,-70.22
16:26:23.578125,-79.34
16:26:23.593750,-89.53
16:26:23.609375,-98.64
16:26:23.625000,-104.11
16:26:23.640625,-103.75
16:26:23.656250,-96.35
16:26:23.671875,-82.11
16:26:23.687500,-62.57
16:26:23.703125,-40.21
16:26:23.718750,-17.67
16:26:23.734375,2.86
16:26:23.750000,20.14
16:26:23.765625,33.82
16:26:23.781250,44.20
16:26:23.796875,51.83
16:26:23.812500,57.13
16:26:23.828125,60.28
16:26:23.843750,61.32
16:26:23.859375,60.29
16:26:23.875000,57.48
16:26:23.890625,53.43
16:26:23.906250,48.83
16:26:23.921875,44.34
16:26:23.937500,40.37
16:26:23.953125,36.92
16:26:23.968750,33.82
16:26:23.984375,30.88
16:26:24,28.15
16:26:24.015625,25.95
16:26:24.031250,24.67
16:26:24.046875,24.49
16:26:24.062500,25.10
16:26:24.078125,25.77
16:26:24.093750,25.55
16:26:24.109375,23.64
16:26:24.125000,19.68
16:26:24.140625,13.87
16:26:24.156250,6.78
16:26:24.171875,-0.84
16:26:24.187500,-8.32
16:26:24.203125,-15.26
16:26:24.218750,-21.58
16:26:24.234375,-27.52
16:26:24.250000,-33.61
16:26:24.265625,-40.57
16:26:24.281250,-49.01
16:26:24.296875,-59.05
16:26:24.312500,-69.91
16:26:24.328125,-79.82
16:26:24.343750,-86.27
16:26:24.359375,-86.81
16:26:24.375000,-79.94
16:26:24.390625,-65.73
16:26:24.406250,-45.88
16:26:24.421875,-23.12
16:26:24.437500,-0.39
16:26:24.453125,19.99
16:26:24.468750,36.71
16:26:24.484375,49.37
16:26:24.500000,58.17
16:26:24.515625,63.61
16:26:24.531250,66.24
16:26:24.546875,66.63
16:26:24.562500,65.35
16:26:24.578125,63.00
16:26:24.593750,60.11
16:26:24.609375,57.04
16:26:24.625000,53.98
16:26:24.640625,50.91
16:26:24.656250,47.62
16:26:24.671875,43.88
16:26:24.687500,39.51
16:26:24.703125,34.59
16:26:24.718750,29.48
16:26:24.734375,24.77
16:26:24.750000,21.09
16:26:24.765625,18.81
16:26:24.781250,17.79
16:26:24.796875,17.41
16:26:24.812500,16.69
16:26:24.828125,14.67
16:26:24.843750,10.71
16:26:24.859375,4.79
16:26:24.875000,-2.62
16:26:24.890625,-10.65
16:26:24.906250,-18.45
16:26:24.921875,-25.39
16:26:24.937500,-31.21
16:26:24.953125,-36.06
16:26:24.968750,-40.43
16:26:24.984375,-45.11
16:26:25,-51.00
16:26:25.015625,-58.77
16:26:25.031250,-68.40
16:26:25.046875,-78.89
16:26:25.062500,-88.09
16:26:25.078125,-93.31
16:26:25.093750,-92.16
16:26:25.109375,-83.56
16:26:25.125000,-68.23
16:26:25.140625,-48.55
16:26:25.156250,-27.66
16:26:25.171875,-8.44
16:26:25.187500,7.36
16:26:25.203125,19.33
16:26:25.218750,28.07
16:26:25.234375,34.48
16:26:25.250000,39.29
16:26:25.265625,42.67
16:26:25.281250,44.45
16:26:25.296875,44.48
16:26:25.312500,42.77
16:26:25.328125,39.61
16:26:25.343750,35.30
16:26:25.359375,30.12
16:26:25.375000,24.25
16:26:25.390625,17.98
16:26:25.406250,11.81
16:26:25.421875,6.31
16:26:25.437500,1.90
16:26:25.453125,-1.60
16:26:25.468750,-5.03
16:26:25.484375,-9.52
16:26:25.500000,-15.78
16:26:25.515625,-23.42
16:26:25.531250,-30.86
16:26:25.546875,-36.07
16:26:25.562500,-37.56
16:26:25.578125,-35.20
16:26:25.593750,-30.40
16:26:25.609375,-25.24
16:26:25.625000,-21.57
16:26:25.640625,-20.31
16:26:25.656250,-21.67
16:26:25.671875,-25.75
16:26:25.687500,-33.04
16:26:25.703125,-44.31
16:26:25.718750,-59.69
16:26:25.734375,-77.75
16:26:25.750000,-95.16
16:26:25.765625,-107.30
16:26:25.781250,-109.83
16:26:25.796875,-100.26
16:26:25.812500,-78.93
16:26:25.828125,-49.09
16:26:25.843750,-15.90
16:26:25.859375,15.13
16:26:25.875000,39.66
16:26:25.890625,55.56
16:26:25.906250,63.21
16:26:25.921875,64.89
16:26:25.937500,63.65
16:26:25.953125,61.94
16:26:25.968750,60.78
16:26:25.984375,59.61
16:26:26,56.86
16:26:26.015625,51.21
16:26:26.031250,42.71
16:26:26.046875,32.99
16:26:26.062500,24.63
16:26:26.078125,19.97
16:26:26.093750,19.94
16:26:26.109375,23.62
16:26:26.125000,28.62
16:26:26.140625,32.10
16:26:26.156250,32.05
16:26:26.171875,28.14
16:26:26.187500,21.56
16:26:26.203125,14.35
16:26:26.218750,8.26
16:26:26.234375,4.07
16:26:26.250000,1.58
16:26:26.265625,0.02
16:26:26.281250,-1.45
16:26:26.296875,-3.53
16:26:26.312500,-6.92
16:26:26.328125,-12.41
16:26:26.343750,-20.73
16:26:26.359375,-31.90
16:26:26.375000,-44.54
16:26:26.390625,-55.88
16:26:26.406250,-62.42
16:26:26.421875,-61.18
16:26:26.437500,-50.87
16:26:26.453125,-32.52
16:26:26.468750,-9.14
16:26:26.484375,15.30
16:26:26.500000,37.12
16:26:26.515625,53.83
16:26:26.531250,64.53
16:26:26.546875,69.86
16:26:26.562500,71.41
16:26:26.578125,70.88
16:26:26.593750,69.29
16:26:26.609375,66.46
16:26:26.625000,61.34
16:26:26.640625,52.83
16:26:26.656250,40.78
16:26:26.671875,26.72
16:26:26.687500,13.65
16:26:26.703125,4.94
16:26:26.718750,2.87
16:26:26.734375,7.50
16:26:26.750000,16.45
16:26:26.765625,25.75
16:26:26.781250,31.46
16:26:26.796875,31.08
16:26:26.812500,24.43
16:26:26.828125,13.43
16:26:26.843750,0.98
16:26:26.859375,-10.48
16:26:26.875000,-19.87
16:26:26.890625,-27.53
16:26:26.906250,-34.42
16:26:26.921875,-41.10
16:26:26.937500,-47.11
16:26:26.953125,-51.31
16:26:26.968750,-52.83
16:26:26.984375,-52.08
16:26:27,-50.93
16:26:27.015625,-51.63
16:26:27.031250,-55.33
16:26:27.046875,-60.86
16:26:27.062500,-64.90
16:26:27.078125,-63.48
16:26:27.093750,-54.13
16:26:27.109375,-37.46
16:26:27.125000,-17.19
16:26:27.140625,1.51
16:26:27.156250,14.40
16:26:27.171875,19.92
16:26:27.187500,19.53
16:26:27.203125,16.39
16:26:27.218750,13.50
16:26:27.234375,12.24
16:26:27.250000,12.12
16:26:27.265625,11.78
16:26:27.281250,10.27
16:26:27.296875,7.84
16:26:27.312500,5.68
16:26:27.328125,5.17
16:26:27.343750,6.91
16:26:27.359375,10.33
16:26:27.375000,13.92
16:26:27.390625,15.92
16:26:27.406250,15.18
16:26:27.421875,11.63
16:26:27.437500,6.30
16:26:27.453125,0.83
16:26:27.468750,-3.14
16:26:27.484375,-4.71
16:26:27.500000,-4.07
16:26:27.515625,-2.29
16:26:27.531250,-0.90
16:26:27.546875,-1.26
16:26:27.562500,-3.99
16:26:27.578125,-8.84
16:26:27.593750,-14.87
16:26:27.609375,-20.92
16:26:27.625000,-26.17
16:26:27.640625,-30.41
16:26:27.656250,-33.83
16:26:27.671875,-36.56
16:26:27.687500,-38.20
16:26:27.703125,-37.66
16:26:27.718750,-33.40
16:26:27.734375,-24.17
16:26:27.750000,-9.84
16:26:27.765625,8.32
16:26:27.781250,27.99
16:26:27.796875,46.74
16:26:27.812500,63.00
16:26:27.828125,76.42
16:26:27.843750,87.46
16:26:27.859375,96.37
16:26:27.875000,102.42
16:26:27.890625,103.84
16:26:27.906250,98.83
16:26:27.921875,86.71
16:26:27.937500,68.92
16:26:27.953125,48.87
16:26:27.968750,30.81
16:26:27.984375,18.42
16:26:28,13.44
16:26:28.015625,15.37
16:26:28.031250,22.09
16:26:28.046875,30.78
16:26:28.062500,38.93
16:26:28.078125,44.70
16:26:28.093750,46.97
16:26:28.109375,45.12
16:26:28.125000,39.10
16:26:28.140625,29.42
16:26:28.156250,17.42
16:26:28.171875,5.03
16:26:28.187500,-5.73
16:26:28.203125,-13.46
16:26:28.218750,-17.83
16:26:28.234375,-19.66
16:26:28.250000,-20.56
16:26:28.265625,-22.35
16:26:28.281250,-26.52
16:26:28.296875,-33.90
16:26:28.312500,-44.46
16:26:28.328125,-57.09
16:26:28.343750,-69.63
16:26:28.359375,-79.11
16:26:28.375000,-82.59
16:26:28.390625,-78.07
16:26:28.406250,-65.41
16:26:28.421875,-46.42
16:26:28.437500,-24.22
16:26:28.453125,-2.09
16:26:28.468750,17.55
16:26:28.484375,33.60
16:26:28.500000,45.95
16:26:28.515625,54.83
16:26:28.531250,60.25
16:26:28.546875,61.90
16:26:28.562500,59.48
16:26:28.578125,53.15
16:26:28.593750,43.74
16:26:28.609375,32.59
16:26:28.625000,21.26
16:26:28.640625,11.14
16:26:28.656250,3.24
16:26:28.671875,-1.85
16:26:28.687500,-4.01
16:26:28.703125,-3.62
16:26:28.718750,-1.43
16:26:28.734375,1.55
16:26:28.750000,4.40
16:26:28.765625,6.42
16:26:28.781250,7.27
16:26:28.796875,6.79
16:26:28.812500,5.00
16:26:28.828125,2.03
16:26:28.843750,-1.76
16:26:28.859375,-5.92
16:26:28.875000,-9.98
16:26:28.890625,-13.76
16:26:28.906250,-17.60
16:26:28.921875,-22.34
16:26:28.937500,-28.94
16:26:28.953125,-37.89
16:26:28.968750,-48.64
16:26:28.984375,-59.34
16:26:29,-67.25
16:26:29.015625,-69.45
16:26:29.031250,-63.89
16:26:29.046875,-50.25
16:26:29.062500,-30.26
16:26:29.078125,-7.24
16:26:29.093750,14.78
16:26:29.109375,32.36
16:26:29.125000,43.66
16:26:29.140625,48.93
16:26:29.156250,50.05
16:26:29.171875,49.61
16:26:29.187500,49.73
16:26:29.203125,51.23
16:26:29.218750,53.54
16:26:29.234375,54.96
16:26:29.250000,53.31
16:26:29.265625,46.71
16:26:29.281250,34.19
16:26:29.296875,16.31
16:26:29.312500,-4.71
16:26:29.328125,-25.24
16:26:29.343750,-41.29
16:26:29.359375,-49.78
16:26:29.375000,-49.94
16:26:29.390625,-43.75
16:26:29.406250,-35.35
16:26:29.421875,-29.31
16:26:29.437500,-28.68
16:26:29.453125,-33.72
16:26:29.468750,-41.86
16:26:29.484375,-49.09
16:26:29.500000,-51.65
16:26:29.515625,-47.66
16:26:29.531250,-37.56
16:26:29.546875,-23.88
16:26:29.562500,-10.27
16:26:29.578125,-0.48
16:26:29.593750,2.57
16:26:29.609375,-2.41
16:26:29.625000,-14.50
16:26:29.640625,-30.47
16:26:29.656250,-45.56
16:26:29.671875,-54.98
16:26:29.687500,-55.59
16:26:29.703125,-47.20
16:26:29.718750,-32.52
16:26:29.734375,-15.97
16:26:29.750000,-1.73
16:26:29.765625,7.83
16:26:29.781250,12.56
16:26:29.796875,14.11
16:26:29.812500,14.75
16:26:29.828125,16.36
16:26:29.843750,19.63
16:26:29.859375,23.96
16:26:29.875000,27.69
16:26:29.890625,28.75
16:26:29.906250,25.45
16:26:29.921875,17.24
16:26:29.937500,5.14
16:26:29.953125,-8.45
16:26:29.968750,-20.47
16:26:29.984375,-28.43
16:26:30,-31.11
16:26:30.015625,-28.90
16:26:30.031250,-23.04
16:26:30.046875,-14.74
16:26:30.062500,-4.65
16:26:30.078125,7.18
16:26:30.093750,20.74
16:26:30.109375,35.64
16:26:30.125000,50.91
16:26:30.140625,65.06
16:26:30.156250,76.00
16:26:30.171875,81.01
16:26:30.187500,77.12
16:26:30.203125,61.97
16:26:30.218750,35.46
16:26:30.234375,0.84
16:26:30.250000,-35.23
16:26:30.265625,-64.33
16:26:30.281250,-79.42
16:26:30.296875,-77.53
16:26:30.312500,-60.90
16:26:30.328125,-35.68
16:26:30.343750,-9.17
16:26:30.359375,12.88
16:26:30.375000,27.45
16:26:30.390625,33.91
16:26:30.406250,32.56
16:26:30.421875,23.89
16:26:30.437500,8.76
16:26:30.453125,-10.81
16:26:30.468750,-31.21
16:26:30.484375,-47.83
16:26:30.500000,-56.41
16:26:30.515625,-54.66
16:26:30.531250,-43.10
16:26:30.546875,-24.97
16:26:30.562500,-5.20
16:26:30.578125,10.88
16:26:30.593750,19.00
16:26:30.609375,17.38
16:26:30.625000,7.62
16:26:30.640625,-5.32
16:26:30.656250,-14.56
16:26:30.671875,-13.97
16:26:30.687500,-1.17
16:26:30.703125,20.83
16:26:30.718750,44.24
16:26:30.734375,59.47
16:26:30.750000,59.08
16:26:30.765625,40.75
16:26:30.781250,8.10
16:26:30.796875,-31.01
16:26:30.812500,-67.40
16:26:30.828125,-93.27
16:26:30.843750,-103.85
16:26:30.859375,-97.83
16:26:30.875000,-77.15
16:26:30.890625,-46.56
16:26:30.906250,-12.77
16:26:30.921875,17.04
16:26:30.937500,37.22
16:26:30.953125,45.82
16:26:30.968750,45.41
16:26:30.984375,42.07
16:26:31,42.43
16:26:31.015625,50.22
16:26:31.031250,64.20
16:26:31.046875,78.74
16:26:31.062500,86.67
16:26:31.078125,82.99
16:26:31.093750,67.35
16:26:31.109375,44.17
16:26:31.125000,20.38
16:26:31.140625,2.29
16:26:31.156250,-6.99
16:26:31.171875,-8.23
16:26:31.187500,-4.91
16:26:31.203125,-1.19
16:26:31.218750,0.09
16:26:31.234375,-1.70
16:26:31.250000,-5.35
16:26:31.265625,-8.84
16:26:31.281250,-10.56
16:26:31.296875,-9.96
16:26:31.312500,-7.63
16:26:31.328125,-4.82
16:26:31.343750,-2.95
16:26:31.359375,-3.16
16:26:31.375000,-6.19
16:26:31.390625,-12.57
16:26:31.406250,-22.53
16:26:31.421875,-35.69
16:26:31.437500,-50.54
16:26:31.453125,-64.22
16:26:31.468750,-72.92
16:26:31.484375,-72.98
16:26:31.500000,-62.41
16:26:31.515625,-41.92
16:26:31.531250,-15.11
16:26:31.546875,12.70
16:26:31.562500,36.15
16:26:31.578125,51.63
16:26:31.593750,58.13
16:26:31.609375,57.04
16:26:31.625000,51.09
16:26:31.640625,43.12
16:26:31.656250,35.16
16:26:31.671875,28.15
16:26:31.687500,22.32
16:26:31.703125,17.58
16:26:31.718750,13.92
16:26:31.734375,11.34
16:26:31.750000,9.73
16:26:31.765625,8.71
16:26:31.781250,7.70
16:26:31.796875,6.13
16:26:31.812500,3.74
16:26:31.828125,0.74
16:26:31.843750,-2.36
16:26:31.859375,-5.04
16:26:31.875000,-7.14
16:26:31.890625,-9.00
16:26:31.906250,-11.44
16:26:31.921875,-15.30
16:26:31.937500,-21.18
16:26:31.953125,-29.21
16:26:31.968750,-39.09
16:26:31.984375,-50.12
16:26:32,-61.21
16:26:32.015625,-70.74
16:26:32.031250,-76.55
16:26:32.046875,-76.28
16:26:32.062500,-68.10
16:26:32.078125,-51.49
16:26:32.093750,-27.84
16:26:32.109375,-0.22
16:26:32.125000,27.42
16:26:32.140625,51.39
16:26:32.156250,69.01
16:26:32.171875,78.80
16:26:32.187500,80.18
16:26:32.203125,73.20
16:26:32.218750,58.62
16:26:32.234375,38.40
16:26:32.250000,15.88
16:26:32.265625,-4.52
16:26:32.281250,-18.42
16:26:32.296875,-22.78
16:26:32.312500,-16.95
16:26:32.328125,-2.84
16:26:32.343750,15.65
16:26:32.359375,33.88
16:26:32.375000,47.51
16:26:32.390625,53.43
16:26:32.406250,50.29
16:26:32.421875,38.45
16:26:32.437500,19.90
16:26:32.453125,-2.25
16:26:32.468750,-24.47
16:26:32.484375,-43.43
16:26:32.500000,-56.82
16:26:32.515625,-63.80
16:26:32.531250,-65.18
16:26:32.546875,-63.09
16:26:32.562500,-60.28
16:26:32.578125,-59.10
16:26:32.593750,-60.61
16:26:32.609375,-64.12
16:26:32.625000,-67.51
16:26:32.640625,-68.07
16:26:32.656250,-63.61
16:26:32.671875,-53.29
16:26:32.687500,-37.76
16:26:32.703125,-18.88
16:26:32.718750,1.04
16:26:32.734375,19.92
16:26:32.750000,36.30
16:26:32.765625,49.39
16:26:32.781250,58.81
16:26:32.796875,64.47
16:26:32.812500,66.33
16:26:32.828125,64.49
16:26:32.843750,59.19
16:26:32.859375,50.96
16:26:32.875000,40.59
16:26:32.890625,29.06
16:26:32.906250,17.37
16:26:32.921875,6.46
16:26:32.937500,-2.73
16:26:32.953125,-9.27
16:26:32.968750,-12.14
16:26:32.984375,-10.66
16:26:33,-4.95
16:26:33.015625,3.54
16:26:33.031250,12.10
16:26:33.046875,17.41
16:26:33.062500,16.64
16:26:33.078125,8.54
16:26:33.093750,-6.17
16:26:33.109375,-25.21
16:26:33.125000,-45.72
16:26:33.140625,-65.04
16:26:33.156250,-81.19
16:26:33.171875,-92.73
16:26:33.187500,-98.56
16:26:33.203125,-98.09
16:26:33.218750,-91.65
16:26:33.234375,-80.93
16:26:33.250000,-68.84
16:26:33.265625,-58.70
16:26:33.281250,-52.83
16:26:33.296875,-51.67
16:26:33.312500,-53.44
16:26:33.328125,-54.99
16:26:33.343750,-53.12
16:26:33.359375,-46.05
16:26:33.375000,-34.35
16:26:33.390625,-20.74
16:26:33.406250,-9.10
16:26:33.421875,-2.94
16:26:33.437500,-4.05
16:26:33.453125,-11.91
16:26:33.468750,-24.05
16:26:33.484375,-37.20
16:26:33.500000,-48.73
16:26:33.515625,-57.67
16:26:33.531250,-64.69
16:26:33.546875,-71.39
16:26:33.562500,-78.89
16:26:33.578125,-86.73
16:26:33.593750,-92.78
16:26:33.609375,-94.35
16:26:33.625000,-89.60
16:26:33.640625,-78.76
16:26:33.656250,-64.08
16:26:33.671875,-48.57
16:26:33.687500,-34.61
16:26:33.703125,-23.05
16:26:33.718750,-13.44
16:26:33.734375,-5.05
16:26:33.750000,2.29
16:26:33.765625,8.36
16:26:33.781250,13.55
16:26:33.796875,19.59
16:26:33.812500,28.99
16:26:33.828125,43.18
16:26:33.843750,60.87
16:26:33.859375,78.03
16:26:33.875000,89.97
16:26:33.890625,94.48
16:26:33.906250,93.65
16:26:33.921875,93.01
16:26:33.937500,98.30
16:26:33.953125,111.92
16:26:33.968750,131.57
16:26:33.984375,151.96
16:26:34,168.22
16:26:34.015625,178.57
16:26:34.031250,184.54
16:26:34.046875,188.74
16:26:34.062500,191.92
16:26:34.078125,191.85
16:26:34.093750,184.60
16:26:34.109375,167.24
16:26:34.125000,140.32
16:26:34.140625,108.11
16:26:34.156250,76.75
16:26:34.171875,51.46
16:26:34.187500,34.46
16:26:34.203125,24.58
16:26:34.218750,18.75
16:26:34.234375,14.15
16:26:34.250000,9.66
16:26:34.265625,6.03
16:26:34.281250,4.55
16:26:34.296875,5.52
16:26:34.312500,7.29
16:26:34.328125,6.82
16:26:34.343750,1.03
16:26:34.359375,-11.40
16:26:34.375000,-28.98
16:26:34.390625,-47.77
16:26:34.406250,-62.71
16:26:34.421875,-69.69
16:26:34.437500,-66.94
16:26:34.453125,-55.44
16:26:34.468750,-38.26
16:26:34.484375,-19.28
16:26:34.500000,-1.75
16:26:34.515625,12.44
16:26:34.531250,22.82
16:26:34.546875,29.95
16:26:34.562500,34.84
16:26:34.578125,38.51
16:26:34.593750,41.73
16:26:34.609375,45.05
16:26:34.625000,48.78
16:26:34.640625,53.04
16:26:34.656250,57.77
16:26:34.671875,62.64
16:26:34.687500,67.19
16:26:34.703125,70.96
16:26:34.718750,73.65
16:26:34.734375,75.09
16:26:34.750000,75.10
16:26:34.765625,73.31
16:26:34.781250,69.12
16:26:34.796875,61.82
16:26:34.812500,50.84
16:26:34.828125,36.09
16:26:34.843750,18.03
16:26:34.859375,-2.31
16:26:34.875000,-23.57
16:26:34.890625,-44.31
16:26:34.906250,-63.24
16:26:34.921875,-79.60
16:26:34.937500,-93.25
16:26:34.953125,-104.66
16:26:34.968750,-114.44
16:26:34.984375,-122.69
16:26:35,-128.59
16:26:35.015625,-130.49
16:26:35.031250,-126.59
16:26:35.046875,-115.97
16:26:35.062500,-99.25
16:26:35.078125,-78.62
16:26:35.093750,-56.98
16:26:35.109375,-36.83
16:26:35.125000,-19.39
16:26:35.140625,-4.62
16:26:35.156250,8.17
16:26:35.171875,19.43
16:26:35.187500,28.83
16:26:35.203125,35.29
16:26:35.218750,37.75
16:26:35.234375,35.79
16:26:35.250000,30.14
16:26:35.265625,22.47
16:26:35.281250,14.80
16:26:35.296875,8.85
16:26:35.312500,5.37
16:26:35.328125,4.10
16:26:35.343750,3.96
16:26:35.359375,3.73
16:26:35.375000,2.51
16:26:35.390625,0.12
16:26:35.406250,-2.93
16:26:35.421875,-5.88
16:26:35.437500,-8.11
16:26:35.453125,-9.51
16:26:35.468750,-10.51
16:26:35.484375,-11.84
16:26:35.500000,-14.11
16:26:35.515625,-17.68
16:26:35.531250,-22.63
16:26:35.546875,-28.96
16:26:35.562500,-36.67
16:26:35.578125,-45.61
16:26:35.593750,-55.09
16:26:35.609375,-63.65
16:26:35.625000,-69.15
16:26:35.640625,-69.40
16:26:35.656250,-63.08
16:26:35.671875,-50.33
16:26:35.687500,-32.88
16:26:35.703125,-13.43
16:26:35.718750,5.31
16:26:35.734375,21.42
16:26:35.750000,34.08
16:26:35.765625,43.40
16:26:35.781250,49.85
16:26:35.796875,53.89
16:26:35.812500,55.73
16:26:35.828125,55.47
16:26:35.843750,53.22
16:26:35.859375,49.29
16:26:35.875000,44.18
16:26:35.890625,38.51
16:26:35.906250,32.95
16:26:35.921875,28.09
16:26:35.937500,24.34
16:26:35.953125,21.75
16:26:35.968750,20.03
16:26:35.984375,18.51
16:26:36,16.46
16:26:36.015625,13.35
16:26:36.031250,9.15
16:26:36.046875,4.28
16:26:36.062500,-0.62
16:26:36.078125,-5.07
16:26:36.093750,-9.07
16:26:36.109375,-13.04
16:26:36.125000,-17.59
16:26:36.140625,-23.17
16:26:36.156250,-29.93
16:26:36.171875,-37.84
16:26:36.187500,-46.85
16:26:36.203125,-56.85
16:26:36.218750,-67.40
16:26:36.234375,-77.38
16:26:36.250000,-84.84
16:26:36.265625,-87.37
16:26:36.281250,-83.00
16:26:36.296875,-71.01
16:26:36.312500,-52.53
16:26:36.328125,-30.22
16:26:36.343750,-7.38
16:26:36.359375,13.06
16:26:36.375000,29.39
16:26:36.390625,41.27
16:26:36.406250,49.37
16:26:36.421875,54.64
16:26:36.437500,57.76
16:26:36.453125,58.94
16:26:36.468750,58.08
16:26:36.484375,55.20
16:26:36.500000,50.69
16:26:36.515625,45.33
16:26:36.531250,40.00
16:26:36.546875,35.29
16:26:36.562500,31.31
16:26:36.578125,27.82
16:26:36.593750,24.53
16:26:36.609375,21.35
16:26:36.625000,18.46
16:26:36.640625,16.01
16:26:36.656250,13.87
16:26:36.671875,11.43
16:26:36.687500,7.87
16:26:36.703125,2.52
16:26:36.718750,-4.67
16:26:36.734375,-13.06
16:26:36.750000,-21.49
16:26:36.765625,-28.73
16:26:36.781250,-34.04
16:26:36.796875,-37.35
16:26:36.812500,-39.43
16:26:36.828125,-41.54
16:26:36.843750,-45.09
16:26:36.859375,-51.12
16:26:36.875000,-59.81
16:26:36.890625,-70.20
16:26:36.906250,-80.19
16:26:36.921875,-87.07
16:26:36.937500,-88.33
16:26:36.953125,-82.57
16:26:36.968750,-69.87
16:26:36.984375,-51.78
16:26:37,-30.75
16:26:37.015625,-9.33
16:26:37.031250,10.42
16:26:37.046875,27.15
16:26:37.062500,40.15
16:26:37.078125,49.13
16:26:37.093750,54.03
16:26:37.109375,55.14
16:26:37.125000,53.04
16:26:37.140625,48.68
16:26:37.156250,43.15
16:26:37.171875,37.46
16:26:37.187500,32.33
16:26:37.203125,28.08
16:26:37.218750,24.67
16:26:37.234375,21.77
16:26:37.250000,18.91
16:26:37.265625,15.73
16:26:37.281250,11.98
16:26:37.296875,7.78
16:26:37.312500,3.85
16:26:37.328125,1.48
16:26:37.343750,2.16
16:26:37.359375,6.71
16:26:37.375000,14.59
16:26:37.390625,23.49
16:26:37.406250,30.03
16:26:37.421875,31.05
16:26:37.437500,25.27
16:26:37.453125,13.94
16:26:37.468750,0.26
16:26:37.484375,-12.27
16:26:37.500000,-21.82
16:26:37.515625,-28.92
16:26:37.531250,-35.72
16:26:37.546875,-44.28
16:26:37.562500,-54.97
16:26:37.578125,-66.33
16:26:37.593750,-76.07
16:26:37.609375,-82.57
16:26:37.625000,-85.59
16:26:37.640625,-85.81
16:26:37.656250,-83.55
16:26:37.671875,-78.08
16:26:37.687500,-68.03
16:26:37.703125,-52.54
16:26:37.718750,-32.52
16:26:37.734375,-10.67
16:26:37.750000,9.47
16:26:37.765625,25.27
16:26:37.781250,35.98
16:26:37.796875,42.48
16:26:37.812500,46.25
16:26:37.828125,48.29
16:26:37.843750,48.75
16:26:37.859375,47.37
16:26:37.875000,44.34
16:26:37.890625,40.68
16:26:37.906250,37.98
16:26:37.921875,37.49
16:26:37.937500,39.27
16:26:37.953125,41.93
16:26:37.968750,43.13
16:26:37.984375,40.95
16:26:38,34.98
16:26:38.015625,26.86
16:26:38.031250,19.71
16:26:38.046875,16.45
16:26:38.062500,18.03
16:26:38.078125,22.54
16:26:38.093750,25.95
16:26:38.109375,24.23
16:26:38.125000,15.78
16:26:38.140625,2.52
16:26:38.156250,-10.85
16:26:38.171875,-19.29
16:26:38.187500,-20.06
16:26:38.203125,-14.06
16:26:38.218750,-5.13
16:26:38.234375,2.19
16:26:38.250000,4.91
16:26:38.265625,2.83
16:26:38.281250,-1.97
16:26:38.296875,-6.66
16:26:38.312500,-9.28
16:26:38.328125,-9.33
16:26:38.343750,-7.63
16:26:38.359375,-5.46
16:26:38.375000,-4.02
16:26:38.390625,-4.26
16:26:38.406250,-7.03
16:26:38.421875,-12.96
16:26:38.437500,-22.15
16:26:38.453125,-33.75
16:26:38.468750,-45.80
16:26:38.484375,-55.65
16:26:38.500000,-60.88
16:26:38.515625,-60.23
16:26:38.531250,-54.09
16:26:38.546875,-44.34
16:26:38.562500,-33.53
16:26:38.578125,-23.75
16:26:38.593750,-15.94
16:26:38.609375,-9.60
16:26:38.625000,-3.44
16:26:38.640625,3.75
16:26:38.656250,12.14
16:26:38.671875,20.54
16:26:38.687500,26.85
16:26:38.703125,29.07
16:26:38.718750,26.46
16:26:38.734375,20.02
16:26:38.750000,12.14
16:26:38.765625,5.40
16:26:38.781250,1.36
16:26:38.796875,0.14
16:26:38.812500,0.96
16:26:38.828125,3.15
16:26:38.843750,6.61
16:26:38.859375,11.57
16:26:38.875000,17.91
16:26:38.890625,24.74
16:26:38.906250,30.83
16:26:38.921875,35.51
16:26:38.937500,39.38
16:26:38.953125,43.84
16:26:38.968750,50.13
16:26:38.984375,58.23
16:26:39,66.70
16:26:39.015625,73.53
16:26:39.031250,77.30
16:26:39.046875,77.85
16:26:39.062500,75.87
16:26:39.078125,72.01
16:26:39.093750,66.11
16:26:39.109375,57.35
16:26:39.125000,45.12
16:26:39.140625,29.74
16:26:39.156250,12.54
16:26:39.171875,-4.92
16:26:39.187500,-21.68
16:26:39.203125,-37.74
16:26:39.218750,-53.52
16:26:39.234375,-69.17
16:26:39.250000,-84.06
16:26:39.265625,-96.87
16:26:39.281250,-105.88
16:26:39.296875,-109.43
16:26:39.312500,-106.17
16:26:39.328125,-95.33
16:26:39.343750,-77.04
16:26:39.359375,-52.71
16:26:39.375000,-25.04
16:26:39.390625,2.45
16:26:39.406250,26.35
16:26:39.421875,44.18
16:26:39.437500,54.98
16:26:39.453125,59.17
16:26:39.468750,58.11
16:26:39.484375,53.49
16:26:39.500000,47.03
16:26:39.515625,40.22
16:26:39.531250,34.16
16:26:39.546875,29.40
16:26:39.562500,25.92
16:26:39.578125,23.22
16:26:39.593750,20.86
16:26:39.609375,18.95
16:26:39.625000,18.40
16:26:39.640625,20.61
16:26:39.656250,26.72
16:26:39.671875,36.80
16:26:39.687500,49.48
16:26:39.703125,62.19
16:26:39.718750,71.90
16:26:39.734375,76.05
16:26:39.750000,73.34
16:26:39.765625,63.94
16:26:39.781250,49.51
16:26:39.796875,32.74
16:26:39.812500,16.71
16:26:39.828125,4.12
16:26:39.843750,-3.34
16:26:39.859375,-5.45
16:26:39.875000,-3.46
16:26:39.890625,0.41
16:26:39.906250,3.71
16:26:39.921875,4.69
16:26:39.937500,2.75
16:26:39.953125,-1.56
16:26:39.968750,-7.10
16:26:39.984375,-12.81
16:26:40,-18.20
16:26:40.015625,-23.41
16:26:40.031250,-29.01
16:26:40.046875,-35.58
16:26:40.062500,-43.29
16:26:40.078125,-51.74
16:26:40.093750,-59.80
16:26:40.109375,-65.82
16:26:40.125000,-67.99
16:26:40.140625,-64.88
16:26:40.156250,-56.00
16:26:40.171875,-42.11
16:26:40.187500,-25.19
16:26:40.203125,-7.79
16:26:40.218750,7.64
16:26:40.234375,19.50
16:26:40.250000,27.34
16:26:40.265625,31.69
16:26:40.281250,33.53
16:26:40.296875,33.76
16:26:40.312500,32.94
16:26:40.328125,31.33
16:26:40.343750,29.17
16:26:40.359375,26.78
16:26:40.375000,24.59
16:26:40.390625,22.84
16:26:40.406250,21.45
16:26:40.421875,19.99
16:26:40.437500,17.96
16:26:40.453125,15.12
16:26:40.468750,11.64
16:26:40.484375,8.15
16:26:40.500000,5.36
16:26:40.515625,3.79
16:26:40.531250,3.60
16:26:40.546875,4.55
16:26:40.562500,6.08
16:26:40.578125,7.36
16:26:40.593750,7.40
16:26:40.609375,5.27
16:26:40.625000,0.45
16:26:40.640625,-6.84
16:26:40.656250,-15.54
16:26:40.671875,-24.05
16:26:40.687500,-30.93
16:26:40.703125,-35.50
16:26:40.718750,-38.16
16:26:40.734375,-40.05
16:26:40.750000,-42.47
16:26:40.765625,-46.33
16:26:40.781250,-51.87
16:26:40.796875,-58.71
16:26:40.812500,-66.01
16:26:40.828125,-72.60
16:26:40.843750,-76.99
16:26:40.859375,-77.53
16:26:40.875000,-72.88
16:26:40.890625,-62.56
16:26:40.906250,-47.33
16:26:40.921875,-29.09
16:26:40.937500,-10.17
16:26:40.953125,7.43
16:26:40.968750,22.61
16:26:40.984375,35.10
16:26:41,45.04
16:26:41.015625,52.36
16:26:41.031250,56.66
16:26:41.046875,57.43
16:26:41.062500,54.54
16:26:41.078125,48.51
16:26:41.093750,40.58
16:26:41.109375,32.26
16:26:41.125000,24.92
16:26:41.140625,19.40
16:26:41.156250,15.94
16:26:41.171875,14.21
16:26:41.187500,13.50
16:26:41.203125,13.00
16:26:41.218750,12.02
16:26:41.234375,10.24
16:26:41.250000,7.71
16:26:41.265625,4.70
16:26:41.281250,1.51
16:26:41.296875,-1.79
16:26:41.312500,-5.23
16:26:41.328125,-8.88
16:26:41.343750,-12.59
16:26:41.359375,-15.96
16:26:41.375000,-18.50
16:26:41.390625,-19.92
16:26:41.406250,-20.42
16:26:41.421875,-20.70
16:26:41.437500,-21.73
16:26:41.453125,-24.40
16:26:41.468750,-29.18
16:26:41.484375,-36.03
16:26:41.500000,-44.43
16:26:41.515625,-53.49
16:26:41.531250,-61.95
16:26:41.546875,-68.28
16:26:41.562500,-70.81
16:26:41.578125,-68.24
16:26:41.593750,-60.01
16:26:41.609375,-46.72
16:26:41.625000,-30.08
16:26:41.640625,-12.43
16:26:41.656250,3.95
16:26:41.671875,17.52
16:26:41.687500,27.68
16:26:41.703125,34.55
16:26:41.718750,38.61
16:26:41.734375,40.34
16:26:41.750000,40.13
16:26:41.765625,38.41
16:26:41.781250,35.82
16:26:41.796875,33.15
16:26:41.812500,31.10
16:26:41.828125,29.94
16:26:41.843750,29.41
16:26:41.859375,28.73
16:26:41.875000,27.03
16:26:41.890625,23.74
16:26:41.906250,18.93
16:26:41.921875,13.22
16:26:41.937500,7.62
16:26:41.953125,3.06
16:26:41.968750,0.10
16:26:41.984375,-1.26
16:26:42,-1.57
16:26:42.015625,-1.63
16:26:42.031250,-2.31
16:26:42.046875,-4.25
16:26:42.062500,-7.72
16:26:42.078125,-12.63
16:26:42.093750,-18.58
16:26:42.109375,-25.03
16:26:42.125000,-31.34
16:26:42.140625,-36.96
16:26:42.156250,-41.57
16:26:42.171875,-45.24
16:26:42.187500,-48.42
16:26:42.203125,-51.69
16:26:42.218750,-55.40
16:26:42.234375,-59.21
16:26:42.250000,-61.92
16:26:42.265625,-61.74
16:26:42.281250,-57.07
16:26:42.296875,-47.26
16:26:42.312500,-33.07
16:26:42.328125,-16.42
16:26:42.343750,0.35
16:26:42.359375,15.38
16:26:42.375000,27.84
16:26:42.390625,37.86
16:26:42.406250,45.85
16:26:42.421875,51.89
16:26:42.437500,55.49
16:26:42.453125,55.90
16:26:42.468750,52.80
16:26:42.484375,46.78
16:26:42.500000,39.25
16:26:42.515625,31.90
16:26:42.531250,25.95
16:26:42.546875,21.62
16:26:42.562500,18.29
16:26:42.578125,15.05
16:26:42.593750,11.45
16:26:42.609375,7.72
16:26:42.625000,4.58
16:26:42.640625,2.67
16:26:42.656250,2.05
16:26:42.671875,2.07
16:26:42.687500,1.73
16:26:42.703125,0.24
16:26:42.718750,-2.61
16:26:42.734375,-6.40
16:26:42.750000,-10.47
16:26:42.765625,-14.28
16:26:42.781250,-17.69
16:26:42.796875,-20.88
16:26:42.812500,-24.17
16:26:42.828125,-27.85
16:26:42.843750,-32.16
16:26:42.859375,-37.45
16:26:42.875000,-44.08
16:26:42.890625,-52.10
16:26:42.906250,-60.87
16:26:42.921875,-68.80
16:26:42.937500,-73.61
16:26:42.953125,-73.13
16:26:42.968750,-66.23
16:26:42.984375,-53.36
16:26:43,-36.39
16:26:43.015625,-17.92
16:26:43.031250,-0.25
16:26:43.046875,15.21
16:26:43.062500,28.03
16:26:43.078125,38.33
16:26:43.093750,46.17
16:26:43.109375,51.35
16:26:43.125000,53.49
16:26:43.140625,52.37
16:26:43.156250,48.31
16:26:43.171875,42.17
16:26:43.187500,35.17
16:26:43.203125,28.48
16:26:43.218750,22.92
16:26:43.234375,18.85
16:26:43.250000,16.17
16:26:43.265625,14.63
16:26:43.281250,14.05
16:26:43.296875,14.40
16:26:43.312500,15.65
16:26:43.328125,17.49
16:26:43.343750,19.24
16:26:43.359375,19.87
16:26:43.375000,18.35
16:26:43.390625,14.15
16:26:43.406250,7.45
16:26:43.421875,-0.85
16:26:43.437500,-9.43
16:26:43.453125,-17.05
16:26:43.468750,-22.94
16:26:43.484375,-27.02
16:26:43.500000,-29.94
16:26:43.515625,-32.89
16:26:43.531250,-37.31
16:26:43.546875,-44.26
16:26:43.562500,-53.91
16:26:43.578125,-65.06
16:26:43.593750,-75.24
16:26:43.609375,-81.31
16:26:43.625000,-80.58
16:26:43.640625,-71.67
16:26:43.656250,-55.13
16:26:43.671875,-33.17
16:26:43.687500,-9.05
16:26:43.703125,13.82
16:26:43.718750,32.74
16:26:43.734375,46.14
16:26:43.750000,53.69
16:26:43.765625,56.02
16:26:43.781250,54.25
16:26:43.796875,49.51
16:26:43.812500,42.58
16:26:43.828125,34.01
16:26:43.843750,24.34
16:26:43.859375,14.42
16:26:43.875000,5.35
16:26:43.890625,-1.68
16:26:43.906250,-5.99
16:26:43.921875,-7.65
16:26:43.937500,-7.32
16:26:43.953125,-5.84
16:26:43.968750,-3.62
16:26:43.984375,-0.57
16:26:44,3.61
16:26:44.015625,8.75
16:26:44.031250,13.76
16:26:44.046875,16.84
16:26:44.062500,16.30
16:26:44.078125,11.53
16:26:44.093750,3.51
16:26:44.109375,-5.37
16:26:44.125000,-12.29
16:26:44.140625,-15.17
16:26:44.156250,-13.54
16:26:44.171875,-8.76
16:26:44.187500,-3.56
16:26:44.203125,-1.14
16:26:44.218750,-4.19
16:26:44.234375,-13.90
16:26:44.250000,-29.39
16:26:44.265625,-47.59
16:26:44.281250,-63.87
16:26:44.296875,-73.29
16:26:44.312500,-72.20
16:26:44.328125,-59.51
16:26:44.343750,-37.13
16:26:44.359375,-9.42
16:26:44.375000,18.20
16:26:44.390625,40.96
16:26:44.406250,55.98
16:26:44.421875,62.77
16:26:44.437500,62.97
16:26:44.453125,59.38
16:26:44.468750,54.98
16:26:44.484375,51.95
16:26:44.500000,51.24
16:26:44.515625,52.50
16:26:44.531250,54.51
16:26:44.546875,55.86
16:26:44.562500,55.41
16:26:44.578125,52.73
16:26:44.593750,48.04
16:26:44.609375,41.96
16:26:44.625000,35.35
16:26:44.640625,29.14
16:26:44.656250,24.13
16:26:44.671875,20.89
16:26:44.687500,19.48
16:26:44.703125,19.30
16:26:44.718750,19.06
16:26:44.734375,17.09
16:26:44.750000,12.01
16:26:44.765625,3.32
16:26:44.781250,-8.19
16:26:44.796875,-20.62
16:26:44.812500,-31.74
16:26:44.828125,-39.84
16:26:44.843750,-44.52
16:26:44.859375,-46.77
16:26:44.875000,-48.46
16:26:44.890625,-51.41
16:26:44.906250,-56.50
16:26:44.921875,-63.20
16:26:44.937500,-69.58
16:26:44.953125,-72.97
16:26:44.968750,-70.75
16:26:44.984375,-61.35
16:26:45,-44.83
16:26:45.015625,-23.00
16:26:45.031250,0.99
16:26:45.046875,23.60
16:26:45.062500,42.02
16:26:45.078125,54.90
16:26:45.093750,62.41
16:26:45.109375,65.71
16:26:45.125000,66.11
16:26:45.140625,64.49
16:26:45.156250,61.08
16:26:45.171875,55.89
16:26:45.187500,49.08
16:26:45.203125,41.18
16:26:45.218750,33.06
16:26:45.234375,25.54
16:26:45.250000,19.06
16:26:45.265625,13.66
16:26:45.281250,9.20
16:26:45.296875,5.54
16:26:45.312500,2.71
16:26:45.328125,0.86
16:26:45.343750,-0.05
16:26:45.359375,-0.40
16:26:45.375000,-0.96
16:26:45.390625,-2.67
16:26:45.406250,-6.25
16:26:45.421875,-11.89
16:26:45.437500,-19.12
16:26:45.453125,-27.05
16:26:45.468750,-34.70
16:26:45.484375,-41.40
16:26:45.500000,-47.07
16:26:45.515625,-52.29
16:26:45.531250,-58.12
16:26:45.546875,-65.54
16:26:45.562500,-74.90
16:26:45.578125,-85.23
16:26:45.593750,-94.22
16:26:45.609375,-98.70
16:26:45.625000,-95.81
16:26:45.640625,-84.23
16:26:45.656250,-64.91
16:26:45.671875,-40.85
16:26:45.687500,-16.01
16:26:45.703125,6.00
16:26:45.718750,23.02
16:26:45.734375,34.49
16:26:45.750000,41.00
16:26:45.765625,43.55
16:26:45.781250,42.96
16:26:45.796875,39.89
16:26:45.812500,34.95
16:26:45.828125,29.01
16:26:45.843750,23.08
16:26:45.859375,18.08
16:26:45.875000,14.58
16:26:45.890625,12.62
16:26:45.906250,11.86
16:26:45.921875,11.72
16:26:45.937500,11.64
16:26:45.953125,11.18
16:26:45.968750,10.09
16:26:45.984375,8.31
16:26:46,5.90
16:26:46.015625,3.04
16:26:46.031250,0.01
16:26:46.046875,-2.80
16:26:46.062500,-5.12
16:26:46.078125,-7.02
16:26:46.093750,-9.14
16:26:46.109375,-12.83
16:26:46.125000,-19.75
16:26:46.140625,-31.45
16:26:46.156250,-48.31
16:26:46.171875,-68.90
16:26:46.187500,-89.76
16:26:46.203125,-105.99
16:26:46.218750,-112.69
16:26:46.234375,-106.74
16:26:46.250000,-88.03
16:26:46.265625,-59.75
16:26:46.281250,-27.35
16:26:46.296875,3.34
16:26:46.312500,27.98
16:26:46.328125,44.78
16:26:46.343750,54.37
16:26:46.359375,58.94
16:26:46.375000,60.87
16:26:46.390625,61.97
16:26:46.406250,63.10
16:26:46.421875,64.39
16:26:46.437500,65.63
16:26:46.453125,66.33
16:26:46.468750,65.89
16:26:46.484375,63.78
16:26:46.500000,59.84
16:26:46.515625,54.56
16:26:46.531250,49.04
16:26:46.546875,44.67
16:26:46.562500,42.46
16:26:46.578125,42.53
16:26:46.593750,44.09
16:26:46.609375,45.87
16:26:46.625000,46.90
16:26:46.640625,47.16
16:26:46.656250,47.56
16:26:46.671875,49.29
16:26:46.687500,53.00
16:26:46.703125,58.05
16:26:46.718750,62.56
16:26:46.734375,64.10
16:26:46.750000,60.56
16:26:46.765625,50.72
16:26:46.781250,34.51
16:26:46.796875,12.80
16:26:46.812500,-12.56
16:26:46.828125,-38.64
16:26:46.843750,-61.42
16:26:46.859375,-76.46
16:26:46.875000,-80.26
16:26:46.890625,-71.79
16:26:46.906250,-53.41
16:26:46.921875,-30.24
16:26:46.937500,-8.20
16:26:46.953125,8.35
16:26:46.968750,18.06
16:26:46.984375,22.36
16:26:47,24.18
16:26:47.015625,26.06
16:26:47.031250,29.27
16:26:47.046875,33.90
16:26:47.062500,39.55
16:26:47.078125,45.89
16:26:47.093750,52.57
16:26:47.109375,58.70
16:26:47.125000,62.50
16:26:47.140625,61.64
16:26:47.156250,54.17
16:26:47.171875,39.62
16:26:47.187500,19.84
16:26:47.203125,-1.39
16:26:47.218750,-19.53
16:26:47.234375,-30.76
16:26:47.250000,-33.29
16:26:47.265625,-27.67
16:26:47.281250,-16.23
16:26:47.296875,-1.95
16:26:47.312500,12.63
16:26:47.328125,25.92
16:26:47.343750,37.20
16:26:47.359375,46.19
16:26:47.375000,52.69
16:26:47.390625,56.44
16:26:47.406250,57.20
16:26:47.421875,54.70
16:26:47.437500,48.68
16:26:47.453125,38.63
16:26:47.468750,23.93
16:26:47.484375,4.20
16:26:47.500000,-19.96
16:26:47.515625,-46.44
16:26:47.531250,-71.55
16:26:47.546875,-90.78
16:26:47.562500,-100.05
16:26:47.578125,-97.13
16:26:47.593750,-82.61
16:26:47.609375,-59.96
16:26:47.625000,-34.56
16:26:47.640625,-11.92
16:26:47.656250,4.39
16:26:47.671875,13.85
16:26:47.687500,18.85
16:26:47.703125,22.94
16:26:47.718750,28.43
16:26:47.734375,34.72
16:26:47.750000,38.70
16:26:47.765625,37.11
16:26:47.781250,29.14
16:26:47.796875,17.41
16:26:47.812500,6.53
16:26:47.828125,-0.07
16:26:47.843750,-2.50
16:26:47.859375,-4.24
16:26:47.875000,-9.19
16:26:47.890625,-18.03
16:26:47.906250,-26.52
16:26:47.921875,-27.32
16:26:47.937500,-14.16
16:26:47.953125,14.14
16:26:47.968750,52.56
16:26:47.984375,92.31
16:26:48,125.06
16:26:48.015625,146.15
16:26:48.031250,155.25
16:26:48.046875,154.37
16:26:48.062500,145.37
16:26:48.078125,128.69
16:26:48.093750,103.76
16:26:48.109375,70.46
16:26:48.125000,30.11
16:26:48.140625,-14.92
16:26:48.156250,-62.60
16:26:48.171875,-112.54
16:26:48.187500,-166.07
16:26:48.203125,-224.65
16:26:48.218750,-287.50
16:26:48.234375,-350.16
16:26:48.250000,-405.05
16:26:48.265625,-443.94
16:26:48.281250,-461.23
16:26:48.296875,-456.40
16:26:48.312500,-434.10
16:26:48.328125,-402.06
16:26:48.343750,-367.97
16:26:48.359375,-336.90
16:26:48.375000,-310.48
16:26:48.390625,-287.92
16:26:48.406250,-267.63
16:26:48.421875,-248.60
16:26:48.437500,-230.55
16:26:48.453125,-213.39
16:26:48.468750,-196.56
16:26:48.484375,-179.01
16:26:48.500000,-159.79
16:26:48.515625,-138.76
16:26:48.531250,-116.83
16:26:48.546875,-95.53
16:26:48.562500,-76.34
16:26:48.578125,-59.85
16:26:48.593750,-45.55
16:26:48.609375,-32.15
16:26:48.625000,-18.36
16:26:48.640625,-3.57
16:26:48.656250,11.80
16:26:48.671875,26.71
16:26:48.687500,39.98
16:26:48.703125,51.20
16:26:48.718750,61.07
16:26:48.734375,71.26
16:26:48.750000,83.89
16:26:48.765625,100.78
16:26:48.781250,122.64
16:26:48.796875,148.57
16:26:48.812500,175.84
16:26:48.828125,200.60
16:26:48.843750,219.24
16:26:48.859375,230.01
16:26:48.875000,234.25
16:26:48.890625,236.46
16:26:48.906250,242.83
16:26:48.921875,258.81
16:26:48.937500,286.59
16:26:48.953125,323.85
16:26:48.968750,364.47
16:26:48.984375,400.78
16:26:49,426.46
16:26:49.015625,438.42
16:26:49.031250,437.06
16:26:49.046875,424.84
16:26:49.062500,404.44
16:26:49.078125,377.50
16:26:49.093750,344.48
16:26:49.109375,305.53
16:26:49.125000,261.62
16:26:49.140625,215.19
16:26:49.156250,170.08
16:26:49.171875,130.89
16:26:49.187500,101.75
16:26:49.203125,85.49
16:26:49.218750,82.86
16:26:49.234375,92.25
16:26:49.250000,109.78
16:26:49.265625,129.88
16:26:49.281250,146.53
16:26:49.296875,154.98
16:26:49.312500,152.99
16:26:49.328125,141.19
16:26:49.343750,122.23
16:26:49.359375,99.20
16:26:49.375000,73.53
16:26:49.390625,44.18
16:26:49.406250,8.18
16:26:49.421875,-37.53
16:26:49.437500,-93.61
16:26:49.453125,-156.83
16:26:49.468750,-220.22
16:26:49.484375,-275.14
16:26:49.500000,-314.11
16:26:49.515625,-333.69
16:26:49.531250,-335.53
16:26:49.546875,-325.25
16:26:49.562500,-309.63
16:26:49.578125,-293.80
16:26:49.593750,-279.70
16:26:49.609375,-266.70
16:26:49.625000,-253.19
16:26:49.640625,-237.83
16:26:49.656250,-220.97
16:26:49.671875,-204.41
16:26:49.687500,-190.29
16:26:49.703125,-179.82
16:26:49.718750,-172.91
16:26:49.734375,-168.62
16:26:49.750000,-166.07
16:26:49.765625,-164.82
16:26:49.781250,-163.20
16:26:49.796875,-159.65
16:26:49.812500,-153.15
16:26:49.828125,-143.54
16:26:49.843750,-131.14
16:26:49.859375,-116.24
16:26:49.875000,-98.86
16:26:49.890625,-78.85
16:26:49.906250,-56.20
16:26:49.921875,-28.25
16:26:49.937500,6.50
16:26:49.953125,46.71
16:26:49.968750,88.18
16:26:49.984375,126.10
16:26:50,157.69
16:26:50.015625,183.34
16:26:50.031250,205.87
16:26:50.046875,228.44
16:26:50.062500,257.91
16:26:50.078125,299.08
16:26:50.093750,352.54
16:26:50.109375,414.71
16:26:50.125000,480.16
16:26:50.140625,543.29
16:26:50.156250,598.32
16:26:50.171875,639.09
16:26:50.187500,660.07
16:26:50.203125,665.89
16:26:50.218750,666.68
16:26:50.234375,673.25
16:26:50.250000,691.88
16:26:50.265625,721.85
16:26:50.281250,756.56
16:26:50.296875,786.56
16:26:50.312500,803.68
16:26:50.328125,763.86
16:26:50.343750,645.54
16:26:50.359375,458.33
16:26:50.375000,239.79
16:26:50.390625,32.30
16:26:50.406250,-139.14
16:26:50.421875,-269.87
16:26:50.437500,-366.05
16:26:50.453125,-435.63
16:26:50.468750,-483.39
16:26:50.484375,-512.59
16:26:50.500000,-525.69
16:26:50.515625,-528.42
16:26:50.531250,-530.49
16:26:50.546875,-541.40
16:26:50.562500,-565.44
16:26:50.578125,-599.94
16:26:50.593750,-629.56
16:26:50.609375,-639.58
16:26:50.625000,-617.64
16:26:50.640625,-562.58
16:26:50.656250,-485.75
16:26:50.671875,-405.46
16:26:50.687500,-338.00
16:26:50.703125,-291.09
16:26:50.718750,-263.13
16:26:50.734375,-247.41
16:26:50.750000,-238.32
16:26:50.765625,-230.37
16:26:50.781250,-220.64
16:26:50.796875,-208.93
16:26:50.812500,-196.67
16:26:50.828125,-185.06
16:26:50.843750,-174.10
16:26:50.859375,-162.84
16:26:50.875000,-150.65
16:26:50.890625,-138.72
16:26:50.906250,-127.77
16:26:50.921875,-117.91
16:26:50.937500,-108.66
16:26:50.953125,-99.56
16:26:50.968750,-90.12
16:26:50.984375,-79.80
16:26:51,-68.04
16:26:51.015625,-55.16
16:26:51.031250,-43.01
16:26:51.046875,-33.36
16:26:51.062500,-27.32
16:26:51.078125,-24.65
16:26:51.093750,-24.31
16:26:51.109375,-24.72
16:26:51.125000,-24.31
16:26:51.140625,-21.57
16:26:51.156250,-16.16
16:26:51.171875,-9.10
16:26:51.187500,-2.03
16:26:51.203125,3.88
16:26:51.218750,9.36
16:26:51.234375,16.29
16:26:51.250000,27.61
16:26:51.265625,42.95
16:26:51.281250,62.58
16:26:51.296875,85.86
16:26:51.312500,110.85
16:26:51.328125,135.03
16:26:51.343750,155.96
16:26:51.359375,173.26
16:26:51.375000,187.23
16:26:51.390625,198.78
16:26:51.406250,209.16
16:26:51.421875,220.44
16:26:51.437500,235.03
16:26:51.453125,255.19
16:26:51.468750,282.05
16:26:51.484375,314.26
16:26:51.500000,348.47
16:26:51.515625,377.71
16:26:51.531250,393.71
16:26:51.546875,390.23
16:26:51.562500,366.18
16:26:51.578125,325.80
16:26:51.593750,276.70
16:26:51.609375,226.60
16:26:51.625000,171.73
16:26:51.640625,111.06
16:26:51.656250,45.04
16:26:51.671875,-22.82
16:26:51.687500,-86.68
16:26:51.703125,-140.33
16:26:51.718750,-179.77
16:26:51.734375,-204.74
16:26:51.750000,-218.34
16:26:51.765625,-225.44
16:26:51.781250,-229.24
16:26:51.796875,-232.30
16:26:51.812500,-235.58
16:26:51.828125,-238.57
16:26:51.843750,-241.02
16:26:51.859375,-242.24
16:26:51.875000,-242.51
16:26:51.890625,-243.06
16:26:51.906250,-245.44
16:26:51.921875,-249.95
16:26:51.937500,-257.55
16:26:51.953125,-269.27
16:26:51.968750,-285.96
16:26:51.984375,-307.49
16:26:52,-331.55
16:26:52.015625,-353.55
16:26:52.031250,-367.38
16:26:52.046875,-367.35
16:26:52.062500,-346.59
16:26:52.078125,-304.60
16:26:52.093750,-246.68
16:26:52.109375,-181.83
16:26:52.125000,-119.36
16:26:52.140625,-65.48
16:26:52.156250,-22.08
16:26:52.171875,12.65
16:26:52.187500,42.22
16:26:52.203125,70.11
16:26:52.218750,97.68
16:26:52.234375,125.00
16:26:52.250000,151.78
16:26:52.265625,177.95
16:26:52.281250,203.91
16:26:52.296875,230.16
16:26:52.312500,256.93
16:26:52.328125,284.32
16:26:52.343750,312.59
16:26:52.359375,342.32
16:26:52.375000,374.76
16:26:52.390625,410.90
16:26:52.406250,449.77
16:26:52.421875,487.14
16:26:52.437500,515.48
16:26:52.453125,526.10
16:26:52.468750,512.44
16:26:52.484375,473.14
16:26:52.500000,412.92
16:26:52.515625,341.55
16:26:52.531250,270.55
16:26:52.546875,209.62
16:26:52.562500,164.42
16:26:52.578125,136.08
16:26:52.593750,122.20
16:26:52.609375,118.31
16:26:52.625000,119.05
16:26:52.640625,118.98
16:26:52.656250,113.69
16:26:52.671875,100.72
16:26:52.687500,80.32
16:26:52.703125,55.03
16:26:52.718750,28.35
16:26:52.734375,2.74
16:26:52.750000,-21.63
16:26:52.765625,-46.97
16:26:52.781250,-76.71
16:26:52.796875,-113.59
16:26:52.812500,-158.48
16:26:52.828125,-210.18
16:26:52.843750,-266.20
16:26:52.859375,-323.67
16:26:52.875000,-379.76
16:26:52.890625,-431.59
16:26:52.906250,-475.69
16:26:52.921875,-508.11
16:26:52.937500,-525.11
16:26:52.953125,-524.22
16:26:52.968750,-505.38
16:26:52.984375,-471.11
16:26:53,-425.60
16:26:53.015625,-373.08
16:26:53.031250,-316.57
16:26:53.046875,-257.85
16:26:53.062500,-198.70
16:26:53.078125,-142.67
16:26:53.093750,-95.80
16:26:53.109375,-65.19
16:26:53.125000,-55.60
16:26:53.140625,-66.15
16:26:53.156250,-89.08
16:26:53.171875,-112.31
16:26:53.187500,-124.81
16:26:53.203125,-121.85
16:26:53.218750,-107.10
16:26:53.234375,-89.98
16:26:53.250000,-79.60
16:26:53.265625,-79.08
16:26:53.281250,-83.59
16:26:53.296875,-83.20
16:26:53.312500,-68.72
16:26:53.328125,-36.75
16:26:53.343750,8.78
16:26:53.359375,59.25
16:26:53.375000,105.91
16:26:53.390625,143.64
16:26:53.406250,172.04
16:26:53.421875,193.84
16:26:53.437500,212.14
16:26:53.453125,228.53
16:26:53.468750,242.59
16:26:53.484375,252.52
16:26:53.500000,256.24
16:26:53.515625,252.07
16:26:53.531250,239.13
16:26:53.546875,217.53
16:26:53.562500,188.42
16:26:53.578125,153.86
16:26:53.593750,116.43
16:26:53.609375,78.72
16:26:53.625000,42.88
16:26:53.640625,10.56
16:26:53.656250,-16.91
16:26:53.671875,-38.35
16:26:53.687500,-53.05
16:26:53.703125,-61.43
16:26:53.718750,-65.36
16:26:53.734375,-67.76
16:26:53.750000,-71.38
16:26:53.765625,-77.25
16:26:53.781250,-83.88
16:26:53.796875,-87.76
16:26:53.812500,-85.02
16:26:53.828125,-73.52
16:26:53.843750,-53.97
16:26:53.859375,-29.87
16:26:53.875000,-5.99
16:26:53.890625,13.45
16:26:53.906250,26.19
16:26:53.921875,32.41
16:26:53.937500,34.08
16:26:53.953125,33.92
16:26:53.968750,34.32
16:26:53.984375,36.71
16:26:54,41.39
16:26:54.015625,47.89
16:26:54.031250,55.48
16:26:54.046875,63.56
16:26:54.062500,71.90
16:26:54.078125,80.49
16:26:54.093750,89.25
16:26:54.109375,97.67
16:26:54.125000,104.93
16:26:54.140625,110.20
16:26:54.156250,113.06
16:26:54.171875,113.85
16:26:54.187500,113.61
16:26:54.203125,113.51
16:26:54.218750,114.18
16:26:54.234375,115.29
16:26:54.250000,115.67
16:26:54.265625,113.97
16:26:54.281250,109.38
16:26:54.296875,102.07
16:26:54.312500,93.04
16:26:54.328125,83.48
16:26:54.343750,74.29
16:26:54.359375,65.87
16:26:54.375000,58.51
16:26:54.390625,52.84
16:26:54.406250,50.04
16:26:54.421875,51.59
16:26:54.437500,58.47
16:26:54.453125,70.40
16:26:54.468750,85.68
16:26:54.484375,101.61
16:26:54.500000,115.48
16:26:54.515625,125.52
16:26:54.531250,131.31
16:26:54.546875,133.61
16:26:54.562500,133.69
16:26:54.578125,132.59
16:26:54.593750,130.68
16:26:54.609375,127.64
16:26:54.625000,122.76
16:26:54.640625,115.38
16:26:54.656250,105.25
16:26:54.671875,92.66
16:26:54.687500,78.36
16:26:54.703125,63.35
16:26:54.718750,48.57
16:26:54.734375,34.63
16:26:54.750000,21.90
16:26:54.765625,10.56
16:26:54.781250,0.81
16:26:54.796875,-7.08
16:26:54.812500,-12.83
16:26:54.828125,-16.47
16:26:54.843750,-18.65
16:26:54.859375,-20.69
16:26:54.875000,-24.27
16:26:54.890625,-30.89
16:26:54.906250,-41.27
16:26:54.921875,-54.96
16:26:54.937500,-70.47
16:26:54.953125,-85.63
16:26:54.968750,-98.19
16:26:54.984375,-106.24
16:26:55,-108.38
16:26:55.015625,-103.87
16:26:55.031250,-92.77
16:26:55.046875,-76.19
16:26:55.062500,-56.26
16:26:55.078125,-35.86
16:26:55.093750,-17.86
16:26:55.109375,-4.29
16:26:55.125000,4.16
16:26:55.140625,7.98
16:26:55.156250,8.19
16:26:55.171875,5.50
16:26:55.187500,-0.12
16:26:55.203125,-9.18
16:26:55.218750,-22.05
16:26:55.234375,-38.36
16:26:55.250000,-56.87
16:26:55.265625,-75.83
16:26:55.281250,-93.63
16:26:55.296875,-109.36
16:26:55.312500,-122.88
16:26:55.328125,-134.62
16:26:55.343750,-145.33
16:26:55.359375,-155.79
16:26:55.375000,-166.61
16:26:55.390625,-177.95
16:26:55.406250,-189.27
16:26:55.421875,-199.30
16:26:55.437500,-206.47
16:26:55.453125,-209.45
16:26:55.468750,-207.94
16:26:55.484375,-202.94
16:26:55.500000,-196.53
16:26:55.515625,-191.22
16:26:55.531250,-189.16
16:26:55.546875,-191.53
16:26:55.562500,-198.31
16:26:55.578125,-208.17
16:26:55.593750,-218.66
16:26:55.609375,-226.62
16:26:55.625000,-228.82
16:26:55.640625,-222.92
16:26:55.656250,-208.15
16:26:55.671875,-185.65
16:26:55.687500,-158.03
16:26:55.703125,-128.25
16:26:55.718750,-98.44
16:26:55.734375,-69.27
16:26:55.750000,-40.08
16:26:55.765625,-9.72
16:26:55.781250,22.53
16:26:55.796875,56.31
16:26:55.812500,90.14
16:26:55.828125,121.84
16:26:55.843750,149.19
16:26:55.859375,170.38
16:26:55.875000,184.31
16:26:55.890625,190.74
16:26:55.906250,190.29
16:26:55.921875,184.32
16:26:55.937500,174.71
16:26:55.953125,163.52
16:26:55.968750,152.50
16:26:55.984375,142.71
16:26:56,134.28
16:26:56.015625,126.53
16:26:56.031250,118.38
16:26:56.046875,108.83
16:26:56.062500,97.32
16:26:56.078125,83.82
16:26:56.093750,68.73
16:26:56.109375,52.87
16:26:56.125000,37.33
16:26:56.140625,23.47
16:26:56.156250,12.79
16:26:56.171875,6.61
16:26:56.187500,5.50
16:26:56.203125,8.98
16:26:56.218750,15.49
16:26:56.234375,22.90
16:26:56.250000,29.32
16:26:56.265625,33.73
16:26:56.281250,36.26
16:26:56.296875,37.75
16:26:56.312500,39.05
16:26:56.328125,40.44
16:26:56.343750,41.48
16:26:56.359375,41.34
16:26:56.375000,39.36
16:26:56.390625,35.55
16:26:56.406250,30.55
16:26:56.421875,25.29
16:26:56.437500,20.59
16:26:56.453125,16.78
16:26:56.468750,13.76
16:26:56.484375,11.19
16:26:56.500000,8.80
16:26:56.515625,6.57
16:26:56.531250,4.67
16:26:56.546875,3.32
16:26:56.562500,2.56
16:26:56.578125,2.14
16:26:56.593750,1.44
16:26:56.609375,-0.38
16:26:56.625000,-4.20
16:26:56.640625,-10.61
16:26:56.656250,-19.68
16:26:56.671875,-30.72
16:26:56.687500,-42.37
16:26:56.703125,-52.86
16:26:56.718750,-60.46
16:26:56.734375,-63.94
16:26:56.750000,-62.85
16:26:56.765625,-57.55
16:26:56.781250,-49.04
16:26:56.796875,-38.61
16:26:56.812500,-27.58
16:26:56.828125,-17.13
16:26:56.843750,-8.12
16:26:56.859375,-1.15
16:26:56.875000,3.45
16:26:56.890625,5.62
16:26:56.906250,5.48
16:26:56.921875,3.34
16:26:56.937500,-0.40
16:26:56.953125,-5.18
16:26:56.968750,-10.31
16:26:56.984375,-15.14
16:26:57,-19.10
16:26:57.015625,-21.92
16:26:57.031250,-23.58
16:26:57.046875,-24.28
16:26:57.062500,-24.30
16:26:57.078125,-23.79
16:26:57.093750,-22.83
16:26:57.109375,-21.39
16:26:57.125000,-19.55
16:26:57.140625,-17.61
16:26:57.156250,-16.02
16:26:57.171875,-15.37
16:26:57.187500,-16.21
16:26:57.203125,-18.94
16:26:57.218750,-23.64
16:26:57.234375,-30.02
16:26:57.250000,-37.26
16:26:57.265625,-44.05
16:26:57.281250,-48.80
16:26:57.296875,-49.95
16:26:57.312500,-46.52
16:26:57.328125,-38.46
16:26:57.343750,-26.73
16:26:57.359375,-13.00
16:26:57.375000,0.83
16:26:57.390625,13.20
16:26:57.406250,23.16
16:26:57.421875,30.38
16:26:57.437500,34.95
16:26:57.453125,37.10
16:26:57.468750,37.06
16:26:57.484375,35.14
16:26:57.500000,31.81
16:26:57.515625,27.78
16:26:57.531250,23.84
16:26:57.546875,20.73
16:26:57.562500,18.82
16:26:57.578125,18.01
16:26:57.593750,17.80
16:26:57.609375,17.53
16:26:57.625000,16.67
16:26:57.640625,15.08
16:26:57.656250,12.99
16:26:57.671875,10.82
16:26:57.687500,8.85
16:26:57.703125,6.99
16:26:57.718750,4.73
16:26:57.734375,1.29
16:26:57.750000,-4.09
16:26:57.765625,-11.84
16:26:57.781250,-21.78
16:26:57.796875,-33.03
16:26:57.812500,-44.03
16:26:57.828125,-52.83
16:26:57.843750,-57.50
16:26:57.859375,-56.65
16:26:57.875000,-49.88
16:26:57.890625,-37.98
16:26:57.906250,-22.63
16:26:57.921875,-5.98
16:26:57.937500,10.06
16:26:57.953125,24.21
16:26:57.968750,35.93
16:26:57.984375,45.12
16:26:58,51.79
16:26:58.015625,55.74
16:26:58.031250,56.67
16:26:58.046875,54.45
16:26:58.062500,49.45
16:26:58.078125,42.61
16:26:58.093750,35.25
16:26:58.109375,28.59
16:26:58.125000,23.33
16:26:58.140625,19.50
16:26:58.156250,16.61
16:26:58.171875,14.02
16:26:58.187500,11.33
16:26:58.203125,8.57
16:26:58.218750,6.00
16:26:58.234375,3.87
16:26:58.250000,2.10
16:26:58.265625,0.23
16:26:58.281250,-2.44
16:26:58.296875,-6.59
16:26:58.312500,-12.71
16:26:58.328125,-20.90
16:26:58.343750,-30.84
16:26:58.359375,-41.64
16:26:58.375000,-51.90
16:26:58.390625,-59.84
16:26:58.406250,-63.63
16:26:58.421875,-61.98
16:26:58.437500,-54.58
16:26:58.453125,-42.33
16:26:58.468750,-27.10
16:26:58.484375,-11.15
16:26:58.500000,3.58
16:26:58.515625,15.94
16:26:58.531250,25.67
16:26:58.546875,33.06
16:26:58.562500,38.48
16:26:58.578125,42.10
16:26:58.593750,43.79
16:26:58.609375,43.37
16:26:58.625000,40.90
16:26:58.640625,36.84
16:26:58.656250,32.00
16:26:58.671875,27.23
16:26:58.687500,23.02
16:26:58.703125,19.34
16:26:58.718750,15.70
16:26:58.734375,11.54
16:26:58.750000,6.55
16:26:58.765625,0.96
16:26:58.781250,-4.58
16:26:58.796875,-9.34
16:26:58.812500,-12.96
16:26:58.828125,-15.67
16:26:58.843750,-18.27
16:26:58.859375,-21.83
16:26:58.875000,-27.31
16:26:58.890625,-35.24
16:26:58.906250,-45.58
16:26:58.921875,-57.65
16:26:58.937500,-70.17
16:26:58.953125,-81.33
16:26:58.968750,-88.96
16:26:58.984375,-90.97
16:26:59,-85.90
16:26:59.015625,-73.44
16:26:59.031250,-54.60
16:26:59.046875,-31.52
16:26:59.062500,-6.87
16:26:59.078125,16.81
16:26:59.093750,37.69
16:26:59.109375,54.82
16:26:59.125000,67.90
16:26:59.140625,77.10
16:26:59.156250,82.61
16:26:59.171875,84.66
16:26:59.187500,83.48
16:26:59.203125,79.47
16:26:59.218750,73.24
16:26:59.234375,65.61
16:26:59.250000,57.50
16:26:59.265625,49.73
16:26:59.281250,42.86
16:26:59.296875,37.07
16:26:59.312500,32.19
16:26:59.328125,27.86
16:26:59.343750,23.70
16:26:59.359375,19.55
16:26:59.375000,15.45
16:26:59.390625,11.60
16:26:59.406250,8.15
16:26:59.421875,5.09
16:26:59.437500,2.13
16:26:59.453125,-1.12
16:26:59.468750,-5.03
16:26:59.484375,-9.91
16:26:59.500000,-15.90
16:26:59.515625,-22.96
16:26:59.531250,-30.78
16:26:59.546875,-38.69
16:26:59.562500,-45.52
16:26:59.578125,-49.71
16:26:59.593750,-49.69
16:26:59.609375,-44.39
16:26:59.625000,-33.79
16:26:59.640625,-19.00
16:26:59.656250,-2.07
16:26:59.671875,14.58
16:26:59.687500,28.91
16:26:59.703125,39.63
16:26:59.718750,46.39
16:26:59.734375,49.53
16:26:59.750000,49.78
16:26:59.765625,47.94
16:26:59.781250,44.73
16:26:59.796875,40.72
16:26:59.812500,36.35
16:26:59.828125,32.04
16:26:59.843750,28.14
16:26:59.859375,25.00
16:26:59.875000,22.85
16:26:59.890625,21.82
16:26:59.906250,21.79
16:26:59.921875,22.44
16:26:59.937500,23.24
16:26:59.953125,23.62
16:26:59.968750,23.12
16:26:59.984375,21.50
16:27:00,18.74
16:27:00.015625,15.07
16:27:00.031250,10.79
16:27:00.046875,6.17
16:27:00.062500,1.44
16:27:00.078125,-3.35
16:27:00.093750,-8.23
16:27:00.109375,-13.38
16:27:00.125000,-19.06
16:27:00.140625,-25.54
16:27:00.156250,-32.85
16:27:00.171875,-40.59
16:27:00.187500,-47.76
16:27:00.203125,-52.84
16:27:00.218750,-54.22
16:27:00.234375,-50.72
16:27:00.250000,-42.11
16:27:00.265625,-29.27
16:27:00.281250,-13.97
16:27:00.296875,1.67
16:27:00.312500,15.76
16:27:00.328125,27.10
16:27:00.343750,35.26
16:27:00.359375,40.44
16:27:00.375000,43.15
16:27:00.390625,43.98
16:27:00.406250,43.39
16:27:00.421875,41.72
16:27:00.437500,39.14
16:27:00.453125,35.76
16:27:00.468750,31.68
16:27:00.484375,27.12
16:27:00.500000,22.42
16:27:00.515625,18.05
16:27:00.531250,14.46
16:27:00.546875,11.84
16:27:00.562500,10.10
16:27:00.578125,8.74
16:27:00.593750,7.10
16:27:00.609375,4.55
16:27:00.625000,0.75
16:27:00.640625,-4.16
16:27:00.656250,-9.74
16:27:00.671875,-15.36
16:27:00.687500,-20.45
16:27:00.703125,-24.71
16:27:00.718750,-28.07
16:27:00.734375,-30.69
16:27:00.750000,-32.89
16:27:00.765625,-35.08
16:27:00.781250,-37.78
16:27:00.796875,-41.46
16:27:00.812500,-46.38
16:27:00.828125,-52.30
16:27:00.843750,-58.31
16:27:00.859375,-62.90
16:27:00.875000,-64.32
16:27:00.890625,-61.23
16:27:00.906250,-53.23
16:27:00.921875,-41.15
16:27:00.937500,-26.84
16:27:00.953125,-12.53
16:27:00.968750,-0.23
16:27:00.984375,8.92
16:27:01,14.68
16:27:01.015625,17.51
16:27:01.031250,18.16
16:27:01.046875,17.28
16:27:01.062500,15.26
16:27:01.078125,12.35
16:27:01.093750,8.82
16:27:01.109375,5.11
16:27:01.125000,1.74
16:27:01.140625,-0.73
16:27:01.156250,-2.00
16:27:01.171875,-2.07
16:27:01.187500,-1.21
16:27:01.203125,0.20
16:27:01.218750,1.79
16:27:01.234375,3.30
16:27:01.250000,4.61
16:27:01.265625,5.55
16:27:01.281250,5.94
16:27:01.296875,5.50
16:27:01.312500,4.02
16:27:01.328125,1.45
16:27:01.343750,-2.00
16:27:01.359375,-5.90
16:27:01.375000,-9.77
16:27:01.390625,-13.26
16:27:01.406250,-16.34
16:27:01.421875,-19.32
16:27:01.437500,-22.75
16:27:01.453125,-27.21
16:27:01.468750,-33.01
16:27:01.484375,-39.96
16:27:01.500000,-47.24
16:27:01.515625,-53.47
16:27:01.531250,-56.97
16:27:01.546875,-56.20
16:27:01.562500,-50.29
16:27:01.578125,-39.34
16:27:01.593750,-24.51
16:27:01.609375,-7.70
16:27:01.625000,8.98
16:27:01.640625,23.77
16:27:01.656250,35.68
16:27:01.671875,44.49
16:27:01.687500,50.47
16:27:01.703125,54.05
16:27:01.718750,55.51
16:27:01.734375,54.97
16:27:01.750000,52.56
16:27:01.765625,48.69
16:27:01.781250,44.04
16:27:01.796875,39.46
16:27:01.812500,35.67
16:27:01.828125,33.04
16:27:01.843750,31.50
16:27:01.859375,30.65
16:27:01.875000,30.02
16:27:01.890625,29.20
16:27:01.906250,27.99
16:27:01.921875,26.28
16:27:01.937500,23.96
16:27:01.953125,20.88
16:27:01.968750,16.85
16:27:01.984375,11.79
16:27:02,5.83
16:27:02.015625,-0.70
16:27:02.031250,-7.32
16:27:02.046875,-13.52
16:27:02.062500,-19.00
16:27:02.078125,-23.73
16:27:02.093750,-27.97
16:27:02.109375,-32.21
16:27:02.125000,-37.00
16:27:02.140625,-42.81
16:27:02.156250,-49.82
16:27:02.171875,-57.90
16:27:02.187500,-66.37
16:27:02.203125,-74.07
16:27:02.218750,-79.43
16:27:02.234375,-80.82
16:27:02.250000,-76.97
16:27:02.265625,-67.45
16:27:02.281250,-52.88
16:27:02.296875,-34.85
16:27:02.312500,-15.49
16:27:02.328125,3.06
16:27:02.343750,19.16
16:27:02.359375,31.82
16:27:02.375000,40.71
16:27:02.390625,45.91
16:27:02.406250,47.72
16:27:02.421875,46.64
16:27:02.437500,43.29
16:27:02.453125,38.48
16:27:02.468750,33.13
16:27:02.484375,28.06
16:27:02.500000,23.89
16:27:02.515625,20.91
16:27:02.531250,19.11
16:27:02.546875,18.26
16:27:02.562500,18.07
16:27:02.578125,18.30
16:27:02.593750,18.77
16:27:02.609375,19.32
16:27:02.625000,19.79
16:27:02.640625,19.93
16:27:02.656250,19.42
16:27:02.671875,17.95
16:27:02.687500,15.36
16:27:02.703125,11.74
16:27:02.718750,7.48
16:27:02.734375,3.14
16:27:02.750000,-0.78
16:27:02.765625,-4.05
16:27:02.781250,-6.88
16:27:02.796875,-9.94
16:27:02.812500,-14.11
16:27:02.828125,-20.18
16:27:02.843750,-28.55
16:27:02.859375,-38.99
16:27:02.875000,-50.54
16:27:02.890625,-61.60
16:27:02.906250,-70.13
16:27:02.921875,-74.16
16:27:02.937500,-72.20
16:27:02.953125,-63.81
16:27:02.968750,-49.72
16:27:02.984375,-31.77
16:27:03,-12.38
16:27:03.015625,6.09
16:27:03.031250,21.85
16:27:03.046875,33.98
16:27:03.062500,42.34
16:27:03.078125,47.32
16:27:03.093750,49.48
16:27:03.109375,49.41
16:27:03.125000,47.66
16:27:03.140625,44.80
16:27:03.156250,41.36
16:27:03.171875,37.83
16:27:03.187500,34.53
16:27:03.203125,31.62
16:27:03.218750,29.05
16:27:03.234375,26.70
16:27:03.250000,24.54
16:27:03.265625,22.58
16:27:03.281250,20.99
16:27:03.296875,19.88
16:27:03.312500,19.24
16:27:03.328125,18.85
16:27:03.343750,18.27
16:27:03.359375,17.07
16:27:03.375000,14.93
16:27:03.390625,11.75
16:27:03.406250,7.72
16:27:03.421875,3.16
16:27:03.437500,-1.63
16:27:03.453125,-6.45
16:27:03.468750,-11.28
16:27:03.484375,-16.22
16:27:03.500000,-21.48
16:27:03.515625,-27.32
16:27:03.531250,-33.96
16:27:03.546875,-41.47
16:27:03.562500,-49.50
16:27:03.578125,-57.19
16:27:03.593750,-63.12
16:27:03.609375,-65.68
16:27:03.625000,-63.57
16:27:03.640625,-56.34
16:27:03.656250,-44.64
16:27:03.671875,-30.12
16:27:03.687500,-14.90
16:27:03.703125,-0.91
16:27:03.718750,10.52
16:27:03.734375,18.91
16:27:03.750000,24.36
16:27:03.765625,27.34
16:27:03.781250,28.33
16:27:03.796875,27.79
16:27:03.812500,26.19
16:27:03.828125,24.11
16:27:03.843750,22.19
16:27:03.859375,21.00
16:27:03.875000,20.86
16:27:03.890625,21.68
16:27:03.906250,23.04
16:27:03.921875,24.38
16:27:03.937500,25.23
16:27:03.953125,25.36
16:27:03.968750,24.83
16:27:03.984375,23.80
16:27:04,22.36
16:27:04.015625,20.42
16:27:04.031250,17.73
16:27:04.046875,14.02
16:27:04.062500,9.23
16:27:04.078125,3.57
16:27:04.093750,-2.47
16:27:04.109375,-8.31
16:27:04.125000,-13.52
16:27:04.140625,-17.99
16:27:04.156250,-22.01
16:27:04.171875,-26.20
16:27:04.187500,-31.29
16:27:04.203125,-37.88
16:27:04.218750,-46.19
16:27:04.234375,-55.87
16:27:04.250000,-65.88
16:27:04.265625,-74.58
16:27:04.281250,-80.05
16:27:04.296875,-80.53
16:27:04.312500,-75.01
16:27:04.328125,-63.56
16:27:04.343750,-47.46
16:27:04.359375,-28.82
16:27:04.375000,-10.01
16:27:04.390625,6.90
16:27:04.406250,20.62
16:27:04.421875,30.68
16:27:04.437500,37.21
16:27:04.453125,40.69
16:27:04.468750,41.63
16:27:04.484375,40.56
16:27:04.500000,38.01
16:27:04.515625,34.58
16:27:04.531250,30.85
16:27:04.546875,27.35
16:27:04.562500,24.40
16:27:04.578125,22.10
16:27:04.593750,20.34
16:27:04.609375,18.96
16:27:04.625000,17.87
16:27:04.640625,17.07
16:27:04.656250,16.57
16:27:04.671875,16.25
16:27:04.687500,15.81
16:27:04.703125,14.72
16:27:04.718750,12.46
16:27:04.734375,8.72
16:27:04.750000,3.61
16:27:04.765625,-2.36
16:27:04.781250,-8.45
16:27:04.796875,-14.04
16:27:04.812500,-18.87
16:27:04.828125,-23.08
16:27:04.843750,-27.20
16:27:04.859375,-31.87
16:27:04.875000,-37.61
16:27:04.890625,-44.66
16:27:04.906250,-52.80
16:27:04.921875,-61.26
16:27:04.937500,-68.70
16:27:04.953125,-73.35
16:27:04.968750,-73.47
16:27:04.984375,-67.83
16:27:05,-56.27
16:27:05.015625,-39.91
16:27:05.031250,-20.90
16:27:05.046875,-1.87
16:27:05.062500,14.84
16:27:05.078125,27.71
16:27:05.093750,36.23
16:27:05.109375,40.76
16:27:05.125000,42.09
16:27:05.140625,41.13
16:27:05.156250,38.66
16:27:05.171875,35.29
16:27:05.187500,31.62
16:27:05.203125,28.23
16:27:05.218750,25.63
16:27:05.234375,24.17
16:27:05.250000,23.88
16:27:05.265625,24.43
16:27:05.281250,25.28
16:27:05.296875,25.85
16:27:05.312500,25.79
16:27:05.328125,25.09
16:27:05.343750,23.97
16:27:05.359375,22.73
16:27:05.375000,21.47
16:27:05.390625,20.01
16:27:05.406250,17.98
16:27:05.421875,15.02
16:27:05.437500,11.04
16:27:05.453125,6.32
16:27:05.468750,1.39
16:27:05.484375,-3.15
16:27:05.500000,-6.99
16:27:05.515625,-10.18
16:27:05.531250,-13.21
16:27:05.546875,-16.84
16:27:05.562500,-21.82
16:27:05.578125,-28.66
16:27:05.593750,-37.29
16:27:05.609375,-46.95
16:27:05.625000,-56.16
16:27:05.640625,-62.97
16:27:05.656250,-65.45
16:27:05.671875,-62.23
16:27:05.687500,-53.04
16:27:05.703125,-38.82
16:27:05.718750,-21.53
16:27:05.734375,-3.56
16:27:05.750000,12.88
16:27:05.765625,26.32
16:27:05.781250,36.15
16:27:05.796875,42.50
16:27:05.812500,45.85
16:27:05.828125,46.71
16:27:05.843750,45.44
16:27:05.859375,42.39
16:27:05.875000,37.98
16:27:05.890625,32.88
16:27:05.906250,27.94
16:27:05.921875,23.90
16:27:05.937500,21.25
16:27:05.953125,19.94
16:27:05.968750,19.56
16:27:05.984375,19.48
16:27:06,19.25
16:27:06.015625,18.70
16:27:06.031250,17.93
16:27:06.046875,17.06
16:27:06.062500,16.05
16:27:06.078125,14.55
16:27:06.093750,12.10
16:27:06.109375,8.34
16:27:06.125000,3.23
16:27:06.140625,-2.82
16:27:06.156250,-9.09
16:27:06.171875,-14.83
16:27:06.187500,-19.50
16:27:06.203125,-22.99
16:27:06.218750,-25.60
16:27:06.234375,-27.99
16:27:06.250000,-30.91
16:27:06.265625,-35.05
16:27:06.281250,-40.78
16:27:06.296875,-47.93
16:27:06.312500,-55.68
16:27:06.328125,-62.51
16:27:06.343750,-66.55
16:27:06.359375,-66.02
16:27:06.375000,-59.83
16:27:06.390625,-48.04
16:27:06.406250,-31.88
16:27:06.421875,-13.47
16:27:06.437500,4.83
16:27:06.453125,21.10
16:27:06.468750,34.24
16:27:06.484375,43.97
16:27:06.500000,50.59
16:27:06.515625,54.53
16:27:06.531250,56.18
16:27:06.546875,55.75
16:27:06.562500,53.53
16:27:06.578125,49.97
16:27:06.593750,45.78
16:27:06.609375,41.81
16:27:06.625000,38.78
16:27:06.640625,37.01
16:27:06.656250,36.36
16:27:06.671875,36.34
16:27:06.687500,36.35
16:27:06.703125,35.96
16:27:06.718750,35.06
16:27:06.734375,33.84
16:27:06.750000,32.57
16:27:06.765625,31.36
16:27:06.781250,29.98
16:27:06.796875,27.92
16:27:06.812500,24.62
16:27:06.828125,19.69
16:27:06.843750,13.18
16:27:06.859375,5.57
16:27:06.875000,-2.37
16:27:06.890625,-9.94
16:27:06.906250,-16.70
16:27:06.921875,-22.62
16:27:06.937500,-28.06
16:27:06.953125,-33.59
16:27:06.968750,-39.80
16:27:06.984375,-47.11
16:27:07,-55.61
16:27:07.015625,-64.86
16:27:07.031250,-73.88
16:27:07.046875,-81.15
16:27:07.062500,-84.97
16:27:07.078125,-83.94
16:27:07.093750,-77.44
16:27:07.109375,-65.96
16:27:07.125000,-50.93
16:27:07.140625,-34.36
16:27:07.156250,-18.15
16:27:07.171875,-3.65
16:27:07.187500,8.53
16:27:07.203125,18.29
16:27:07.218750,25.75
16:27:07.234375,30.98
16:27:07.250000,33.97
16:27:07.265625,34.80
16:27:07.281250,33.85
16:27:07.296875,31.77
16:27:07.312500,29.43
16:27:07.328125,27.56
16:27:07.343750,26.55
16:27:07.359375,26.32
16:27:07.375000,26.46
16:27:07.390625,26.46
16:27:07.406250,25.98
16:27:07.421875,24.99
16:27:07.437500,23.68
16:27:07.453125,22.36
16:27:07.468750,21.09
16:27:07.484375,19.66
16:27:07.500000,17.59
16:27:07.515625,14.36
16:27:07.531250,9.70
16:27:07.546875,3.75
16:27:07.562500,-2.96
16:27:07.578125,-9.72
16:27:07.593750,-15.91
16:27:07.609375,-21.20
16:27:07.625000,-25.64
16:27:07.640625,-29.52
16:27:07.656250,-33.34
16:27:07.671875,-37.61
16:27:07.687500,-42.76
16:27:07.703125,-48.96
16:27:07.718750,-55.84
16:27:07.734375,-62.28
16:27:07.750000,-66.57
16:27:07.765625,-66.79
16:27:07.781250,-61.44
16:27:07.796875,-50.14
16:27:07.812500,-33.81
16:27:07.828125,-14.50
16:27:07.843750,5.31
16:27:07.859375,23.39
16:27:07.875000,38.29
16:27:07.890625,49.46
16:27:07.906250,57.04
16:27:07.921875,61.50
16:27:07.937500,63.39
16:27:07.953125,63.24
16:27:07.968750,61.56
16:27:07.984375,58.86
16:27:08,55.61
16:27:08.015625,52.17
16:27:08.031250,48.74
16:27:08.046875,45.33
16:27:08.062500,41.91
16:27:08.078125,38.46
16:27:08.093750,35.06
16:27:08.109375,31.86
16:27:08.125000,29.02
16:27:08.140625,26.55
16:27:08.156250,24.30
16:27:08.171875,21.97
16:27:08.187500,19.26
16:27:08.203125,15.98
16:27:08.218750,12.19
16:27:08.234375,8.14
16:27:08.250000,4.17
16:27:08.265625,0.54
16:27:08.281250,-2.69
16:27:08.296875,-5.79
16:27:08.312500,-9.29
16:27:08.328125,-13.97
16:27:08.343750,-20.42
16:27:08.359375,-28.82
16:27:08.375000,-38.56
16:27:08.390625,-48.16
16:27:08.406250,-55.50
16:27:08.421875,-58.47
16:27:08.437500,-55.60
16:27:08.453125,-46.65
16:27:08.468750,-32.77
16:27:08.484375,-16.20
16:27:08.500000,0.49
16:27:08.515625,15.05
16:27:08.531250,26.09
16:27:08.546875,33.15
16:27:08.562500,36.55
16:27:08.578125,36.93
16:27:08.593750,35.05
16:27:08.609375,31.59
16:27:08.625000,27.22
16:27:08.640625,22.57
16:27:08.656250,18.32
16:27:08.671875,15.02
16:27:08.687500,13.08
16:27:08.703125,12.58
16:27:08.718750,13.35
16:27:08.734375,15.01
16:27:08.750000,17.13
16:27:08.765625,19.32
16:27:08.781250,21.25
16:27:08.796875,22.55
16:27:08.812500,22.86
16:27:08.828125,21.84
16:27:08.843750,19.34
16:27:08.859375,15.52
16:27:08.875000,10.82
16:27:08.890625,5.88
16:27:08.906250,1.28
16:27:08.921875,-2.66
16:27:08.937500,-5.93
16:27:08.953125,-8.76
16:27:08.968750,-11.59
16:27:08.984375,-14.90
16:27:09,-19.10
16:27:09.015625,-24.46
16:27:09.031250,-30.81
16:27:09.046875,-37.44
16:27:09.062500,-42.99
16:27:09.078125,-45.74
16:27:09.093750,-44.16
16:27:09.109375,-37.42
16:27:09.125000,-25.90
16:27:09.140625,-11.10
16:27:09.156250,4.79
16:27:09.171875,19.60
16:27:09.187500,31.77
16:27:09.203125,40.63
16:27:09.218750,46.30
16:27:09.234375,49.32
16:27:09.250000,50.25
16:27:09.265625,49.50
16:27:09.281250,47.31
16:27:09.296875,43.94
16:27:09.312500,39.74
16:27:09.328125,35.21
16:27:09.343750,30.84
16:27:09.359375,26.96
16:27:09.375000,23.69
16:27:09.390625,20.93
16:27:09.406250,18.53
16:27:09.421875,16.37
16:27:09.437500,14.35
16:27:09.453125,12.42
16:27:09.468750,10.38
16:27:09.484375,7.95
16:27:09.500000,4.80
16:27:09.515625,0.74
16:27:09.531250,-4.20
16:27:09.546875,-9.71
16:27:09.562500,-15.31
16:27:09.578125,-20.47
16:27:09.593750,-24.80
16:27:09.609375,-28.13
16:27:09.625000,-30.61
16:27:09.640625,-32.68
16:27:09.656250,-34.99
16:27:09.671875,-38.24
16:27:09.687500,-42.82
16:27:09.703125,-48.56
16:27:09.718750,-54.49
16:27:09.734375,-58.98
16:27:09.750000,-60.22
16:27:09.765625,-56.88
16:27:09.781250,-48.67
16:27:09.796875,-36.55
16:27:09.812500,-22.42
16:27:09.828125,-8.39
16:27:09.843750,3.86
16:27:09.859375,13.55
16:27:09.875000,20.76
16:27:09.890625,26.08
16:27:09.906250,30.19
16:27:09.921875,33.44
16:27:09.937500,35.80
16:27:09.953125,36.98
16:27:09.968750,36.65
16:27:09.984375,34.68
16:27:10,31.32
16:27:10.015625,27.23
16:27:10.031250,23.33
16:27:10.046875,20.51
16:27:10.062500,19.36
16:27:10.078125,19.96
16:27:10.093750,21.78
16:27:10.109375,23.96
16:27:10.125000,25.61
16:27:10.140625,26.10
16:27:10.156250,25.19
16:27:10.171875,23.05
16:27:10.187500,20.04
16:27:10.203125,16.54
16:27:10.218750,12.82
16:27:10.234375,8.96
16:27:10.250000,4.88
16:27:10.265625,0.39
16:27:10.281250,-4.82
16:27:10.296875,-11.09
16:27:10.312500,-18.63
16:27:10.328125,-27.30
16:27:10.343750,-36.42
16:27:10.359375,-44.64
16:27:10.375000,-50.22
16:27:10.390625,-51.55
16:27:10.406250,-47.85
16:27:10.421875,-39.52
16:27:10.437500,-28.09
16:27:10.453125,-15.65
16:27:10.468750,-4.14
16:27:10.484375,5.38
16:27:10.500000,12.70
16:27:10.515625,18.24
16:27:10.531250,22.46
16:27:10.546875,25.53
16:27:10.562500,27.28
16:27:10.578125,27.49
16:27:10.593750,26.15
16:27:10.609375,23.60
16:27:10.625000,20.45
16:27:10.640625,17.32
16:27:10.656250,14.67
16:27:10.671875,12.75
16:27:10.687500,11.65
16:27:10.703125,11.38
16:27:10.718750,11.82
16:27:10.734375,12.66
16:27:10.750000,13.37
16:27:10.765625,13.33
16:27:10.781250,11.98
16:27:10.796875,9.04
16:27:10.812500,4.64
16:27:10.828125,-0.74
16:27:10.843750,-6.46
16:27:10.859375,-11.99
16:27:10.875000,-17.12
16:27:10.890625,-22.07
16:27:10.906250,-27.33
16:27:10.921875,-33.49
16:27:10.937500,-40.85
16:27:10.953125,-49.14
16:27:10.968750,-57.36
16:27:10.984375,-63.88
16:27:11,-66.87
16:27:11.015625,-64.86
16:27:11.031250,-57.31
16:27:11.046875,-44.87
16:27:11.062500,-29.27
16:27:11.078125,-12.77
16:27:11.093750,2.52
16:27:11.109375,15.20
16:27:11.125000,24.82
16:27:11.140625,31.64
16:27:11.156250,36.32
16:27:11.171875,39.41
16:27:11.187500,41.22
16:27:11.203125,41.80
16:27:11.218750,41.12
16:27:11.234375,39.25
16:27:11.250000,36.42
16:27:11.265625,32.96
16:27:11.281250,29.22
16:27:11.296875,25.49
16:27:11.312500,21.94
16:27:11.328125,18.73
16:27:11.343750,16.00
16:27:11.359375,13.81
16:27:11.375000,12.16
16:27:11.390625,10.82
16:27:11.406250,9.43
16:27:11.421875,7.55
16:27:11.437500,4.88
16:27:11.453125,1.38
16:27:11.468750,-2.82
16:27:11.484375,-7.45
16:27:11.500000,-12.36
16:27:11.515625,-17.56
16:27:11.531250,-23.29
16:27:11.546875,-29.80
16:27:11.562500,-37.18
16:27:11.578125,-45.12
16:27:11.593750,-52.84
16:27:11.609375,-59.09
16:27:11.625000,-62.42
16:27:11.640625,-61.53
16:27:11.656250,-55.70
16:27:11.671875,-45.11
16:27:11.687500,-30.90
16:27:11.703125,-14.93
16:27:11.718750,0.68
16:27:11.734375,14.14
16:27:11.750000,24.33
16:27:11.765625,31.00
16:27:11.781250,34.51
16:27:11.796875,35.60
16:27:11.812500,35.00
16:27:11.828125,33.25
16:27:11.843750,30.65
16:27:11.859375,27.36
16:27:11.875000,23.50
16:27:11.890625,19.29
16:27:11.906250,14.99
16:27:11.921875,10.90
16:27:11.937500,7.28
16:27:11.953125,4.28
16:27:11.968750,1.94
16:27:11.984375,0.18
16:27:12,-1.13
16:27:12.015625,-2.18
16:27:12.031250,-3.21
16:27:12.046875,-4.44
16:27:12.062500,-6.05
16:27:12.078125,-8.12
16:27:12.093750,-10.68
16:27:12.109375,-13.68
16:27:12.125000,-17.14
16:27:12.140625,-21.21
16:27:12.156250,-26.19
16:27:12.171875,-32.47
16:27:12.187500,-40.24
16:27:12.203125,-49.22
16:27:12.218750,-58.44
16:27:12.234375,-66.28
16:27:12.250000,-70.79
16:27:12.265625,-70.34
16:27:12.281250,-64.21
16:27:12.296875,-52.93
16:27:12.312500,-38.20
16:27:12.328125,-22.45
16:27:12.343750,-8.05
16:27:12.359375,3.31
16:27:12.375000,11.01
16:27:12.390625,15.43
16:27:12.406250,17.60
16:27:12.421875,18.71
16:27:12.437500,19.68
16:27:12.453125,21.01
16:27:12.468750,22.78
16:27:12.484375,24.78
16:27:12.500000,26.73
16:27:12.515625,28.43
16:27:12.531250,29.93
16:27:12.546875,31.45
16:27:12.562500,33.28
16:27:12.578125,35.62
16:27:12.593750,38.54
16:27:12.609375,41.89
16:27:12.625000,45.40
16:27:12.640625,48.68
16:27:12.656250,51.38
16:27:12.671875,53.17
16:27:12.687500,53.83
16:27:12.703125,53.22
16:27:12.718750,51.26
16:27:12.734375,47.93
16:27:12.750000,43.14
16:27:12.765625,36.73
16:27:12.781250,28.52
16:27:12.796875,18.30
16:27:12.812500,6.05
16:27:12.828125,-8.08
16:27:12.843750,-23.60
16:27:12.859375,-39.64
16:27:12.875000,-54.95
16:27:12.890625,-67.86
16:27:12.906250,-76.56
16:27:12.921875,-79.43
16:27:12.937500,-75.54
16:27:12.953125,-65.13
16:27:12.968750,-49.67
16:27:12.984375,-31.60
16:27:13,-13.68
16:27:13.015625,1.85
16:27:13.031250,13.75
16:27:13.046875,21.91
16:27:13.062500,27.04
16:27:13.078125,30.10
16:27:13.093750,31.94
16:27:13.109375,33.00
16:27:13.125000,33.42
16:27:13.140625,33.19
16:27:13.156250,32.31
16:27:13.171875,30.89
16:27:13.187500,29.04
16:27:13.203125,26.88
16:27:13.218750,24.52
16:27:13.234375,22.08
16:27:13.250000,19.80
16:27:13.265625,17.92
16:27:13.281250,16.61
16:27:13.296875,15.85
16:27:13.312500,15.35
16:27:13.328125,14.60
16:27:13.343750,13.04
16:27:13.359375,10.20
16:27:13.375000,5.89
16:27:13.390625,0.23
16:27:13.406250,-6.42
16:27:13.421875,-13.51
16:27:13.437500,-20.53
16:27:13.453125,-27.02
16:27:13.468750,-32.74
16:27:13.484375,-37.74
16:27:13.500000,-42.31
16:27:13.515625,-46.96
16:27:13.531250,-52.13
16:27:13.546875,-57.89
16:27:13.562500,-63.57
16:27:13.578125,-67.75
16:27:13.593750,-68.50
16:27:13.609375,-64.08
16:27:13.625000,-53.63
16:27:13.640625,-37.63
16:27:13.656250,-17.92
16:27:13.671875,2.88
16:27:13.687500,22.23
16:27:13.703125,38.37
16:27:13.718750,50.60
16:27:13.734375,59.15
16:27:13.750000,64.65
16:27:13.765625,67.72
16:27:13.781250,68.77
16:27:13.796875,68.04
16:27:13.812500,65.85
16:27:13.828125,62.69
16:27:13.843750,59.15
16:27:13.859375,55.75
16:27:13.875000,52.69
16:27:13.890625,49.87
16:27:13.906250,46.91
16:27:13.921875,43.46
16:27:13.937500,39.31
16:27:13.953125,34.51
16:27:13.968750,29.25
16:27:13.984375,23.70
16:27:14,17.97
16:27:14.015625,12.00
16:27:14.031250,5.72
16:27:14.046875,-0.81
16:27:14.062500,-7.26
16:27:14.078125,-13.03
16:27:14.093750,-17.45
16:27:14.109375,-19.99
16:27:14.125000,-20.56
16:27:14.140625,-19.62
16:27:14.156250,-18.10
16:27:14.171875,-17.09
16:27:14.187500,-17.56
16:27:14.203125,-20.10
16:27:14.218750,-24.81
16:27:14.234375,-31.29
16:27:14.250000,-38.72
16:27:14.265625,-45.88
16:27:14.281250,-51.31
16:27:14.296875,-53.53
16:27:14.312500,-51.47
16:27:14.328125,-44.79
16:27:14.343750,-34.14
16:27:14.359375,-20.96
16:27:14.375000,-7.14
16:27:14.390625,5.56
16:27:14.406250,15.87
16:27:14.421875,23.20
16:27:14.437500,27.49
16:27:14.453125,28.99
16:27:14.468750,27.98
16:27:14.484375,24.64
16:27:14.500000,19.09
16:27:14.515625,11.56
16:27:14.531250,2.57
16:27:14.546875,-6.97
16:27:14.562500,-15.78
16:27:14.578125,-22.54
16:27:14.593750,-26.25
16:27:14.609375,-26.57
16:27:14.625000,-23.95
16:27:14.640625,-19.37
16:27:14.656250,-13.89
16:27:14.671875,-8.26
16:27:14.687500,-2.83
16:27:14.703125,2.34
16:27:14.718750,7.11
16:27:14.734375,11.08
16:27:14.750000,13.69
16:27:14.765625,14.46
16:27:14.781250,13.35
16:27:14.796875,10.87
16:27:14.812500,7.89
16:27:14.828125,5.33
16:27:14.843750,3.71
16:27:14.859375,3.02
16:27:14.875000,2.69
16:27:14.890625,1.86
16:27:14.906250,-0.30
16:27:14.921875,-4.34
16:27:14.937500,-10.26
16:27:14.953125,-17.47
16:27:14.968750,-24.79
16:27:14.984375,-30.71
16:27:15,-33.73
16:27:15.015625,-32.84
16:27:15.031250,-27.76
16:27:15.046875,-19.17
16:27:15.062500,-8.42
16:27:15.078125,2.80
16:27:15.093750,12.93
16:27:15.109375,20.94
16:27:15.125000,26.38
16:27:15.140625,29.27
16:27:15.156250,29.89
16:27:15.171875,28.56
16:27:15.187500,25.56
16:27:15.203125,21.22
16:27:15.218750,15.97
16:27:15.234375,10.39
16:27:15.250000,5.11
16:27:15.265625,0.68
16:27:15.281250,-2.56
16:27:15.296875,-4.53
16:27:15.312500,-5.40
16:27:15.328125,-5.43
16:27:15.343750,-4.95
16:27:15.359375,-4.20
16:27:15.375000,-3.36
16:27:15.390625,-2.60
16:27:15.406250,-2.09
16:27:15.421875,-2.07
16:27:15.437500,-2.79
16:27:15.453125,-4.44
16:27:15.468750,-7.00
16:27:15.484375,-10.22
16:27:15.500000,-13.66
16:27:15.515625,-16.84
16:27:15.531250,-19.43
16:27:15.546875,-21.38
16:27:15.562500,-22.97
16:27:15.578125,-24.73
16:27:15.593750,-27.34
16:27:15.609375,-31.38
16:27:15.625000,-37.08
16:27:15.640625,-44.13
16:27:15.656250,-51.49
16:27:15.671875,-57.50
16:27:15.687500,-60.27
16:27:15.703125,-58.19
16:27:15.718750,-50.58
16:27:15.734375,-37.92
16:27:15.750000,-21.79
16:27:15.765625,-4.40
16:27:15.781250,12.12
16:27:15.796875,26.23
16:27:15.812500,37.20
16:27:15.828125,44.93
16:27:15.843750,49.71
16:27:15.859375,51.82
16:27:15.875000,51.54
16:27:15.890625,49.19
16:27:15.906250,45.31
16:27:15.921875,40.65
16:27:15.937500,36.11
16:27:15.953125,32.44
16:27:15.968750,29.95
16:27:15.984375,28.48
16:27:16,27.51
16:27:16.015625,26.47
16:27:16.031250,25.04
16:27:16.046875,23.33
16:27:16.062500,21.73
16:27:16.078125,20.64
16:27:16.093750,20.17
16:27:16.109375,19.96
16:27:16.125000,19.36
16:27:16.140625,17.66
16:27:16.156250,14.47
16:27:16.171875,9.86
16:27:16.187500,4.37
16:27:16.203125,-1.27
16:27:16.218750,-6.41
16:27:16.234375,-10.75
16:27:16.250000,-14.40
16:27:16.265625,-17.85
16:27:16.281250,-21.72
16:27:16.296875,-26.56
16:27:16.312500,-32.70
16:27:16.328125,-40.01
16:27:16.343750,-47.83
16:27:16.359375,-54.99
16:27:16.375000,-59.92
16:27:16.390625,-61.01
16:27:16.406250,-57.10
16:27:16.421875,-47.85
16:27:16.437500,-33.92
16:27:16.453125,-16.87
16:27:16.468750,1.36
16:27:16.484375,18.96
16:27:16.500000,34.69
16:27:16.515625,48.04
16:27:16.531250,58.99
16:27:16.546875,67.59
16:27:16.562500,73.52
16:27:16.578125,76.07
16:27:16.593750,74.35
16:27:16.609375,67.84
16:27:16.625000,56.93
16:27:16.640625,43.05
16:27:16.656250,28.43
16:27:16.671875,15.42
16:27:16.687500,5.80
16:27:16.703125,0.20
16:27:16.718750,-1.80
16:27:16.734375,-1.32
16:27:16.750000,0.40
16:27:16.765625,2.49
16:27:16.781250,4.52
16:27:16.796875,6.41
16:27:16.812500,8.09
16:27:16.828125,9.41
16:27:16.843750,10.08
16:27:16.859375,9.79
16:27:16.875000,8.40
16:27:16.890625,5.85
16:27:16.906250,2.20
16:27:16.921875,-2.60
16:27:16.937500,-8.72
16:27:16.953125,-16.36
16:27:16.968750,-25.68
16:27:16.984375,-36.60
16:27:17,-48.93
16:27:17.015625,-62.32
16:27:17.031250,-76.47
16:27:17.046875,-91.02
16:27:17.062500,-105.43
16:27:17.078125,-118.74
16:27:17.093750,-129.51
16:27:17.109375,-136.01
16:27:17.125000,-136.61
16:27:17.140625,-130.36
16:27:17.156250,-117.37
16:27:17.171875,-98.83
16:27:17.187500,-76.75
16:27:17.203125,-53.39
16:27:17.218750,-30.76
16:27:17.234375,-10.27
16:27:17.250000,7.26
16:27:17.265625,21.58
16:27:17.281250,32.73
16:27:17.296875,40.92
16:27:17.312500,46.46
16:27:17.328125,49.73
16:27:17.343750,51.19
16:27:17.359375,51.35
16:27:17.375000,50.77
16:27:17.390625,49.92
16:27:17.406250,49.16
16:27:17.421875,48.64
16:27:17.437500,48.28
16:27:17.453125,47.88
16:27:17.468750,47.25
16:27:17.484375,46.32
16:27:17.500000,45.17
16:27:17.515625,44.01
16:27:17.531250,42.98
16:27:17.546875,42.05
16:27:17.562500,40.89
16:27:17.578125,39.00
16:27:17.593750,35.87
16:27:17.609375,31.19
16:27:17.625000,25.02
16:27:17.640625,17.82
16:27:17.656250,10.32
16:27:17.671875,3.28
16:27:17.687500,-2.78
16:27:17.703125,-7.76
16:27:17.718750,-12.09
16:27:17.734375,-16.53
16:27:17.750000,-21.98
16:27:17.765625,-29.08
16:27:17.781250,-37.96
16:27:17.796875,-48.08
16:27:17.812500,-58.24
16:27:17.828125,-66.74
16:27:17.843750,-71.78
16:27:17.859375,-71.84
16:27:17.875000,-66.09
16:27:17.890625,-54.70
16:27:17.906250,-38.87
16:27:17.921875,-20.56
16:27:17.937500,-2.01
16:27:17.953125,14.77
16:27:17.968750,28.41
16:27:17.984375,38.30
16:27:18,44.53
16:27:18.015625,47.61
16:27:18.031250,48.20
16:27:18.046875,46.96
16:27:18.062500,44.50
16:27:18.078125,41.32
16:27:18.093750,37.88
16:27:18.109375,34.51
16:27:18.125000,31.41
16:27:18.140625,28.68
16:27:18.156250,26.33
16:27:18.171875,24.37
16:27:18.187500,22.81
16:27:18.203125,21.72
16:27:18.218750,21.06
16:27:18.234375,20.70
16:27:18.250000,20.31
16:27:18.265625,19.45
16:27:18.281250,17.66
16:27:18.296875,14.64
16:27:18.312500,10.37
16:27:18.328125,5.08
16:27:18.343750,-0.79
16:27:18.359375,-6.78
16:27:18.375000,-12.62
16:27:18.390625,-18.28
16:27:18.406250,-24.04
16:27:18.421875,-30.39
16:27:18.437500,-37.80
16:27:18.453125,-46.48
16:27:18.468750,-56.09
16:27:18.484375,-65.57
16:27:18.500000,-73.26
16:27:18.515625,-77.26
16:27:18.531250,-75.93
16:27:18.546875,-68.53
16:27:18.562500,-55.50
16:27:18.578125,-38.46
16:27:18.593750,-19.73
16:27:18.609375,-1.68
16:27:18.625000,13.85
16:27:18.640625,25.88
16:27:18.656250,34.26
16:27:18.671875,39.38
16:27:18.687500,41.85
16:27:18.703125,42.24
16:27:18.718750,41.01
16:27:18.734375,38.58
16:27:18.750000,35.35
16:27:18.765625,31.71
16:27:18.781250,28.00
16:27:18.796875,24.44
16:27:18.812500,21.16
16:27:18.828125,18.24
16:27:18.843750,15.79
16:27:18.859375,13.95
16:27:18.875000,12.81
16:27:18.890625,12.30
16:27:18.906250,12.07
16:27:18.921875,11.55
16:27:18.937500,10.09
16:27:18.953125,7.21
16:27:18.968750,2.74
16:27:18.984375,-3.06
16:27:19,-9.71
16:27:19.015625,-16.53
16:27:19.031250,-22.99
16:27:19.046875,-28.74
16:27:19.062500,-33.76
16:27:19.078125,-38.38
16:27:19.093750,-43.18
16:27:19.109375,-48.80
16:27:19.125000,-55.59
16:27:19.140625,-63.14
16:27:19.156250,-70.18
16:27:19.171875,-74.65
16:27:19.187500,-74.35
16:27:19.203125,-67.67
16:27:19.218750,-54.29
16:27:19.234375,-35.43
16:27:19.250000,-13.50
16:27:19.265625,8.59
16:27:19.281250,28.29
16:27:19.296875,44.04
16:27:19.312500,55.42
16:27:19.328125,62.99
16:27:19.343750,67.77
16:27:19.359375,70.73
16:27:19.375000,72.39
16:27:19.390625,72.73
16:27:19.406250,71.25
16:27:19.421875,67.33
16:27:19.437500,60.69
16:27:19.453125,51.65
16:27:19.468750,41.19
16:27:19.484375,30.74
16:27:19.500000,21.65
16:27:19.515625,14.88
16:27:19.531250,10.61
16:27:19.546875,8.38
16:27:19.562500,7.30
16:27:19.578125,6.45
16:27:19.593750,5.07
16:27:19.609375,2.76
16:27:19.625000,-0.62
16:27:19.640625,-5.03
16:27:19.656250,-10.26
16:27:19.671875,-15.94
16:27:19.687500,-21.61
16:27:19.703125,-26.79
16:27:19.718750,-31.19
16:27:19.734375,-34.89
16:27:19.750000,-38.42
16:27:19.765625,-42.62
16:27:19.781250,-48.29
16:27:19.796875,-55.71
16:27:19.812500,-64.22
16:27:19.828125,-72.19
16:27:19.843750,-77.35
16:27:19.859375,-77.47
16:27:19.875000,-71.24
16:27:19.890625,-58.76
16:27:19.906250,-41.64
16:27:19.921875,-22.53
16:27:19.937500,-4.38
16:27:19.953125,10.47
16:27:19.968750,20.71
16:27:19.984375,26.20
16:27:20,27.72
16:27:20.015625,26.50
16:27:20.031250,23.92
16:27:20.046875,21.13
16:27:20.062500,19.02
16:27:20.078125,18.10
16:27:20.093750,18.52
16:27:20.109375,20.15
16:27:20.125000,22.67
16:27:20.140625,25.65
16:27:20.156250,28.69
16:27:20.171875,31.50
16:27:20.187500,33.89
16:27:20.203125,35.77
16:27:20.218750,37.08
16:27:20.234375,37.62
16:27:20.250000,36.98
16:27:20.265625,34.55
16:27:20.281250,29.68
16:27:20.296875,21.95
16:27:20.312500,11.49
16:27:20.328125,-0.90
16:27:20.343750,-13.81
16:27:20.359375,-25.61
16:27:20.375000,-35.03
16:27:20.390625,-41.52
16:27:20.406250,-45.47
16:27:20.421875,-48.01
16:27:20.437500,-50.51
16:27:20.453125,-54.02
16:27:20.468750,-58.68
16:27:20.484375,-63.60
16:27:20.500000,-66.95
16:27:20.515625,-66.60
16:27:20.531250,-60.83
16:27:20.546875,-49.03
16:27:20.562500,-32.02
16:27:20.578125,-11.85
16:27:20.593750,8.77
16:27:20.609375,27.35
16:27:20.625000,42.17
16:27:20.640625,52.60
16:27:20.656250,58.95
16:27:20.671875,62.03
16:27:20.687500,62.76
16:27:20.703125,61.88
16:27:20.718750,59.93
16:27:20.734375,57.27
16:27:20.750000,54.19
16:27:20.765625,50.96
16:27:20.781250,47.72
16:27:20.796875,44.59
16:27:20.812500,41.64
16:27:20.828125,38.98
16:27:20.843750,36.94
16:27:20.859375,35.93
16:27:20.875000,36.35
16:27:20.890625,38.33
16:27:20.906250,41.46
16:27:20.921875,44.79
16:27:20.937500,47.00
16:27:20.953125,46.77
16:27:20.968750,43.24
16:27:20.984375,36.32
16:27:21,26.68
16:27:21.015625,15.57
16:27:21.031250,4.35
16:27:21.046875,-5.88
16:27:21.062500,-14.61
16:27:21.078125,-21.94
16:27:21.093750,-28.50
16:27:21.109375,-35.17
16:27:21.125000,-42.69
16:27:21.140625,-51.28
16:27:21.156250,-60.43
16:27:21.171875,-68.77
16:27:21.187500,-74.45
16:27:21.203125,-75.57
16:27:21.218750,-70.94
16:27:21.234375,-60.50
16:27:21.250000,-45.51
16:27:21.265625,-28.15
16:27:21.281250,-10.91
16:27:21.296875,4.12
16:27:21.312500,15.70
16:27:21.328125,23.53
16:27:21.343750,28.04
16:27:21.359375,29.99
16:27:21.375000,30.11
16:27:21.390625,29.02
16:27:21.406250,27.14
16:27:21.421875,24.81
16:27:21.437500,22.36
16:27:21.453125,20.08
16:27:21.468750,18.18
16:27:21.484375,16.76
16:27:21.500000,15.75
16:27:21.515625,14.98
16:27:21.531250,14.26
16:27:21.546875,13.52
16:27:21.562500,12.80
16:27:21.578125,12.20
16:27:21.593750,11.75
16:27:21.609375,11.27
16:27:21.625000,10.40
16:27:21.640625,8.63
16:27:21.656250,5.57
16:27:21.671875,1.13
16:27:21.687500,-4.45
16:27:21.703125,-10.65
16:27:21.718750,-16.92
16:27:21.734375,-22.84
16:27:21.750000,-28.30
16:27:21.765625,-33.48
16:27:21.781250,-38.83
16:27:21.796875,-44.85
16:27:21.812500,-51.83
16:27:21.828125,-59.63
16:27:21.843750,-67.41
16:27:21.859375,-73.64
16:27:21.875000,-76.43
16:27:21.890625,-74.08
16:27:21.906250,-65.69
16:27:21.921875,-51.61
16:27:21.937500,-33.38
16:27:21.953125,-13.35
16:27:21.968750,6.05
16:27:21.984375,22.87
16:27:22,36.01
16:27:22.015625,45.14
16:27:22.031250,50.45
16:27:22.046875,52.40
16:27:22.062500,51.51
16:27:22.078125,48.37
16:27:22.093750,43.68
16:27:22.109375,38.26
16:27:22.125000,32.96
16:27:22.140625,28.49
16:27:22.156250,25.24
16:27:22.171875,23.22
16:27:22.187500,22.08
16:27:22.203125,21.40
16:27:22.218750,20.82
16:27:22.234375,20.27
16:27:22.250000,19.85
16:27:22.265625,19.73
16:27:22.281250,19.94
16:27:22.296875,20.21
16:27:22.312500,20.09
16:27:22.328125,19.11
16:27:22.343750,16.95
16:27:22.359375,13.67
16:27:22.375000,9.64
16:27:22.390625,5.41
16:27:22.406250,1.46
16:27:22.421875,-2.02
16:27:22.437500,-5.31
16:27:22.453125,-9.07
16:27:22.468750,-14.13
16:27:22.484375,-21.15
16:27:22.500000,-30.24
16:27:22.515625,-40.64
16:27:22.531250,-50.79
16:27:22.546875,-58.57
16:27:22.562500,-61.98
16:27:22.578125,-59.71
16:27:22.593750,-51.61
16:27:22.609375,-38.75
16:27:22.625000,-23.07
16:27:22.640625,-6.82
16:27:22.656250,8.06
16:27:22.671875,20.25
16:27:22.687500,29.12
16:27:22.703125,34.57
16:27:22.718750,36.81
16:27:22.734375,36.21
16:27:22.750000,33.33
16:27:22.765625,28.88
16:27:22.781250,23.80
16:27:22.796875,19.05
16:27:22.812500,15.43
16:27:22.828125,13.43
16:27:22.843750,13.05
16:27:22.859375,13.94
16:27:22.875000,15.51
16:27:22.890625,17.14
16:27:22.906250,18.37
16:27:22.921875,18.86
16:27:22.937500,18.48
16:27:22.953125,17.10
16:27:22.968750,14.65
16:27:22.984375,11.07
16:27:23,6.39
16:27:23.015625,0.80
16:27:23.031250,-5.33
16:27:23.046875,-11.52
16:27:23.062500,-17.32
16:27:23.078125,-22.43
16:27:23.093750,-26.87
16:27:23.109375,-30.95
16:27:23.125000,-35.27
16:27:23.140625,-40.49
16:27:23.156250,-47.03
16:27:23.171875,-54.79
16:27:23.187500,-62.93
16:27:23.203125,-69.90
16:27:23.218750,-73.81
16:27:23.234375,-72.93
16:27:23.250000,-66.34
16:27:23.265625,-54.24
16:27:23.281250,-37.98
16:27:23.296875,-19.64
16:27:23.312500,-1.47
16:27:23.328125,14.69
16:27:23.343750,27.68
16:27:23.359375,37.07
16:27:23.375000,42.97
16:27:23.390625,45.82
16:27:23.406250,46.15
16:27:23.421875,44.56
16:27:23.437500,41.70
16:27:23.453125,38.30
16:27:23.468750,35.05
16:27:23.484375,32.50
16:27:23.500000,30.93
16:27:23.515625,30.25
16:27:23.531250,30.07
16:27:23.546875,29.84
16:27:23.562500,29.04
16:27:23.578125,27.36
16:27:23.593750,24.71
16:27:23.609375,21.16
16:27:23.625000,16.88
16:27:23.640625,11.99
16:27:23.656250,6.59
16:27:23.671875,0.74
16:27:23.687500,-5.38
16:27:23.703125,-11.55
16:27:23.718750,-17.39
16:27:23.734375,-22.56
16:27:23.750000,-26.82
16:27:23.765625,-30.13
16:27:23.781250,-32.79
16:27:23.796875,-35.41
16:27:23.812500,-38.73
16:27:23.828125,-43.42
16:27:23.843750,-49.67
16:27:23.859375,-56.91
16:27:23.875000,-63.76
16:27:23.890625,-68.24
16:27:23.906250,-68.36
16:27:23.921875,-62.78
16:27:23.937500,-51.25
16:27:23.953125,-34.80
16:27:23.968750,-15.47
16:27:23.984375,4.34
16:27:24,22.41
16:27:24.015625,37.23
16:27:24.031250,48.11
16:27:24.046875,55.03
16:27:24.062500,58.30
16:27:24.078125,58.39
16:27:24.093750,55.76
16:27:24.109375,50.96
16:27:24.125000,44.66
16:27:24.140625,37.71
16:27:24.156250,31.02
16:27:24.171875,25.33
16:27:24.187500,21.01
16:27:24.203125,18.04
16:27:24.218750,16.08
16:27:24.234375,14.73
16:27:24.250000,13.75
16:27:24.265625,13.19
16:27:24.281250,13.19
16:27:24.296875,13.80
16:27:24.312500,14.74
16:27:24.328125,15.47
16:27:24.343750,15.37
16:27:24.359375,14.06
16:27:24.375000,11.57
16:27:24.390625,8.27
16:27:24.406250,4.66
16:27:24.421875,1.12
16:27:24.437500,-2.23
16:27:24.453125,-5.61
16:27:24.468750,-9.44
16:27:24.484375,-14.22
16:27:24.500000,-20.42
16:27:24.515625,-28.33
16:27:24.531250,-37.84
16:27:24.546875,-48.20
16:27:24.562500,-57.97
16:27:24.578125,-65.17
16:27:24.593750,-67.77
16:27:24.609375,-64.40
16:27:24.625000,-54.86
16:27:24.640625,-40.35
16:27:24.656250,-23.12
16:27:24.671875,-5.76
16:27:24.687500,9.47
16:27:24.703125,21.26
16:27:24.718750,29.26
16:27:24.734375,33.84
16:27:24.750000,35.70
16:27:24.765625,35.52
16:27:24.781250,33.77
16:27:24.796875,30.82
16:27:24.812500,27.01
16:27:24.828125,22.81
16:27:24.843750,18.70
16:27:24.859375,15.14
16:27:24.875000,12.49
16:27:24.890625,10.93
16:27:24.906250,10.44
16:27:24.921875,10.87
16:27:24.937500,11.95
16:27:24.953125,13.30
16:27:24.968750,14.48
16:27:24.984375,15.09
16:27:25,14.82
16:27:25.015625,13.55
16:27:25.031250,11.37
16:27:25.046875,8.49
16:27:25.062500,5.20
16:27:25.078125,1.74
16:27:25.093750,-1.77
16:27:25.109375,-5.30
16:27:25.125000,-8.95
16:27:25.140625,-12.94
16:27:25.156250,-17.57
16:27:25.171875,-23.05
16:27:25.187500,-29.29
16:27:25.203125,-35.61
16:27:25.218750,-40.73
16:27:25.234375,-42.99
16:27:25.250000,-40.84
16:27:25.265625,-33.46
16:27:25.281250,-21.12
16:27:25.296875,-5.20
16:27:25.312500,12.17
16:27:25.328125,28.70
16:27:25.343750,42.63
16:27:25.359375,53.04
16:27:25.375000,59.84
16:27:25.390625,63.57
16:27:25.406250,64.96
16:27:25.421875,64.66
16:27:25.437500,63.14
16:27:25.453125,60.71
16:27:25.468750,57.62
16:27:25.484375,54.15
16:27:25.500000,50.61
16:27:25.515625,47.21
16:27:25.531250,44.01
16:27:25.546875,40.89
16:27:25.562500,37.61
16:27:25.578125,33.95
16:27:25.593750,29.73
16:27:25.609375,24.82
16:27:25.625000,19.12
16:27:25.640625,12.52
16:27:25.656250,5.03
16:27:25.671875,-3.14
16:27:25.687500,-11.56
16:27:25.703125,-19.66
16:27:25.718750,-26.95
16:27:25.734375,-33.27
16:27:25.750000,-38.82
16:27:25.765625,-44.12
16:27:25.781250,-49.83
16:27:25.796875,-56.50
16:27:25.812500,-64.29
16:27:25.828125,-72.79
16:27:25.843750,-80.93
16:27:25.859375,-87.07
16:27:25.875000,-89.37
16:27:25.890625,-86.27
16:27:25.906250,-77.12
16:27:25.921875,-62.47
16:27:25.937500,-44.11
16:27:25.953125,-24.49
16:27:25.968750,-6.04
16:27:25.984375,9.50
16:27:26,21.46
16:27:26.015625,30.04
16:27:26.031250,35.90
16:27:26.046875,39.66
16:27:26.062500,41.60
16:27:26.078125,41.67
16:27:26.093750,39.82
16:27:26.109375,36.22
16:27:26.125000,31.45
16:27:26.140625,26.36
16:27:26.156250,21.81
16:27:26.171875,18.32
16:27:26.187500,15.97
16:27:26.203125,14.43
16:27:26.218750,13.22
16:27:26.234375,11.92
16:27:26.250000,10.34
16:27:26.265625,8.45
16:27:26.281250,6.25
16:27:26.296875,3.67
16:27:26.312500,0.57
16:27:26.328125,-3.19
16:27:26.343750,-7.61
16:27:26.359375,-12.54
16:27:26.375000,-17.76
16:27:26.390625,-23.13
16:27:26.406250,-28.71
16:27:26.421875,-34.76
16:27:26.437500,-41.67
16:27:26.453125,-49.69
16:27:26.468750,-58.65
16:27:26.484375,-67.77
16:27:26.500000,-75.60
16:27:26.515625,-80.32
16:27:26.531250,-80.20
16:27:26.546875,-74.23
16:27:26.562500,-62.50
16:27:26.578125,-46.31
16:27:26.593750,-27.79
16:27:26.609375,-9.23
16:27:26.625000,7.55
16:27:26.640625,21.52
16:27:26.656250,32.48
16:27:26.671875,40.73
16:27:26.687500,46.76
16:27:26.703125,50.99
16:27:26.718750,53.71
16:27:26.734375,55.18
16:27:26.750000,55.62
16:27:26.765625,55.25
16:27:26.781250,54.25
16:27:26.796875,52.71
16:27:26.812500,50.62
16:27:26.828125,47.98
16:27:26.843750,44.90
16:27:26.859375,41.58
16:27:26.875000,38.35
16:27:26.890625,35.52
16:27:26.906250,33.25
16:27:26.921875,31.42
16:27:26.937500,29.65
16:27:26.953125,27.34
16:27:26.968750,24.00
16:27:26.984375,19.39
16:27:27,13.70
16:27:27.015625,7.45
16:27:27.031250,1.30
16:27:27.046875,-4.28
16:27:27.062500,-9.19
16:27:27.078125,-13.74
16:27:27.093750,-18.60
16:27:27.109375,-24.52
16:27:27.125000,-32.09
16:27:27.140625,-41.38
16:27:27.156250,-51.74
16:27:27.171875,-61.72
16:27:27.187500,-69.30
16:27:27.203125,-72.38
16:27:27.218750,-69.45
16:27:27.234375,-60.12
16:27:27.250000,-45.37
16:27:27.265625,-27.27
16:27:27.281250,-8.44
16:27:27.296875,8.77
16:27:27.312500,22.78
16:27:27.328125,33.00
16:27:27.343750,39.64
16:27:27.359375,43.31
16:27:27.375000,44.63
16:27:27.390625,44.03
16:27:27.406250,41.83
16:27:27.421875,38.30
16:27:27.437500,33.86
16:27:27.453125,29.10
16:27:27.468750,24.60
16:27:27.484375,20.82
16:27:27.500000,17.95
16:27:27.515625,15.90
16:27:27.531250,14.44
16:27:27.546875,13.36
16:27:27.562500,12.57
16:27:27.578125,12.02
16:27:27.593750,11.54
16:27:27.609375,10.80
16:27:27.625000,9.27
16:27:27.640625,6.46
16:27:27.656250,2.16
16:27:27.671875,-3.44
16:27:27.687500,-9.74
16:27:27.703125,-16.02
16:27:27.718750,-21.70
16:27:27.734375,-26.59
16:27:27.750000,-30.94
16:27:27.765625,-35.34
16:27:27.781250,-40.45
16:27:27.796875,-46.80
16:27:27.812500,-54.47
16:27:27.828125,-62.92
16:27:27.843750,-70.95
16:27:27.859375,-76.77
16:27:27.875000,-78.46
16:27:27.890625,-74.52
16:27:27.906250,-64.53
16:27:27.921875,-49.37
16:27:27.937500,-31.07
16:27:27.953125,-12.18
16:27:27.968750,5.00
16:27:27.984375,19.00
16:27:28,29.35
16:27:28.015625,36.33
16:27:28.031250,40.56
16:27:28.046875,42.59
16:27:28.062500,42.78
16:27:28.078125,41.36
16:27:28.093750,38.60
16:27:28.109375,34.92
16:27:28.125000,30.89
16:27:28.140625,27.06
16:27:28.156250,23.90
16:27:28.171875,21.58
16:27:28.187500,20.07
16:27:28.203125,19.18
16:27:28.218750,18.60
16:27:28.234375,18.06
16:27:28.250000,17.28
16:27:28.265625,16.02
16:27:28.281250,14.08
16:27:28.296875,11.32
16:27:28.312500,7.76
16:27:28.328125,3.57
16:27:28.343750,-0.91
16:27:28.359375,-5.29
16:27:28.375000,-9.28
16:27:28.390625,-12.82
16:27:28.406250,-16.22
16:27:28.421875,-20.05
16:27:28.437500,-25.01
16:27:28.453125,-31.53
16:27:28.468750,-39.42
16:27:28.484375,-47.65
16:27:28.500000,-54.47
16:27:28.515625,-57.83
16:27:28.531250,-56.01
16:27:28.546875,-48.32
16:27:28.562500,-35.37
16:27:28.578125,-18.94
16:27:28.593750,-1.46
16:27:28.609375,14.76
16:27:28.625000,28.08
16:27:28.640625,37.81
16:27:28.656250,44.10
16:27:28.671875,47.53
16:27:28.687500,48.77
16:27:28.703125,48.31
16:27:28.718750,46.40
16:27:28.734375,43.18
16:27:28.750000,38.88
16:27:28.765625,33.89
16:27:28.781250,28.78
16:27:28.796875,24.16
16:27:28.812500,20.51
16:27:28.828125,18.03
16:27:28.843750,16.61
16:27:28.859375,15.88
16:27:28.875000,15.39
16:27:28.890625,14.77
16:27:28.906250,13.74
16:27:28.921875,12.18
16:27:28.937500,10.05
16:27:28.953125,7.31
16:27:28.968750,3.99
16:27:28.984375,0.12
16:27:29,-4.19
16:27:29.015625,-8.88
16:27:29.031250,-13.96
16:27:29.046875,-19.61
16:27:29.062500,-26.19
16:27:29.078125,-33.99
16:27:29.093750,-42.95
16:27:29.109375,-52.38
16:27:29.125000,-60.84
16:27:29.140625,-66.41
16:27:29.156250,-67.24
16:27:29.171875,-62.19
16:27:29.187500,-51.28
16:27:29.203125,-35.79
16:27:29.218750,-17.91
16:27:29.234375,-0.12
