17:38:13,-0.00
17:38:13.015625,-0.00
17:38:13.031250,-0.00
17:38:13.046875,-0.00
17:38:13.062500,-0.00
17:38:13.078125,-0.00
17:38:13.093750,-0.00
17:38:13.109375,-0.00
17:38:13.125000,-0.00
17:38:13.140625,-0.00
17:38:13.156250,0.00
17:38:13.171875,0.01
17:38:13.187500,0.01
17:38:13.203125,-0.00
17:38:13.218750,-0.03
17:38:13.234375,-0.05
17:38:13.250000,-0.05
17:38:13.265625,0.00
17:38:13.281250,0.13
17:38:13.296875,0.36
17:38:13.312500,0.66
17:38:13.328125,1.01
17:38:13.343750,1.37
17:38:13.359375,1.72
17:38:13.375000,2.06
17:38:13.390625,2.40
17:38:13.406250,2.79
17:38:13.421875,3.25
17:38:13.437500,3.80
17:38:13.453125,4.41
17:38:13.468750,5.05
17:38:13.484375,5.65
17:38:13.500000,6.20
17:38:13.515625,6.71
17:38:13.531250,7.20
17:38:13.546875,7.74
17:38:13.562500,8.33
17:38:13.578125,9.04
17:38:13.593750,9.80
17:38:13.609375,10.50
17:38:13.625000,11.09
17:38:13.640625,11.53
17:38:13.656250,11.92
17:38:13.671875,12.43
17:38:13.687500,13.23
17:38:13.703125,14.45
17:38:13.718750,16.26
17:38:13.734375,18.47
17:38:13.750000,20.83
17:38:13.765625,23.08
17:38:13.781250,25.11
17:38:13.796875,27.03
17:38:13.812500,29.13
17:38:13.828125,31.77
17:38:13.843750,35.19
17:38:13.859375,39.69
17:38:13.875000,44.90
17:38:13.890625,50.34
17:38:13.906250,55.54
17:38:13.921875,60.29
17:38:13.937500,64.71
17:38:13.953125,69.23
17:38:13.968750,74.38
17:38:13.984375,80.45
17:38:14,87.79
17:38:14.015625,95.83
17:38:14.031250,103.92
17:38:14.046875,111.47
17:38:14.062500,118.24
17:38:14.078125,124.43
17:38:14.093750,130.61
17:38:14.109375,137.76
17:38:14.125000,144.10
17:38:14.140625,151.48
17:38:14.156250,160.39
17:38:14.171875,171.18
17:38:14.187500,183.22
17:38:14.203125,194.23
17:38:14.218750,200.24
17:38:14.234375,196.53
17:38:14.250000,179.19
17:38:14.265625,146.54
17:38:14.281250,100.30
17:38:14.296875,44.09
17:38:14.312500,-17.38
17:38:14.328125,-80.08
17:38:14.343750,-141.58
17:38:14.359375,-201.05
17:38:14.375000,-258.54
17:38:14.390625,-314.20
17:38:14.406250,-367.95
17:38:14.421875,-419.20
17:38:14.437500,-467.94
17:38:14.453125,-514.12
17:38:14.468750,-557.20
17:38:14.484375,-595.13
17:38:14.500000,-623.78
17:38:14.515625,-637.41
17:38:14.531250,-630.21
17:38:14.546875,-598.63
17:38:14.562500,-542.85
17:38:14.578125,-467.58
17:38:14.593750,-380.38
17:38:14.609375,-289.37
17:38:14.625000,-201.06
17:38:14.640625,-119.23
17:38:14.656250,-45.30
17:38:14.671875,20.55
17:38:14.687500,78.22
17:38:14.703125,127.41
17:38:14.718750,167.65
17:38:14.734375,198.98
17:38:14.750000,222.15
17:38:14.765625,238.33
17:38:14.781250,248.76
17:38:14.796875,254.31
17:38:14.812500,255.42
17:38:14.828125,252.17
17:38:14.843750,244.75
17:38:14.859375,233.56
17:38:14.875000,219.42
17:38:14.890625,203.73
17:38:14.906250,187.72
17:38:14.921875,172.33
17:38:14.937500,158.08
17:38:14.953125,144.98
17:38:14.968750,132.69
17:38:14.984375,120.78
17:38:15,108.95
17:38:15.015625,97.19
17:38:15.031250,85.80
17:38:15.046875,75.17
17:38:15.062500,65.66
17:38:15.078125,57.42
17:38:15.093750,50.29
17:38:15.109375,43.95
17:38:15.125000,38.01
17:38:15.140625,32.24
17:38:15.156250,26.56
17:38:15.171875,21.11
17:38:15.187500,16.01
17:38:15.203125,11.37
17:38:15.218750,7.21
17:38:15.234375,3.45
17:38:15.250000,0.01
17:38:15.265625,-3.16
17:38:15.281250,-6.11
17:38:15.296875,-8.84
17:38:15.312500,-11.37
17:38:15.328125,-13.74
17:38:15.343750,-15.97
17:38:15.359375,-18.07
17:38:15.375000,-20.02
17:38:15.390625,-21.76
17:38:15.406250,-23.20
17:38:15.421875,-24.32
17:38:15.437500,-25.11
17:38:15.453125,-25.57
17:38:15.468750,-25.74
17:38:15.484375,-25.55
17:38:15.500000,-24.91
17:38:15.515625,-23.89
17:38:15.531250,-22.53
17:38:15.546875,-20.90
17:38:15.562500,-19.16
17:38:15.578125,-17.44
17:38:15.593750,-15.86
17:38:15.609375,-14.40
17:38:15.625000,-13.00
17:38:15.640625,-11.57
17:38:15.656250,-10.13
17:38:15.671875,-8.76
17:38:15.687500,-7.59
17:38:15.703125,-6.72
17:38:15.718750,-6.16
17:38:15.734375,-5.78
17:38:15.750000,-5.44
17:38:15.765625,-5.01
17:38:15.781250,-4.44
17:38:15.796875,-3.77
17:38:15.812500,-3.01
17:38:15.828125,-2.24
17:38:15.843750,-1.46
17:38:15.859375,-0.71
17:38:15.875000,-0.01
17:38:15.890625,0.64
17:38:15.906250,1.19
17:38:15.921875,1.58
17:38:15.937500,1.77
17:38:15.953125,1.75
17:38:15.968750,1.57
17:38:15.984375,1.31
17:38:16,1.11
17:38:16.015625,1.11
17:38:16.031250,1.38
17:38:16.046875,1.92
17:38:16.062500,2.60
17:38:16.078125,3.27
17:38:16.093750,3.76
17:38:16.109375,3.97
17:38:16.125000,3.90
17:38:16.140625,3.64
17:38:16.156250,3.30
17:38:16.171875,3.00
17:38:16.187500,2.80
17:38:16.203125,2.69
17:38:16.218750,2.66
17:38:16.234375,2.68
17:38:16.250000,2.75
17:38:16.265625,2.87
17:38:16.281250,3.02
17:38:16.296875,3.16
17:38:16.312500,3.26
17:38:16.328125,3.29
17:38:16.343750,3.29
17:38:16.359375,3.29
17:38:16.375000,3.31
17:38:16.390625,3.36
17:38:16.406250,3.40
17:38:16.421875,3.43
17:38:16.437500,3.45
17:38:16.453125,3.50
17:38:16.468750,3.65
17:38:16.484375,3.92
17:38:16.500000,4.31
17:38:16.515625,4.81
17:38:16.531250,5.40
17:38:16.546875,6.07
17:38:16.562500,6.82
17:38:16.578125,7.63
17:38:16.593750,8.47
17:38:16.609375,9.27
17:38:16.625000,9.94
17:38:16.640625,10.39
17:38:16.656250,10.55
17:38:16.671875,10.36
17:38:16.687500,9.82
17:38:16.703125,8.93
17:38:16.718750,7.68
17:38:16.734375,6.06
17:38:16.750000,4.01
17:38:16.765625,1.53
17:38:16.781250,-1.28
17:38:16.796875,-4.23
17:38:16.812500,-7.03
17:38:16.828125,-9.38
17:38:16.843750,-11.07
17:38:16.859375,-12.04
17:38:16.875000,-12.36
17:38:16.890625,-12.13
17:38:16.906250,-11.45
17:38:16.921875,-10.40
17:38:16.937500,-9.02
17:38:16.953125,-7.41
17:38:16.968750,-5.69
17:38:16.984375,-4.00
17:38:17,-2.42
17:38:17.015625,-0.95
17:38:17.031250,0.49
17:38:17.046875,1.97
17:38:17.062500,3.52
17:38:17.078125,5.09
17:38:17.093750,6.60
17:38:17.109375,8.04
17:38:17.125000,9.46
17:38:17.140625,10.98
17:38:17.156250,12.69
17:38:17.171875,14.57
17:38:17.187500,16.51
17:38:17.203125,18.38
17:38:17.218750,20.07
17:38:17.234375,21.61
17:38:17.250000,23.16
17:38:17.265625,24.88
17:38:17.281250,26.86
17:38:17.296875,29.01
17:38:17.312500,31.16
17:38:17.328125,33.12
17:38:17.343750,34.75
17:38:17.359375,36.03
17:38:17.375000,37.03
17:38:17.390625,37.86
17:38:17.406250,38.57
17:38:17.421875,39.19
17:38:17.437500,39.68
17:38:17.453125,40.02
17:38:17.468750,40.15
17:38:17.484375,40.07
17:38:17.500000,39.77
17:38:17.515625,39.20
17:38:17.531250,38.33
17:38:17.546875,37.08
17:38:17.562500,35.43
17:38:17.578125,33.40
17:38:17.593750,31.09
17:38:17.609375,28.67
17:38:17.625000,26.29
17:38:17.640625,24.08
17:38:17.656250,22.05
17:38:17.671875,20.13
17:38:17.687500,18.22
17:38:17.703125,16.24
17:38:17.718750,14.17
17:38:17.734375,12.07
17:38:17.750000,10.06
17:38:17.765625,8.25
17:38:17.781250,6.72
17:38:17.796875,5.50
17:38:17.812500,4.52
17:38:17.828125,3.68
17:38:17.843750,2.84
17:38:17.859375,1.91
17:38:17.875000,0.89
17:38:17.890625,-0.14
17:38:17.906250,-1.05
17:38:17.921875,-1.79
17:38:17.937500,-2.36
17:38:17.953125,-2.81
17:38:17.968750,-3.26
17:38:17.984375,-3.72
17:38:18,-4.19
17:38:18.015625,-4.65
17:38:18.031250,-5.06
17:38:18.046875,-5.45
17:38:18.062500,-5.81
17:38:18.078125,-6.16
17:38:18.093750,-6.44
17:38:18.109375,-6.61
17:38:18.125000,-6.63
17:38:18.140625,-6.54
17:38:18.156250,-6.45
17:38:18.171875,-6.43
17:38:18.187500,-6.53
17:38:18.203125,-6.69
17:38:18.218750,-6.79
17:38:18.234375,-6.75
17:38:18.250000,-6.56
17:38:18.265625,-6.31
17:38:18.281250,-6.13
17:38:18.296875,-6.14
17:38:18.312500,-6.38
17:38:18.328125,-6.77
17:38:18.343750,-7.15
17:38:18.359375,-7.40
17:38:18.375000,-7.43
17:38:18.390625,-7.28
17:38:18.406250,-7.03
17:38:18.421875,-6.79
17:38:18.437500,-6.61
17:38:18.453125,-6.50
17:38:18.468750,-6.43
17:38:18.484375,-6.34
17:38:18.500000,-6.20
17:38:18.515625,-6.02
17:38:18.531250,-5.82
17:38:18.546875,-5.62
17:38:18.562500,-5.42
17:38:18.578125,-5.25
17:38:18.593750,-5.10
17:38:18.609375,-5.00
17:38:18.625000,-4.95
17:38:18.640625,-4.93
17:38:18.656250,-4.87
17:38:18.671875,-4.70
17:38:18.687500,-4.36
17:38:18.703125,-3.85
17:38:18.718750,-3.24
17:38:18.734375,-2.62
17:38:18.750000,-2.11
17:38:18.765625,-1.79
17:38:18.781250,-1.68
17:38:18.796875,-1.77
17:38:18.812500,-1.96
17:38:18.828125,-2.16
17:38:18.843750,-2.25
17:38:18.859375,-2.18
17:38:18.875000,-1.97
17:38:18.890625,-1.72
17:38:18.906250,-1.52
17:38:18.921875,-1.44
17:38:18.937500,-1.46
17:38:18.953125,-1.51
17:38:18.968750,-1.54
17:38:18.984375,-1.52
17:38:19,-1.48
17:38:19.015625,-1.44
17:38:19.031250,-1.41
17:38:19.046875,-1.36
17:38:19.062500,-1.26
17:38:19.078125,-1.16
17:38:19.093750,-1.15
17:38:19.109375,-1.31
17:38:19.125000,-1.66
17:38:19.140625,-2.13
17:38:19.156250,-2.56
17:38:19.171875,-2.85
17:38:19.187500,-2.98
17:38:19.203125,-3.03
17:38:19.218750,-3.12
17:38:19.234375,-3.29
17:38:19.250000,-3.51
17:38:19.265625,-3.65
17:38:19.281250,-3.61
17:38:19.296875,-3.38
17:38:19.312500,-3.07
17:38:19.328125,-2.80
17:38:19.343750,-2.69
17:38:19.359375,-2.77
17:38:19.375000,-2.99
17:38:19.390625,-3.27
17:38:19.406250,-3.48
17:38:19.421875,-3.59
17:38:19.437500,-3.58
17:38:19.453125,-3.44
17:38:19.468750,-3.21
17:38:19.484375,-2.88
17:38:19.500000,-2.50
17:38:19.515625,-2.12
17:38:19.531250,-1.80
17:38:19.546875,-1.62
17:38:19.562500,-1.59
17:38:19.578125,-1.69
17:38:19.593750,-1.80
17:38:19.609375,-1.82
17:38:19.625000,-1.68
17:38:19.640625,-1.40
17:38:19.656250,-1.06
17:38:19.671875,-0.77
17:38:19.687500,-0.57
17:38:19.703125,-0.46
17:38:19.718750,-0.38
17:38:19.734375,-0.29
17:38:19.750000,-0.18
17:38:19.765625,-0.06
17:38:19.781250,0.02
17:38:19.796875,0.04
17:38:19.812500,-0.03
17:38:19.828125,-0.18
17:38:19.843750,-0.40
17:38:19.859375,-0.65
17:38:19.875000,-0.87
17:38:19.890625,-0.98
17:38:19.906250,-0.93
17:38:19.921875,-0.72
17:38:19.937500,-0.42
17:38:19.953125,-0.12
17:38:19.968750,0.08
17:38:19.984375,0.13
17:38:20,0.01
17:38:20.015625,-0.22
17:38:20.031250,-0.53
17:38:20.046875,-0.84
17:38:20.062500,-1.09
17:38:20.078125,-1.24
17:38:20.093750,-1.29
17:38:20.109375,-1.30
17:38:20.125000,-1.36
17:38:20.140625,-1.52
17:38:20.156250,-1.78
17:38:20.171875,-2.07
17:38:20.187500,-2.30
17:38:20.203125,-2.37
17:38:20.218750,-2.29
17:38:20.234375,-2.10
17:38:20.250000,-1.88
17:38:20.265625,-1.68
17:38:20.281250,-1.49
17:38:20.296875,-1.29
17:38:20.312500,-1.04
17:38:20.328125,-0.74
17:38:20.343750,-0.42
17:38:20.359375,-0.10
17:38:20.375000,0.19
17:38:20.390625,0.41
17:38:20.406250,0.55
17:38:20.421875,0.56
17:38:20.437500,0.46
17:38:20.453125,0.31
17:38:20.468750,0.20
17:38:20.484375,0.16
17:38:20.500000,0.18
17:38:20.515625,0.18
17:38:20.531250,0.08
17:38:20.546875,-0.12
17:38:20.562500,-0.37
17:38:20.578125,-0.54
17:38:20.593750,-0.54
17:38:20.609375,-0.40
17:38:20.625000,-0.23
17:38:20.640625,-0.13
17:38:20.656250,-0.17
17:38:20.671875,-0.31
17:38:20.687500,-0.43
17:38:20.703125,-0.46
17:38:20.718750,-0.37
17:38:20.734375,-0.25
17:38:20.750000,-0.21
17:38:20.765625,-0.37
17:38:20.781250,-0.74
17:38:20.796875,-1.24
17:38:20.812500,-1.73
17:38:20.828125,-2.05
17:38:20.843750,-2.09
17:38:20.859375,-1.84
17:38:20.875000,-1.40
17:38:20.890625,-0.96
17:38:20.906250,-0.70
17:38:20.921875,-0.70
17:38:20.937500,-0.93
17:38:20.953125,-1.29
17:38:20.968750,-1.63
17:38:20.984375,-1.89
17:38:21,-2.04
17:38:21.015625,-2.14
17:38:21.031250,-2.22
17:38:21.046875,-2.27
17:38:21.062500,-2.25
17:38:21.078125,-2.12
17:38:21.093750,-1.86
17:38:21.109375,-1.52
17:38:21.125000,-1.17
17:38:21.140625,-0.86
17:38:21.156250,-0.58
17:38:21.171875,-0.32
17:38:21.187500,-0.05
17:38:21.203125,0.23
17:38:21.218750,0.47
17:38:21.234375,0.59
17:38:21.250000,0.60
17:38:21.265625,0.52
17:38:21.281250,0.43
17:38:21.296875,0.40
17:38:21.312500,0.41
17:38:21.328125,0.39
17:38:21.343750,0.24
17:38:21.359375,-0.05
17:38:21.375000,-0.40
17:38:21.390625,-0.64
17:38:21.406250,-0.65
17:38:21.421875,-0.43
17:38:21.437500,-0.08
17:38:21.453125,0.23
17:38:21.468750,0.37
17:38:21.484375,0.34
17:38:21.500000,0.24
17:38:21.515625,0.21
17:38:21.531250,0.35
17:38:21.546875,0.62
17:38:21.562500,0.92
17:38:21.578125,1.14
17:38:21.593750,1.21
17:38:21.609375,1.13
17:38:21.625000,0.97
17:38:21.640625,0.79
17:38:21.656250,0.61
17:38:21.671875,0.42
17:38:21.687500,0.19
17:38:21.703125,-0.10
17:38:21.718750,-0.40
17:38:21.734375,-0.64
17:38:21.750000,-0.76
17:38:21.765625,-0.75
17:38:21.781250,-0.68
17:38:21.796875,-0.66
17:38:21.812500,-0.79
17:38:21.828125,-1.09
17:38:21.843750,-1.50
17:38:21.859375,-1.89
17:38:21.875000,-2.16
17:38:21.890625,-2.24
17:38:21.906250,-2.14
17:38:21.921875,-1.89
17:38:21.937500,-1.61
17:38:21.953125,-1.36
17:38:21.968750,-1.20
17:38:21.984375,-1.13
17:38:22,-1.06
17:38:22.015625,-0.90
17:38:22.031250,-0.61
17:38:22.046875,-0.24
17:38:22.062500,0.04
17:38:22.078125,0.07
17:38:22.093750,-0.23
17:38:22.109375,-0.76
17:38:22.125000,-1.29
17:38:22.140625,-1.56
17:38:22.156250,-1.49
17:38:22.171875,-1.15
17:38:22.187500,-0.75
17:38:22.203125,-0.49
17:38:22.218750,-0.42
17:38:22.234375,-0.47
17:38:22.250000,-0.49
17:38:22.265625,-0.39
17:38:22.281250,-0.17
17:38:22.296875,0.07
17:38:22.312500,0.26
17:38:22.328125,0.40
17:38:22.343750,0.58
17:38:22.359375,0.88
17:38:22.375000,1.31
17:38:22.390625,1.76
17:38:22.406250,2.07
17:38:22.421875,2.13
17:38:22.437500,1.88
17:38:22.453125,1.42
17:38:22.468750,0.86
17:38:22.484375,0.34
17:38:22.500000,-0.06
17:38:22.515625,-0.30
17:38:22.531250,-0.33
17:38:22.546875,-0.14
17:38:22.562500,0.26
17:38:22.578125,0.76
17:38:22.593750,1.22
17:38:22.609375,1.47
17:38:22.625000,1.39
17:38:22.640625,1.00
17:38:22.656250,0.42
17:38:22.671875,-0.18
17:38:22.687500,-0.64
17:38:22.703125,-0.88
17:38:22.718750,-0.90
17:38:22.734375,-0.73
17:38:22.750000,-0.44
17:38:22.765625,-0.12
17:38:22.781250,0.11
17:38:22.796875,0.16
17:38:22.812500,-0.05
17:38:22.828125,-0.53
17:38:22.843750,-1.22
17:38:22.859375,-2.02
17:38:22.875000,-2.81
17:38:22.890625,-3.50
17:38:22.906250,-4.04
17:38:22.921875,-4.37
17:38:22.937500,-4.44
17:38:22.953125,-4.18
17:38:22.968750,-3.55
17:38:22.984375,-2.57
17:38:23,-1.31
17:38:23.015625,0.09
17:38:23.031250,1.48
17:38:23.046875,2.69
17:38:23.062500,3.61
17:38:23.078125,4.15
17:38:23.093750,4.29
17:38:23.109375,4.08
17:38:23.125000,3.56
17:38:23.140625,2.80
17:38:23.156250,1.84
17:38:23.171875,0.77
17:38:23.187500,-0.34
17:38:23.203125,-1.36
17:38:23.218750,-2.16
17:38:23.234375,-2.62
17:38:23.250000,-2.69
17:38:23.265625,-2.39
17:38:23.281250,-1.86
17:38:23.296875,-1.27
17:38:23.312500,-0.82
17:38:23.328125,-0.65
17:38:23.343750,-0.80
17:38:23.359375,-1.18
17:38:23.375000,-1.60
17:38:23.390625,-1.87
17:38:23.406250,-1.86
17:38:23.421875,-1.55
17:38:23.437500,-1.08
17:38:23.453125,-0.62
17:38:23.468750,-0.36
17:38:23.484375,-0.40
17:38:23.500000,-0.78
17:38:23.515625,-1.45
17:38:23.531250,-2.30
17:38:23.546875,-3.18
17:38:23.562500,-3.92
17:38:23.578125,-4.37
17:38:23.593750,-4.47
17:38:23.609375,-4.28
17:38:23.625000,-3.98
17:38:23.640625,-3.80
17:38:23.656250,-3.88
17:38:23.671875,-4.25
17:38:23.687500,-4.80
17:38:23.703125,-5.35
17:38:23.718750,-5.78
17:38:23.734375,-6.03
17:38:23.750000,-6.17
17:38:23.765625,-6.34
17:38:23.781250,-6.63
17:38:23.796875,-7.08
17:38:23.812500,-7.59
17:38:23.828125,-8.02
17:38:23.843750,-8.19
17:38:23.859375,-7.96
17:38:23.875000,-7.31
17:38:23.890625,-6.28
17:38:23.906250,-5.02
17:38:23.921875,-3.67
17:38:23.937500,-2.34
17:38:23.953125,-1.06
17:38:23.968750,0.20
17:38:23.984375,1.50
17:38:24,2.84
17:38:24.015625,4.19
17:38:24.031250,5.49
17:38:24.046875,6.71
17:38:24.062500,7.84
17:38:24.078125,8.92
17:38:24.093750,9.96
17:38:24.109375,10.90
17:38:24.125000,11.63
17:38:24.140625,11.98
17:38:24.156250,11.87
17:38:24.171875,11.32
17:38:24.187500,10.48
17:38:24.203125,9.57
17:38:24.218750,8.79
17:38:24.234375,8.22
17:38:24.250000,7.76
17:38:24.265625,7.23
17:38:24.281250,6.48
17:38:24.296875,5.43
17:38:24.312500,4.12
17:38:24.328125,2.72
17:38:24.343750,1.40
17:38:24.359375,0.29
17:38:24.375000,-0.57
17:38:24.390625,-1.22
17:38:24.406250,-1.67
17:38:24.421875,-1.90
17:38:24.437500,-1.79
17:38:24.453125,-1.22
17:38:24.468750,-0.12
17:38:24.484375,1.39
17:38:24.500000,3.06
17:38:24.515625,4.49
17:38:24.531250,5.35
17:38:24.546875,5.47
17:38:24.562500,4.90
17:38:24.578125,3.90
17:38:24.593750,2.76
17:38:24.609375,1.70
17:38:24.625000,0.79
17:38:24.640625,0.01
17:38:24.656250,-0.74
17:38:24.671875,-1.50
17:38:24.687500,-2.25
17:38:24.703125,-2.90
17:38:24.718750,-3.40
17:38:24.734375,-3.71
17:38:24.750000,-3.85
17:38:24.765625,-3.83
17:38:24.781250,-3.66
17:38:24.796875,-3.32
17:38:24.812500,-2.78
17:38:24.828125,-2.06
17:38:24.843750,-1.23
17:38:24.859375,-0.41
17:38:24.875000,0.27
17:38:24.890625,0.72
17:38:24.906250,0.87
17:38:24.921875,0.73
17:38:24.937500,0.36
17:38:24.953125,-0.15
17:38:24.968750,-0.72
17:38:24.984375,-1.24
17:38:25,-1.64
17:38:25.015625,-1.84
17:38:25.031250,-1.84
17:38:25.046875,-1.65
17:38:25.062500,-1.33
17:38:25.078125,-0.94
17:38:25.093750,-0.53
17:38:25.109375,-0.10
17:38:25.125000,0.37
17:38:25.140625,0.87
17:38:25.156250,1.33
17:38:25.171875,1.66
17:38:25.187500,1.76
17:38:25.203125,1.60
17:38:25.218750,1.26
17:38:25.234375,0.86
17:38:25.250000,0.56
17:38:25.265625,0.43
17:38:25.281250,0.48
17:38:25.296875,0.60
17:38:25.312500,0.69
17:38:25.328125,0.66
17:38:25.343750,0.51
17:38:25.359375,0.25
17:38:25.375000,-0.05
17:38:25.390625,-0.37
17:38:25.406250,-0.64
17:38:25.421875,-0.83
17:38:25.437500,-0.91
17:38:25.453125,-0.89
17:38:25.468750,-0.84
17:38:25.484375,-0.85
17:38:25.500000,-1.00
17:38:25.515625,-1.29
17:38:25.531250,-1.64
17:38:25.546875,-1.94
17:38:25.562500,-2.11
17:38:25.578125,-2.13
17:38:25.593750,-2.09
17:38:25.609375,-2.06
17:38:25.625000,-2.08
17:38:25.640625,-2.11
17:38:25.656250,-2.07
17:38:25.671875,-1.89
17:38:25.687500,-1.56
17:38:25.703125,-1.16
17:38:25.718750,-0.78
17:38:25.734375,-0.51
17:38:25.750000,-0.36
17:38:25.765625,-0.32
17:38:25.781250,-0.33
17:38:25.796875,-0.31
17:38:25.812500,-0.26
17:38:25.828125,-0.19
17:38:25.843750,-0.15
17:38:25.859375,-0.18
17:38:25.875000,-0.31
17:38:25.890625,-0.48
17:38:25.906250,-0.60
17:38:25.921875,-0.63
17:38:25.937500,-0.53
17:38:25.953125,-0.37
17:38:25.968750,-0.26
17:38:25.984375,-0.28
17:38:26,-0.42
17:38:26.015625,-0.62
17:38:26.031250,-0.76
17:38:26.046875,-0.77
17:38:26.062500,-0.63
17:38:26.078125,-0.41
17:38:26.093750,-0.20
17:38:26.109375,-0.05
17:38:26.125000,0.02
17:38:26.140625,0.04
17:38:26.156250,0.03
17:38:26.171875,0.01
17:38:26.187500,-0.10
17:38:26.203125,-0.35
17:38:26.218750,-0.82
17:38:26.234375,-1.44
17:38:26.250000,-2.10
17:38:26.265625,-2.60
17:38:26.281250,-2.80
17:38:26.296875,-2.66
17:38:26.312500,-2.23
17:38:26.328125,-1.65
17:38:26.343750,-1.06
17:38:26.359375,-0.57
17:38:26.375000,-0.22
17:38:26.390625,-0.03
17:38:26.406250,-0.01
17:38:26.421875,-0.14
17:38:26.437500,-0.38
17:38:26.453125,-0.61
17:38:26.468750,-0.68
17:38:26.484375,-0.49
17:38:26.500000,-0.04
17:38:26.515625,0.51
17:38:26.531250,0.94
17:38:26.546875,1.05
17:38:26.562500,0.81
17:38:26.578125,0.37
17:38:26.593750,-0.04
17:38:26.609375,-0.20
17:38:26.625000,-0.07
17:38:26.640625,0.27
17:38:26.656250,0.64
17:38:26.671875,0.93
17:38:26.687500,1.08
17:38:26.703125,1.17
17:38:26.718750,1.25
17:38:26.734375,1.30
17:38:26.750000,1.23
17:38:26.765625,0.91
17:38:26.781250,0.35
17:38:26.796875,-0.32
17:38:26.812500,-0.89
17:38:26.828125,-1.18
17:38:26.843750,-1.13
17:38:26.859375,-0.91
17:38:26.875000,-0.74
17:38:26.890625,-0.82
17:38:26.906250,-1.17
17:38:26.921875,-1.64
17:38:26.937500,-1.97
17:38:26.953125,-1.99
17:38:26.968750,-1.68
17:38:26.984375,-1.16
17:38:27,-0.63
17:38:27.015625,-0.25
17:38:27.031250,-0.04
17:38:27.046875,0.07
17:38:27.062500,0.15
17:38:27.078125,0.23
17:38:27.093750,0.26
17:38:27.109375,0.23
17:38:27.125000,0.11
17:38:27.140625,-0.03
17:38:27.156250,-0.10
17:38:27.171875,-0.02
17:38:27.187500,0.23
17:38:27.203125,0.57
17:38:27.218750,0.88
17:38:27.234375,1.05
17:38:27.250000,0.97
17:38:27.265625,0.61
17:38:27.281250,0.07
17:38:27.296875,-0.48
17:38:27.312500,-0.84
17:38:27.328125,-0.87
17:38:27.343750,-0.58
17:38:27.359375,-0.11
17:38:27.375000,0.34
17:38:27.390625,0.58
17:38:27.406250,0.53
17:38:27.421875,0.24
17:38:27.437500,-0.15
17:38:27.453125,-0.53
17:38:27.468750,-0.85
17:38:27.484375,-1.08
17:38:27.500000,-1.24
17:38:27.515625,-1.32
17:38:27.531250,-1.31
17:38:27.546875,-1.22
17:38:27.562500,-1.10
17:38:27.578125,-1.02
17:38:27.593750,-1.07
17:38:27.609375,-1.28
17:38:27.625000,-1.61
17:38:27.640625,-1.97
17:38:27.656250,-2.21
17:38:27.671875,-2.24
17:38:27.687500,-1.99
17:38:27.703125,-1.51
17:38:27.718750,-0.91
17:38:27.734375,-0.35
17:38:27.750000,0.02
17:38:27.765625,0.13
17:38:27.781250,0.03
17:38:27.796875,-0.14
17:38:27.812500,-0.23
17:38:27.828125,-0.11
17:38:27.843750,0.20
17:38:27.859375,0.58
17:38:27.875000,0.91
17:38:27.890625,1.08
17:38:27.906250,1.09
17:38:27.921875,1.04
17:38:27.937500,1.05
17:38:27.953125,1.15
17:38:27.968750,1.31
17:38:27.984375,1.41
17:38:28,1.38
17:38:28.015625,1.21
17:38:28.031250,0.97
17:38:28.046875,0.79
17:38:28.062500,0.75
17:38:28.078125,0.84
17:38:28.093750,1.03
17:38:28.109375,1.22
17:38:28.125000,1.30
17:38:28.140625,1.24
17:38:28.156250,1.01
17:38:28.171875,0.61
17:38:28.187500,0.08
17:38:28.203125,-0.51
17:38:28.218750,-1.02
17:38:28.234375,-1.30
17:38:28.250000,-1.24
17:38:28.265625,-0.86
17:38:28.281250,-0.32
17:38:28.296875,0.13
17:38:28.312500,0.27
17:38:28.328125,-0.01
17:38:28.343750,-0.63
17:38:28.359375,-1.37
17:38:28.375000,-2.01
17:38:28.390625,-2.39
17:38:28.406250,-2.51
17:38:28.421875,-2.42
17:38:28.437500,-2.23
17:38:28.453125,-1.98
17:38:28.468750,-1.64
17:38:28.484375,-1.17
17:38:28.500000,-0.56
17:38:28.515625,0.12
17:38:28.531250,0.77
17:38:28.546875,1.21
17:38:28.562500,1.38
17:38:28.578125,1.29
17:38:28.593750,1.05
17:38:28.609375,0.79
17:38:28.625000,0.61
17:38:28.640625,0.51
17:38:28.656250,0.43
17:38:28.671875,0.32
17:38:28.687500,0.19
17:38:28.703125,0.13
17:38:28.718750,0.21
17:38:28.734375,0.46
17:38:28.750000,0.81
17:38:28.765625,1.13
17:38:28.781250,1.28
17:38:28.796875,1.23
17:38:28.812500,1.09
17:38:28.828125,0.97
17:38:28.843750,0.98
17:38:28.859375,1.10
17:38:28.875000,1.19
17:38:28.890625,1.08
17:38:28.906250,0.70
17:38:28.921875,0.07
17:38:28.937500,-0.62
17:38:28.953125,-1.17
17:38:28.968750,-1.44
17:38:28.984375,-1.39
17:38:29,-1.10
17:38:29.015625,-0.72
17:38:29.031250,-0.35
17:38:29.046875,-0.08
17:38:29.062500,0.09
17:38:29.078125,0.16
17:38:29.093750,0.17
17:38:29.109375,0.14
17:38:29.125000,0.06
17:38:29.140625,-0.08
17:38:29.156250,-0.28
17:38:29.171875,-0.50
17:38:29.187500,-0.70
17:38:29.203125,-0.83
17:38:29.218750,-0.89
17:38:29.234375,-0.89
17:38:29.250000,-0.86
17:38:29.265625,-0.85
17:38:29.281250,-0.88
17:38:29.296875,-0.95
17:38:29.312500,-1.00
17:38:29.328125,-1.01
17:38:29.343750,-0.97
17:38:29.359375,-0.87
17:38:29.375000,-0.72
17:38:29.390625,-0.55
17:38:29.406250,-0.34
17:38:29.421875,-0.10
17:38:29.437500,0.16
17:38:29.453125,0.42
17:38:29.468750,0.64
17:38:29.484375,0.75
17:38:29.500000,0.73
17:38:29.515625,0.61
17:38:29.531250,0.46
17:38:29.546875,0.41
17:38:29.562500,0.53
17:38:29.578125,0.85
17:38:29.593750,1.26
17:38:29.609375,1.61
17:38:29.625000,1.74
17:38:29.640625,1.61
17:38:29.656250,1.27
17:38:29.671875,0.88
17:38:29.687500,0.59
17:38:29.703125,0.48
17:38:29.718750,0.51
17:38:29.734375,0.59
17:38:29.750000,0.64
17:38:29.765625,0.62
17:38:29.781250,0.55
17:38:29.796875,0.43
17:38:29.812500,0.22
17:38:29.828125,-0.15
17:38:29.843750,-0.67
17:38:29.859375,-1.27
17:38:29.875000,-1.74
17:38:29.890625,-1.89
17:38:29.906250,-1.63
17:38:29.921875,-1.03
17:38:29.937500,-0.33
17:38:29.953125,0.20
17:38:29.968750,0.39
17:38:29.984375,0.24
17:38:30,-0.15
17:38:30.015625,-0.57
17:38:30.031250,-0.88
17:38:30.046875,-1.05
17:38:30.062500,-1.12
17:38:30.078125,-1.15
17:38:30.093750,-1.20
17:38:30.109375,-1.27
17:38:30.125000,-1.30
17:38:30.140625,-1.26
17:38:30.156250,-1.14
17:38:30.171875,-1.02
17:38:30.187500,-0.96
17:38:30.203125,-1.05
17:38:30.218750,-1.29
17:38:30.234375,-1.57
17:38:30.250000,-1.80
17:38:30.265625,-1.90
17:38:30.281250,-1.90
17:38:30.296875,-1.90
17:38:30.312500,-1.98
17:38:30.328125,-2.19
17:38:30.343750,-2.44
17:38:30.359375,-2.62
17:38:30.375000,-2.63
17:38:30.390625,-2.49
17:38:30.406250,-2.26
17:38:30.421875,-2.05
17:38:30.437500,-1.89
17:38:30.453125,-1.74
17:38:30.468750,-1.48
17:38:30.484375,-1.07
17:38:30.500000,-0.54
17:38:30.515625,-0.02
17:38:30.531250,0.36
17:38:30.546875,0.53
17:38:30.562500,0.54
17:38:30.578125,0.50
17:38:30.593750,0.48
17:38:30.609375,0.52
17:38:30.625000,0.56
17:38:30.640625,0.53
17:38:30.656250,0.42
17:38:30.671875,0.29
17:38:30.687500,0.26
17:38:30.703125,0.42
17:38:30.718750,0.79
17:38:30.734375,1.28
17:38:30.750000,1.73
17:38:30.765625,1.99
17:38:30.781250,1.96
17:38:30.796875,1.65
17:38:30.812500,1.18
17:38:30.828125,0.68
17:38:30.843750,0.32
17:38:30.859375,0.20
17:38:30.875000,0.33
17:38:30.890625,0.61
17:38:30.906250,0.87
17:38:30.921875,0.99
17:38:30.937500,0.87
17:38:30.953125,0.53
17:38:30.968750,0.05
17:38:30.984375,-0.48
17:38:31,-0.98
17:38:31.015625,-1.39
17:38:31.031250,-1.66
17:38:31.046875,-1.75
17:38:31.062500,-1.64
17:38:31.078125,-1.37
17:38:31.093750,-1.01
17:38:31.109375,-0.69
17:38:31.125000,-0.50
17:38:31.140625,-0.49
17:38:31.156250,-0.65
17:38:31.171875,-0.91
17:38:31.187500,-1.24
17:38:31.203125,-1.59
17:38:31.218750,-1.94
17:38:31.234375,-2.29
17:38:31.250000,-2.60
17:38:31.265625,-2.88
17:38:31.281250,-3.14
17:38:31.296875,-3.42
17:38:31.312500,-3.73
17:38:31.328125,-4.07
17:38:31.343750,-4.35
17:38:31.359375,-4.44
17:38:31.375000,-4.29
17:38:31.390625,-3.89
17:38:31.406250,-3.34
17:38:31.421875,-2.78
17:38:31.437500,-2.31
17:38:31.453125,-2.03
17:38:31.468750,-1.93
17:38:31.484375,-1.98
17:38:31.500000,-2.12
17:38:31.515625,-2.24
17:38:31.531250,-2.28
17:38:31.546875,-2.18
17:38:31.562500,-1.96
17:38:31.578125,-1.73
17:38:31.593750,-1.61
17:38:31.609375,-1.71
17:38:31.625000,-2.06
17:38:31.640625,-2.55
17:38:31.656250,-3.01
17:38:31.671875,-3.19
17:38:31.687500,-2.88
17:38:31.703125,-1.87
17:38:31.718750,-0.03
17:38:31.734375,2.70
17:38:31.750000,6.27
17:38:31.765625,10.50
17:38:31.781250,15.12
17:38:31.796875,19.78
17:38:31.812500,24.15
17:38:31.828125,27.99
17:38:31.843750,31.19
17:38:31.859375,33.61
17:38:31.875000,35.13
17:38:31.890625,35.54
17:38:31.906250,34.65
17:38:31.921875,32.43
17:38:31.937500,29.06
17:38:31.953125,24.97
17:38:31.968750,20.70
17:38:31.984375,16.68
17:38:32,13.14
17:38:32.015625,10.05
17:38:32.031250,7.24
17:38:32.046875,4.52
17:38:32.062500,1.84
17:38:32.078125,-0.68
17:38:32.093750,-2.83
17:38:32.109375,-4.42
17:38:32.125000,-5.42
17:38:32.140625,-5.93
17:38:32.156250,-6.21
17:38:32.171875,-6.55
17:38:32.187500,-7.17
17:38:32.203125,-8.14
17:38:32.218750,-9.37
17:38:32.234375,-10.66
17:38:32.250000,-11.86
17:38:32.265625,-12.87
17:38:32.281250,-13.71
17:38:32.296875,-14.47
17:38:32.312500,-15.28
17:38:32.328125,-16.17
17:38:32.343750,-17.13
17:38:32.359375,-18.05
17:38:32.375000,-18.78
17:38:32.390625,-19.18
17:38:32.406250,-19.17
17:38:32.421875,-18.76
17:38:32.437500,-17.99
17:38:32.453125,-16.93
17:38:32.468750,-15.62
17:38:32.484375,-14.05
17:38:32.500000,-12.21
17:38:32.515625,-10.16
17:38:32.531250,-8.04
17:38:32.546875,-6.05
17:38:32.562500,-4.37
17:38:32.578125,-3.06
17:38:32.593750,-2.05
17:38:32.609375,-1.19
17:38:32.625000,-0.32
17:38:32.640625,0.60
17:38:32.656250,1.49
17:38:32.671875,2.25
17:38:32.687500,2.80
17:38:32.703125,3.16
17:38:32.718750,3.40
17:38:32.734375,3.61
17:38:32.750000,3.84
17:38:32.765625,4.07
17:38:32.781250,4.25
17:38:32.796875,4.33
17:38:32.812500,4.26
17:38:32.828125,4.02
17:38:32.843750,3.61
17:38:32.859375,3.07
17:38:32.875000,2.44
17:38:32.890625,1.84
17:38:32.906250,1.35
17:38:32.921875,1.08
17:38:32.937500,1.01
17:38:32.953125,1.06
17:38:32.968750,1.07
17:38:32.984375,0.87
17:38:33,0.42
17:38:33.015625,-0.21
17:38:33.031250,-0.87
17:38:33.046875,-1.37
17:38:33.062500,-1.65
17:38:33.078125,-1.71
17:38:33.093750,-1.67
17:38:33.109375,-1.59
17:38:33.125000,-1.51
17:38:33.140625,-1.41
17:38:33.156250,-1.30
17:38:33.171875,-1.21
17:38:33.187500,-1.24
17:38:33.203125,-1.45
17:38:33.218750,-1.80
17:38:33.234375,-2.15
17:38:33.250000,-2.32
17:38:33.265625,-2.21
17:38:33.281250,-1.81
17:38:33.296875,-1.24
17:38:33.312500,-0.66
17:38:33.328125,-0.17
17:38:33.343750,0.23
17:38:33.359375,0.62
17:38:33.375000,1.06
17:38:33.390625,1.54
17:38:33.406250,2.01
17:38:33.421875,2.37
17:38:33.437500,2.57
17:38:33.453125,2.65
17:38:33.468750,2.69
17:38:33.484375,2.76
17:38:33.500000,2.85
17:38:33.515625,2.91
17:38:33.531250,2.84
17:38:33.546875,2.62
17:38:33.562500,2.29
17:38:33.578125,1.93
17:38:33.593750,1.55
17:38:33.609375,1.16
17:38:33.625000,0.70
17:38:33.640625,0.17
17:38:33.656250,-0.40
17:38:33.671875,-0.92
17:38:33.687500,-1.28
17:38:33.703125,-1.44
17:38:33.718750,-1.39
17:38:33.734375,-1.17
17:38:33.750000,-0.86
17:38:33.765625,-0.51
17:38:33.781250,-0.21
17:38:33.796875,-0.05
17:38:33.812500,-0.10
17:38:33.828125,-0.36
17:38:33.843750,-0.74
17:38:33.859375,-1.06
17:38:33.875000,-1.18
17:38:33.890625,-1.04
17:38:33.906250,-0.73
17:38:33.921875,-0.40
17:38:33.937500,-0.20
17:38:33.953125,-0.20
17:38:33.968750,-0.41
17:38:33.984375,-0.73
17:38:34,-1.04
17:38:34.015625,-1.25
17:38:34.031250,-1.33
17:38:34.046875,-1.36
17:38:34.062500,-1.42
17:38:34.078125,-1.59
17:38:34.093750,-1.88
17:38:34.109375,-2.17
17:38:34.125000,-2.35
17:38:34.140625,-2.30
17:38:34.156250,-2.02
17:38:34.171875,-1.62
17:38:34.187500,-1.25
17:38:34.203125,-1.01
17:38:34.218750,-0.91
17:38:34.234375,-0.85
17:38:34.250000,-0.75
17:38:34.265625,-0.55
17:38:34.281250,-0.33
17:38:34.296875,-0.18
17:38:34.312500,-0.16
17:38:34.328125,-0.20
17:38:34.343750,-0.18
17:38:34.359375,0.01
17:38:34.375000,0.42
17:38:34.390625,0.96
17:38:34.406250,1.48
17:38:34.421875,1.81
17:38:34.437500,1.91
17:38:34.453125,1.77
17:38:34.468750,1.47
17:38:34.484375,1.09
17:38:34.500000,0.68
17:38:34.515625,0.28
17:38:34.531250,-0.07
17:38:34.546875,-0.36
17:38:34.562500,-0.58
17:38:34.578125,-0.74
17:38:34.593750,-0.90
17:38:34.609375,-1.09
17:38:34.625000,-1.32
17:38:34.640625,-1.54
17:38:34.656250,-1.69
17:38:34.671875,-1.75
17:38:34.687500,-1.74
17:38:34.703125,-1.72
17:38:34.718750,-1.74
17:38:34.734375,-1.82
17:38:34.750000,-1.93
17:38:34.765625,-2.01
17:38:34.781250,-2.01
17:38:34.796875,-1.90
17:38:34.812500,-1.65
17:38:34.828125,-1.26
17:38:34.843750,-0.71
17:38:34.859375,-0.06
17:38:34.875000,0.58
17:38:34.890625,1.07
17:38:34.906250,1.27
17:38:34.921875,1.08
17:38:34.937500,0.52
17:38:34.953125,-0.31
17:38:34.968750,-1.24
17:38:34.984375,-2.04
17:38:35,-2.55
17:38:35.015625,-2.64
17:38:35.031250,-2.33
17:38:35.046875,-1.71
17:38:35.062500,-0.98
17:38:35.078125,-0.30
17:38:35.093750,0.23
17:38:35.109375,0.61
17:38:35.125000,0.90
17:38:35.140625,1.18
17:38:35.156250,1.43
17:38:35.171875,1.59
17:38:35.187500,1.57
17:38:35.203125,1.36
17:38:35.218750,1.00
17:38:35.234375,0.60
17:38:35.250000,0.26
17:38:35.265625,0.06
17:38:35.281250,0.04
17:38:35.296875,0.24
17:38:35.312500,0.72
17:38:35.328125,1.47
17:38:35.343750,2.43
17:38:35.359375,3.46
17:38:35.375000,4.37
17:38:35.390625,5.05
17:38:35.406250,5.45
17:38:35.421875,5.63
17:38:35.437500,5.63
17:38:35.453125,5.48
17:38:35.468750,5.13
17:38:35.484375,4.54
17:38:35.500000,3.68
17:38:35.515625,2.67
17:38:35.531250,1.66
17:38:35.546875,0.83
17:38:35.562500,0.29
17:38:35.578125,0.05
17:38:35.593750,0.02
17:38:35.609375,0.08
17:38:35.625000,0.13
17:38:35.640625,0.10
17:38:35.656250,-0.02
17:38:35.671875,-0.25
17:38:35.687500,-0.61
17:38:35.703125,-1.10
17:38:35.718750,-1.69
17:38:35.734375,-2.34
17:38:35.750000,-2.96
17:38:35.765625,-3.46
17:38:35.781250,-3.77
17:38:35.796875,-3.84
17:38:35.812500,-3.69
17:38:35.828125,-3.38
17:38:35.843750,-2.97
17:38:35.859375,-2.55
17:38:35.875000,-2.17
17:38:35.890625,-1.86
17:38:35.906250,-1.61
17:38:35.921875,-1.39
17:38:35.937500,-1.18
17:38:35.953125,-0.99
17:38:35.968750,-0.87
17:38:35.984375,-0.85
17:38:36,-0.96
17:38:36.015625,-1.12
17:38:36.031250,-1.24
17:38:36.046875,-1.25
17:38:36.062500,-1.14
17:38:36.078125,-0.97
17:38:36.093750,-0.83
17:38:36.109375,-0.77
17:38:36.125000,-0.79
17:38:36.140625,-0.85
17:38:36.156250,-0.88
17:38:36.171875,-0.83
17:38:36.187500,-0.72
17:38:36.203125,-0.59
17:38:36.218750,-0.49
17:38:36.234375,-0.43
17:38:36.250000,-0.42
17:38:36.265625,-0.42
17:38:36.281250,-0.39
17:38:36.296875,-0.34
17:38:36.312500,-0.32
17:38:36.328125,-0.38
17:38:36.343750,-0.53
17:38:36.359375,-0.72
17:38:36.375000,-0.84
17:38:36.390625,-0.83
17:38:36.406250,-0.67
17:38:36.421875,-0.43
17:38:36.437500,-0.24
17:38:36.453125,-0.19
17:38:36.468750,-0.33
17:38:36.484375,-0.58
17:38:36.500000,-0.84
17:38:36.515625,-1.02
17:38:36.531250,-1.08
17:38:36.546875,-1.01
17:38:36.562500,-0.85
17:38:36.578125,-0.63
17:38:36.593750,-0.39
17:38:36.609375,-0.13
17:38:36.625000,0.11
17:38:36.640625,0.36
17:38:36.656250,0.62
17:38:36.671875,0.93
17:38:36.687500,1.26
17:38:36.703125,1.60
17:38:36.718750,1.90
17:38:36.734375,2.11
17:38:36.750000,2.20
17:38:36.765625,2.13
17:38:36.781250,1.90
17:38:36.796875,1.52
17:38:36.812500,1.02
17:38:36.828125,0.49
17:38:36.843750,-0.00
17:38:36.859375,-0.37
17:38:36.875000,-0.55
17:38:36.890625,-0.51
17:38:36.906250,-0.30
17:38:36.921875,0.07
17:38:36.937500,0.48
17:38:36.953125,0.87
17:38:36.968750,1.11
17:38:36.984375,1.15
17:38:37,0.96
17:38:37.015625,0.59
17:38:37.031250,0.16
17:38:37.046875,-0.22
17:38:37.062500,-0.44
17:38:37.078125,-0.48
17:38:37.093750,-0.35
17:38:37.109375,-0.14
17:38:37.125000,0.05
17:38:37.140625,0.12
17:38:37.156250,0.06
17:38:37.171875,-0.11
17:38:37.187500,-0.33
17:38:37.203125,-0.54
17:38:37.218750,-0.73
17:38:37.234375,-0.93
17:38:37.250000,-1.18
17:38:37.265625,-1.45
17:38:37.281250,-1.66
17:38:37.296875,-1.71
17:38:37.312500,-1.53
17:38:37.328125,-1.18
17:38:37.343750,-0.80
17:38:37.359375,-0.56
17:38:37.375000,-0.53
17:38:37.390625,-0.63
17:38:37.406250,-0.73
17:38:37.421875,-0.70
17:38:37.437500,-0.50
17:38:37.453125,-0.22
17:38:37.468750,-0.01
17:38:37.484375,0.04
17:38:37.500000,-0.08
17:38:37.515625,-0.30
17:38:37.531250,-0.53
17:38:37.546875,-0.75
17:38:37.562500,-0.99
17:38:37.578125,-1.28
17:38:37.593750,-1.59
17:38:37.609375,-1.87
17:38:37.625000,-2.07
17:38:37.640625,-2.19
17:38:37.656250,-2.30
17:38:37.671875,-2.51
17:38:37.687500,-2.83
17:38:37.703125,-3.22
17:38:37.718750,-3.60
17:38:37.734375,-3.86
17:38:37.750000,-4.00
17:38:37.765625,-4.09
17:38:37.781250,-4.24
17:38:37.796875,-4.52
17:38:37.812500,-4.99
17:38:37.828125,-5.64
17:38:37.843750,-6.46
17:38:37.859375,-7.41
17:38:37.875000,-8.48
17:38:37.890625,-9.58
17:38:37.906250,-10.65
17:38:37.921875,-11.61
17:38:37.937500,-12.42
17:38:37.953125,-13.09
17:38:37.968750,-13.68
17:38:37.984375,-14.26
17:38:38,-14.89
17:38:38.015625,-15.56
17:38:38.031250,-16.20
17:38:38.046875,-16.78
17:38:38.062500,-17.28
17:38:38.078125,-17.74
17:38:38.093750,-18.18
17:38:38.109375,-18.58
17:38:38.125000,-18.83
17:38:38.140625,-18.75
17:38:38.156250,-18.17
17:38:38.171875,-17.02
17:38:38.187500,-15.31
17:38:38.203125,-13.17
17:38:38.218750,-10.71
17:38:38.234375,-7.99
17:38:38.250000,-4.96
17:38:38.265625,-1.55
17:38:38.281250,2.33
17:38:38.296875,6.67
17:38:38.312500,11.34
17:38:38.328125,16.15
17:38:38.343750,20.92
17:38:38.359375,25.52
17:38:38.375000,29.95
17:38:38.390625,34.29
17:38:38.406250,38.73
17:38:38.421875,43.49
17:38:38.437500,48.77
17:38:38.453125,54.72
17:38:38.468750,61.31
17:38:38.484375,68.25
17:38:38.500000,74.87
17:38:38.515625,80.21
17:38:38.531250,83.18
17:38:38.546875,82.84
17:38:38.562500,78.71
17:38:38.578125,70.93
17:38:38.593750,60.16
17:38:38.609375,47.38
17:38:38.625000,33.59
17:38:38.640625,19.69
17:38:38.656250,6.43
17:38:38.671875,-5.50
17:38:38.687500,-15.56
17:38:38.703125,-23.36
17:38:38.718750,-28.84
17:38:38.734375,-32.36
17:38:38.750000,-34.57
17:38:38.765625,-36.22
17:38:38.781250,-37.90
17:38:38.796875,-39.93
17:38:38.812500,-42.31
17:38:38.828125,-44.85
17:38:38.843750,-47.22
17:38:38.859375,-49.02
17:38:38.875000,-49.86
17:38:38.890625,-49.38
17:38:38.906250,-47.38
17:38:38.921875,-43.97
17:38:38.937500,-39.55
17:38:38.953125,-34.70
17:38:38.968750,-29.98
17:38:38.984375,-25.73
17:38:39,-21.99
17:38:39.015625,-18.59
17:38:39.031250,-15.24
17:38:39.046875,-11.75
17:38:39.062500,-8.07
17:38:39.078125,-4.29
17:38:39.093750,-0.61
17:38:39.109375,2.74
17:38:39.125000,5.51
17:38:39.140625,7.47
17:38:39.156250,8.52
17:38:39.171875,8.70
17:38:39.187500,8.20
17:38:39.203125,7.41
17:38:39.218750,6.73
17:38:39.234375,6.47
17:38:39.250000,6.74
17:38:39.265625,7.42
17:38:39.281250,8.26
17:38:39.296875,9.01
17:38:39.312500,9.59
17:38:39.328125,10.06
17:38:39.343750,10.57
17:38:39.359375,11.18
17:38:39.375000,11.79
17:38:39.390625,12.15
17:38:39.406250,12.01
17:38:39.421875,11.29
17:38:39.437500,10.11
17:38:39.453125,8.78
17:38:39.468750,7.62
17:38:39.484375,6.73
17:38:39.500000,6.01
17:38:39.515625,5.23
17:38:39.531250,4.19
17:38:39.546875,2.91
17:38:39.562500,1.58
17:38:39.578125,0.52
17:38:39.593750,-0.04
17:38:39.609375,-0.09
17:38:39.625000,0.24
17:38:39.640625,0.67
17:38:39.656250,0.97
17:38:39.671875,1.01
17:38:39.687500,0.80
17:38:39.703125,0.42
17:38:39.718750,-0.05
17:38:39.734375,-0.61
17:38:39.750000,-1.31
17:38:39.765625,-2.15
17:38:39.781250,-3.04
17:38:39.796875,-3.85
17:38:39.812500,-4.39
17:38:39.828125,-4.54
17:38:39.843750,-4.31
17:38:39.859375,-3.80
17:38:39.875000,-3.20
17:38:39.890625,-2.66
17:38:39.906250,-2.32
17:38:39.921875,-2.18
17:38:39.937500,-2.15
17:38:39.953125,-2.15
17:38:39.968750,-2.09
17:38:39.984375,-1.90
17:38:40,-1.61
17:38:40.015625,-1.24
17:38:40.031250,-0.84
17:38:40.046875,-0.48
17:38:40.062500,-0.17
17:38:40.078125,0.05
17:38:40.093750,0.23
17:38:40.109375,0.39
17:38:40.125000,0.58
17:38:40.140625,0.85
17:38:40.156250,1.14
17:38:40.171875,1.43
17:38:40.187500,1.64
17:38:40.203125,1.77
17:38:40.218750,1.85
17:38:40.234375,1.96
17:38:40.250000,2.10
17:38:40.265625,2.24
17:38:40.281250,2.26
17:38:40.296875,2.06
17:38:40.312500,1.58
17:38:40.328125,0.89
17:38:40.343750,0.14
17:38:40.359375,-0.48
17:38:40.375000,-0.87
17:38:40.390625,-1.01
17:38:40.406250,-1.02
17:38:40.421875,-1.07
17:38:40.437500,-1.28
17:38:40.453125,-1.65
17:38:40.468750,-2.11
17:38:40.484375,-2.47
17:38:40.500000,-2.59
17:38:40.515625,-2.36
17:38:40.531250,-1.85
17:38:40.546875,-1.18
17:38:40.562500,-0.52
17:38:40.578125,0.01
17:38:40.593750,0.36
17:38:40.609375,0.57
17:38:40.625000,0.65
17:38:40.640625,0.64
17:38:40.656250,0.56
17:38:40.671875,0.45
17:38:40.687500,0.35
17:38:40.703125,0.34
17:38:40.718750,0.44
17:38:40.734375,0.63
17:38:40.750000,0.85
17:38:40.765625,1.00
17:38:40.781250,0.98
17:38:40.796875,0.78
17:38:40.812500,0.42
17:38:40.828125,-0.03
17:38:40.843750,-0.47
17:38:40.859375,-0.84
17:38:40.875000,-1.08
17:38:40.890625,-1.18
17:38:40.906250,-1.18
17:38:40.921875,-1.14
17:38:40.937500,-1.13
17:38:40.953125,-1.21
17:38:40.968750,-1.40
17:38:40.984375,-1.66
17:38:41,-1.92
17:38:41.015625,-2.10
17:38:41.031250,-2.12
17:38:41.046875,-1.91
17:38:41.062500,-1.49
17:38:41.078125,-0.91
17:38:41.093750,-0.27
17:38:41.109375,0.29
17:38:41.125000,0.65
17:38:41.140625,0.74
17:38:41.156250,0.55
17:38:41.171875,0.14
17:38:41.187500,-0.33
17:38:41.203125,-0.72
17:38:41.218750,-0.89
17:38:41.234375,-0.78
17:38:41.250000,-0.41
17:38:41.265625,0.10
17:38:41.281250,0.59
17:38:41.296875,0.92
17:38:41.312500,1.01
17:38:41.328125,0.91
17:38:41.343750,0.74
17:38:41.359375,0.64
17:38:41.375000,0.66
17:38:41.390625,0.76
17:38:41.406250,0.84
17:38:41.421875,0.81
17:38:41.437500,0.63
17:38:41.453125,0.39
17:38:41.468750,0.20
17:38:41.484375,0.16
17:38:41.500000,0.27
17:38:41.515625,0.44
17:38:41.531250,0.52
17:38:41.546875,0.41
17:38:41.562500,0.07
17:38:41.578125,-0.44
17:38:41.593750,-0.99
17:38:41.609375,-1.44
17:38:41.625000,-1.67
17:38:41.640625,-1.63
17:38:41.656250,-1.37
17:38:41.671875,-0.98
17:38:41.687500,-0.56
17:38:41.703125,-0.21
17:38:41.718750,0.01
17:38:41.734375,0.09
17:38:41.750000,0.01
17:38:41.765625,-0.22
17:38:41.781250,-0.55
17:38:41.796875,-0.89
17:38:41.812500,-1.12
17:38:41.828125,-1.16
17:38:41.843750,-0.97
17:38:41.859375,-0.62
17:38:41.875000,-0.21
17:38:41.890625,0.16
17:38:41.906250,0.44
17:38:41.921875,0.65
17:38:41.937500,0.83
17:38:41.953125,0.98
17:38:41.968750,1.07
17:38:41.984375,1.06
17:38:42,0.93
17:38:42.015625,0.73
17:38:42.031250,0.56
17:38:42.046875,0.47
17:38:42.062500,0.50
17:38:42.078125,0.63
17:38:42.093750,0.84
17:38:42.109375,1.09
17:38:42.125000,1.30
17:38:42.140625,1.41
17:38:42.156250,1.33
17:38:42.171875,1.00
17:38:42.187500,0.47
17:38:42.203125,-0.16
17:38:42.218750,-0.69
17:38:42.234375,-0.98
17:38:42.250000,-1.01
17:38:42.265625,-0.82
17:38:42.281250,-0.56
17:38:42.296875,-0.35
17:38:42.312500,-0.25
17:38:42.328125,-0.24
17:38:42.343750,-0.26
17:38:42.359375,-0.24
17:38:42.375000,-0.15
17:38:42.390625,0.03
17:38:42.406250,0.24
17:38:42.421875,0.40
17:38:42.437500,0.43
17:38:42.453125,0.29
17:38:42.468750,0.03
17:38:42.484375,-0.29
17:38:42.500000,-0.60
17:38:42.515625,-0.86
17:38:42.531250,-1.09
17:38:42.546875,-1.26
17:38:42.562500,-1.35
17:38:42.578125,-1.28
17:38:42.593750,-0.99
17:38:42.609375,-0.46
17:38:42.625000,0.19
17:38:42.640625,0.82
17:38:42.656250,1.31
17:38:42.671875,1.61
17:38:42.687500,1.75
17:38:42.703125,1.76
17:38:42.718750,1.65
17:38:42.734375,1.40
17:38:42.750000,0.99
17:38:42.765625,0.45
17:38:42.781250,-0.08
17:38:42.796875,-0.46
17:38:42.812500,-0.56
17:38:42.828125,-0.38
17:38:42.843750,-0.01
17:38:42.859375,0.39
17:38:42.875000,0.67
17:38:42.890625,0.75
17:38:42.906250,0.63
17:38:42.921875,0.37
17:38:42.937500,0.06
17:38:42.953125,-0.21
17:38:42.968750,-0.38
17:38:42.984375,-0.43
17:38:43,-0.35
17:38:43.015625,-0.16
17:38:43.031250,0.11
17:38:43.046875,0.44
17:38:43.062500,0.77
17:38:43.078125,1.02
17:38:43.093750,1.08
17:38:43.109375,0.90
17:38:43.125000,0.45
17:38:43.140625,-0.17
17:38:43.156250,-0.82
17:38:43.171875,-1.34
17:38:43.187500,-1.63
17:38:43.203125,-1.65
17:38:43.218750,-1.45
17:38:43.234375,-1.11
17:38:43.250000,-0.71
17:38:43.265625,-0.33
17:38:43.281250,0.00
17:38:43.296875,0.26
17:38:43.312500,0.39
17:38:43.328125,0.39
17:38:43.343750,0.23
17:38:43.359375,-0.04
17:38:43.375000,-0.36
17:38:43.390625,-0.61
17:38:43.406250,-0.72
17:38:43.421875,-0.68
17:38:43.437500,-0.52
17:38:43.453125,-0.35
17:38:43.468750,-0.24
17:38:43.484375,-0.25
17:38:43.500000,-0.37
17:38:43.515625,-0.53
17:38:43.531250,-0.63
17:38:43.546875,-0.62
17:38:43.562500,-0.52
17:38:43.578125,-0.36
17:38:43.593750,-0.21
17:38:43.609375,-0.08
17:38:43.625000,0.05
17:38:43.640625,0.20
17:38:43.656250,0.36
17:38:43.671875,0.52
17:38:43.687500,0.63
17:38:43.703125,0.68
17:38:43.718750,0.69
17:38:43.734375,0.70
17:38:43.750000,0.76
17:38:43.765625,0.87
17:38:43.781250,0.96
17:38:43.796875,0.97
17:38:43.812500,0.85
17:38:43.828125,0.64
17:38:43.843750,0.38
17:38:43.859375,0.18
17:38:43.875000,0.09
17:38:43.890625,0.14
17:38:43.906250,0.29
17:38:43.921875,0.51
17:38:43.937500,0.75
17:38:43.953125,0.97
17:38:43.968750,1.09
17:38:43.984375,1.09
17:38:44,0.96
17:38:44.015625,0.73
17:38:44.031250,0.46
17:38:44.046875,0.20
17:38:44.062500,0.00
17:38:44.078125,-0.15
17:38:44.093750,-0.28
17:38:44.109375,-0.42
17:38:44.125000,-0.57
17:38:44.140625,-0.73
17:38:44.156250,-0.90
17:38:44.171875,-1.06
17:38:44.187500,-1.22
17:38:44.203125,-1.38
17:38:44.218750,-1.53
17:38:44.234375,-1.66
17:38:44.250000,-1.77
17:38:44.265625,-1.84
17:38:44.281250,-1.84
17:38:44.296875,-1.78
17:38:44.312500,-1.66
17:38:44.328125,-1.47
17:38:44.343750,-1.27
17:38:44.359375,-1.08
17:38:44.375000,-0.93
17:38:44.390625,-0.78
17:38:44.406250,-0.57
17:38:44.421875,-0.24
17:38:44.437500,0.25
17:38:44.453125,0.84
17:38:44.468750,1.38
17:38:44.484375,1.72
17:38:44.500000,1.76
17:38:44.515625,1.52
17:38:44.531250,1.09
17:38:44.546875,0.60
17:38:44.562500,0.18
17:38:44.578125,-0.12
17:38:44.593750,-0.29
17:38:44.609375,-0.32
17:38:44.625000,-0.23
17:38:44.640625,-0.02
17:38:44.656250,0.27
17:38:44.671875,0.55
17:38:44.687500,0.73
17:38:44.703125,0.71
17:38:44.718750,0.53
17:38:44.734375,0.29
17:38:44.750000,0.15
17:38:44.765625,0.21
17:38:44.781250,0.48
17:38:44.796875,0.81
17:38:44.812500,1.03
17:38:44.828125,1.04
17:38:44.843750,0.83
17:38:44.859375,0.51
17:38:44.875000,0.21
17:38:44.890625,-0.02
17:38:44.906250,-0.20
17:38:44.921875,-0.38
17:38:44.937500,-0.59
17:38:44.953125,-0.77
17:38:44.968750,-0.84
17:38:44.984375,-0.75
17:38:45,-0.53
17:38:45.015625,-0.29
17:38:45.031250,-0.13
17:38:45.046875,-0.12
17:38:45.062500,-0.22
17:38:45.078125,-0.37
17:38:45.093750,-0.56
17:38:45.109375,-0.80
17:38:45.125000,-1.13
17:38:45.140625,-1.53
17:38:45.156250,-1.93
17:38:45.171875,-2.21
17:38:45.187500,-2.26
17:38:45.203125,-2.02
17:38:45.218750,-1.53
17:38:45.234375,-0.89
17:38:45.250000,-0.23
17:38:45.265625,0.34
17:38:45.281250,0.74
17:38:45.296875,0.95
17:38:45.312500,0.98
17:38:45.328125,0.84
17:38:45.343750,0.58
17:38:45.359375,0.29
17:38:45.375000,0.04
17:38:45.390625,-0.11
17:38:45.406250,-0.16
17:38:45.421875,-0.11
17:38:45.437500,-0.02
17:38:45.453125,0.11
17:38:45.468750,0.26
17:38:45.484375,0.43
17:38:45.500000,0.60
17:38:45.515625,0.73
17:38:45.531250,0.76
17:38:45.546875,0.67
17:38:45.562500,0.50
17:38:45.578125,0.31
17:38:45.593750,0.16
17:38:45.609375,0.05
17:38:45.625000,-0.08
17:38:45.640625,-0.26
17:38:45.656250,-0.48
17:38:45.671875,-0.66
17:38:45.687500,-0.67
17:38:45.703125,-0.44
17:38:45.718750,0.01
17:38:45.734375,0.54
17:38:45.750000,0.99
17:38:45.765625,1.20
17:38:45.781250,1.14
17:38:45.796875,0.87
17:38:45.812500,0.51
17:38:45.828125,0.18
17:38:45.843750,-0.05
17:38:45.859375,-0.16
17:38:45.875000,-0.19
17:38:45.890625,-0.18
17:38:45.906250,-0.16
17:38:45.921875,-0.19
17:38:45.937500,-0.27
17:38:45.953125,-0.42
17:38:45.968750,-0.64
17:38:45.984375,-0.91
17:38:46,-1.16
17:38:46.015625,-1.33
17:38:46.031250,-1.38
17:38:46.046875,-1.26
17:38:46.062500,-1.03
17:38:46.078125,-0.75
17:38:46.093750,-0.52
17:38:46.109375,-0.42
17:38:46.125000,-0.47
17:38:46.140625,-0.63
17:38:46.156250,-0.84
17:38:46.171875,-1.02
17:38:46.187500,-1.11
17:38:46.203125,-1.06
17:38:46.218750,-0.86
17:38:46.234375,-0.51
17:38:46.250000,-0.04
17:38:46.265625,0.48
17:38:46.281250,0.99
17:38:46.296875,1.41
17:38:46.312500,1.69
17:38:46.328125,1.81
17:38:46.343750,1.76
17:38:46.359375,1.55
17:38:46.375000,1.22
17:38:46.390625,0.84
17:38:46.406250,0.49
17:38:46.421875,0.24
17:38:46.437500,0.14
17:38:46.453125,0.16
17:38:46.468750,0.23
17:38:46.484375,0.26
17:38:46.500000,0.19
17:38:46.515625,0.03
17:38:46.531250,-0.16
17:38:46.546875,-0.30
17:38:46.562500,-0.37
17:38:46.578125,-0.35
17:38:46.593750,-0.29
17:38:46.609375,-0.23
17:38:46.625000,-0.14
17:38:46.640625,-0.04
17:38:46.656250,0.08
17:38:46.671875,0.18
17:38:46.687500,0.21
17:38:46.703125,0.14
17:38:46.718750,-0.02
17:38:46.734375,-0.26
17:38:46.750000,-0.54
17:38:46.765625,-0.85
17:38:46.781250,-1.17
17:38:46.796875,-1.47
17:38:46.812500,-1.70
17:38:46.828125,-1.80
17:38:46.843750,-1.76
17:38:46.859375,-1.62
17:38:46.875000,-1.47
17:38:46.890625,-1.38
17:38:46.906250,-1.41
17:38:46.921875,-1.54
17:38:46.937500,-1.69
17:38:46.953125,-1.77
17:38:46.968750,-1.69
17:38:46.984375,-1.43
17:38:47,-1.01
17:38:47.015625,-0.52
17:38:47.031250,-0.07
17:38:47.046875,0.23
17:38:47.062500,0.34
17:38:47.078125,0.30
17:38:47.093750,0.20
17:38:47.109375,0.18
17:38:47.125000,0.32
17:38:47.140625,0.63
17:38:47.156250,1.06
17:38:47.171875,1.52
17:38:47.187500,1.93
17:38:47.203125,2.25
17:38:47.218750,2.45
17:38:47.234375,2.52
17:38:47.250000,2.44
17:38:47.265625,2.22
17:38:47.281250,1.90
17:38:47.296875,1.51
17:38:47.312500,1.09
17:38:47.328125,0.67
17:38:47.343750,0.25
17:38:47.359375,-0.16
17:38:47.375000,-0.57
17:38:47.390625,-0.92
17:38:47.406250,-1.18
17:38:47.421875,-1.30
17:38:47.437500,-1.29
17:38:47.453125,-1.18
17:38:47.468750,-1.06
17:38:47.484375,-0.99
17:38:47.500000,-0.98
17:38:47.515625,-0.99
17:38:47.531250,-0.95
17:38:47.546875,-0.82
17:38:47.562500,-0.55
17:38:47.578125,-0.19
17:38:47.593750,0.20
17:38:47.609375,0.56
17:38:47.625000,0.83
17:38:47.640625,0.97
17:38:47.656250,0.92
17:38:47.671875,0.69
17:38:47.687500,0.30
17:38:47.703125,-0.12
17:38:47.718750,-0.47
17:38:47.734375,-0.63
17:38:47.750000,-0.56
17:38:47.765625,-0.33
17:38:47.781250,-0.00
17:38:47.796875,0.30
17:38:47.812500,0.55
17:38:47.828125,0.72
17:38:47.843750,0.84
17:38:47.859375,0.89
17:38:47.875000,0.84
17:38:47.890625,0.65
17:38:47.906250,0.31
17:38:47.921875,-0.10
17:38:47.937500,-0.48
17:38:47.953125,-0.73
17:38:47.968750,-0.79
17:38:47.984375,-0.66
17:38:48,-0.43
17:38:48.015625,-0.19
17:38:48.031250,-0.02
17:38:48.046875,0.11
17:38:48.062500,0.28
17:38:48.078125,0.59
17:38:48.093750,1.06
17:38:48.109375,1.60
17:38:48.125000,2.04
17:38:48.140625,2.22
17:38:48.156250,2.08
17:38:48.171875,1.71
17:38:48.187500,1.28
17:38:48.203125,0.98
17:38:48.218750,0.87
17:38:48.234375,0.88
17:38:48.250000,0.81
17:38:48.265625,0.50
17:38:48.281250,-0.04
17:38:48.296875,-0.71
17:38:48.312500,-1.30
17:38:48.328125,-1.64
17:38:48.343750,-1.71
17:38:48.359375,-1.63
17:38:48.375000,-1.59
17:38:48.390625,-1.75
17:38:48.406250,-2.14
17:38:48.421875,-2.71
17:38:48.437500,-3.28
17:38:48.453125,-3.70
17:38:48.468750,-3.87
17:38:48.484375,-3.79
17:38:48.500000,-3.51
17:38:48.515625,-3.13
17:38:48.531250,-2.76
17:38:48.546875,-2.45
17:38:48.562500,-2.22
17:38:48.578125,-2.05
17:38:48.593750,-1.93
17:38:48.609375,-1.86
17:38:48.625000,-1.80
17:38:48.640625,-1.73
17:38:48.656250,-1.64
17:38:48.671875,-1.54
17:38:48.687500,-1.47
17:38:48.703125,-1.51
17:38:48.718750,-1.71
17:38:48.734375,-2.09
17:38:48.750000,-2.57
17:38:48.765625,-3.03
17:38:48.781250,-3.39
17:38:48.796875,-3.60
17:38:48.812500,-3.69
17:38:48.828125,-3.77
17:38:48.843750,-3.89
17:38:48.859375,-4.11
17:38:48.875000,-4.44
17:38:48.890625,-4.89
17:38:48.906250,-5.47
17:38:48.921875,-6.19
17:38:48.937500,-7.02
17:38:48.953125,-7.87
17:38:48.968750,-8.63
17:38:48.984375,-9.23
17:38:49,-9.69
17:38:49.015625,-10.09
17:38:49.031250,-10.52
17:38:49.046875,-11.00
17:38:49.062500,-11.41
17:38:49.078125,-11.57
17:38:49.093750,-11.26
17:38:49.109375,-10.39
17:38:49.125000,-9.00
17:38:49.140625,-7.22
17:38:49.156250,-5.23
17:38:49.171875,-3.17
17:38:49.187500,-1.10
17:38:49.203125,1.03
17:38:49.218750,3.23
17:38:49.234375,5.51
17:38:49.250000,7.81
17:38:49.265625,9.98
17:38:49.281250,11.84
17:38:49.296875,13.26
17:38:49.312500,14.15
17:38:49.328125,14.53
17:38:49.343750,14.50
17:38:49.359375,14.16
17:38:49.375000,13.60
17:38:49.390625,12.84
17:38:49.406250,11.94
17:38:49.421875,10.91
17:38:49.437500,9.84
17:38:49.453125,8.81
17:38:49.468750,7.92
17:38:49.484375,7.23
17:38:49.500000,6.83
17:38:49.515625,6.79
17:38:49.531250,7.19
17:38:49.546875,8.13
17:38:49.562500,9.63
17:38:49.578125,11.56
17:38:49.593750,13.68
17:38:49.609375,15.61
17:38:49.625000,16.97
17:38:49.640625,17.48
17:38:49.656250,17.04
17:38:49.671875,15.73
17:38:49.687500,13.76
17:38:49.703125,11.40
17:38:49.718750,8.92
17:38:49.734375,6.49
17:38:49.750000,4.24
17:38:49.765625,2.20
17:38:49.781250,0.40
17:38:49.796875,-1.15
17:38:49.812500,-2.45
17:38:49.828125,-3.51
17:38:49.843750,-4.36
17:38:49.859375,-5.02
17:38:49.875000,-5.45
17:38:49.890625,-5.60
17:38:49.906250,-5.39
17:38:49.921875,-4.75
17:38:49.937500,-3.68
17:38:49.953125,-2.26
17:38:49.968750,-0.68
17:38:49.984375,0.85
17:38:50,2.16
17:38:50.015625,3.10
17:38:50.031250,3.64
17:38:50.046875,3.82
17:38:50.062500,3.75
17:38:50.078125,3.57
17:38:50.093750,3.38
17:38:50.109375,3.30
17:38:50.125000,3.36
17:38:50.140625,3.55
17:38:50.156250,3.80
17:38:50.171875,3.99
17:38:50.187500,3.94
17:38:50.203125,3.52
17:38:50.218750,2.66
17:38:50.234375,1.48
17:38:50.250000,0.18
17:38:50.265625,-0.94
17:38:50.281250,-1.67
17:38:50.296875,-1.98
17:38:50.312500,-2.04
17:38:50.328125,-2.10
17:38:50.343750,-2.41
17:38:50.359375,-3.05
17:38:50.375000,-3.93
17:38:50.390625,-4.92
17:38:50.406250,-5.85
17:38:50.421875,-6.62
17:38:50.437500,-7.19
17:38:50.453125,-7.52
17:38:50.468750,-7.49
17:38:50.484375,-7.06
17:38:50.500000,-6.17
17:38:50.515625,-4.92
17:38:50.531250,-3.52
17:38:50.546875,-2.21
17:38:50.562500,-1.17
17:38:50.578125,-0.50
17:38:50.593750,-0.18
17:38:50.609375,-0.11
17:38:50.625000,-0.18
17:38:50.640625,-0.27
17:38:50.656250,-0.33
17:38:50.671875,-0.32
17:38:50.687500,-0.24
17:38:50.703125,-0.13
17:38:50.718750,-0.02
17:38:50.734375,0.04
17:38:50.750000,0.03
17:38:50.765625,-0.04
17:38:50.781250,-0.19
17:38:50.796875,-0.42
17:38:50.812500,-0.73
17:38:50.828125,-1.10
17:38:50.843750,-1.50
17:38:50.859375,-1.86
17:38:50.875000,-2.09
17:38:50.890625,-2.14
17:38:50.906250,-2.00
17:38:50.921875,-1.74
17:38:50.937500,-1.40
17:38:50.953125,-1.05
17:38:50.968750,-0.76
17:38:50.984375,-0.57
17:38:51,-0.50
17:38:51.015625,-0.54
17:38:51.031250,-0.63
17:38:51.046875,-0.74
17:38:51.062500,-0.83
17:38:51.078125,-0.90
17:38:51.093750,-1.00
17:38:51.109375,-1.12
17:38:51.125000,-1.26
17:38:51.140625,-1.40
17:38:51.156250,-1.48
17:38:51.171875,-1.45
17:38:51.187500,-1.34
17:38:51.203125,-1.18
17:38:51.218750,-1.02
17:38:51.234375,-0.86
17:38:51.250000,-0.71
17:38:51.265625,-0.56
17:38:51.281250,-0.45
17:38:51.296875,-0.42
17:38:51.312500,-0.50
17:38:51.328125,-0.70
17:38:51.343750,-0.94
17:38:51.359375,-1.14
17:38:51.375000,-1.25
17:38:51.390625,-1.26
17:38:51.406250,-1.25
17:38:51.421875,-1.29
17:38:51.437500,-1.40
17:38:51.453125,-1.52
17:38:51.468750,-1.57
17:38:51.484375,-1.50
17:38:51.500000,-1.29
17:38:51.515625,-1.05
17:38:51.531250,-0.85
17:38:51.546875,-0.74
17:38:51.562500,-0.68
17:38:51.578125,-0.54
17:38:51.593750,-0.27
17:38:51.609375,0.13
17:38:51.625000,0.52
17:38:51.640625,0.74
17:38:51.656250,0.67
17:38:51.671875,0.30
17:38:51.687500,-0.22
17:38:51.703125,-0.70
17:38:51.718750,-0.96
17:38:51.734375,-0.93
17:38:51.750000,-0.64
17:38:51.765625,-0.20
17:38:51.781250,0.24
17:38:51.796875,0.58
17:38:51.812500,0.82
17:38:51.828125,0.98
17:38:51.843750,1.13
17:38:51.859375,1.33
17:38:51.875000,1.58
17:38:51.890625,1.87
17:38:51.906250,2.12
17:38:51.921875,2.26
17:38:51.937500,2.20
17:38:51.953125,1.93
17:38:51.968750,1.48
17:38:51.984375,0.94
17:38:52,0.44
17:38:52.015625,0.09
17:38:52.031250,-0.05
17:38:52.046875,-0.00
17:38:52.062500,0.12
17:38:52.078125,0.19
17:38:52.093750,0.12
17:38:52.109375,-0.10
17:38:52.125000,-0.39
17:38:52.140625,-0.62
17:38:52.156250,-0.71
17:38:52.171875,-0.63
17:38:52.187500,-0.44
17:38:52.203125,-0.23
17:38:52.218750,-0.08
17:38:52.234375,-0.07
17:38:52.250000,-0.19
17:38:52.265625,-0.41
17:38:52.281250,-0.66
17:38:52.296875,-0.89
17:38:52.312500,-1.04
17:38:52.328125,-1.08
17:38:52.343750,-1.04
17:38:52.359375,-0.98
17:38:52.375000,-1.02
17:38:52.390625,-1.24
17:38:52.406250,-1.66
17:38:52.421875,-2.21
17:38:52.437500,-2.72
17:38:52.453125,-2.99
17:38:52.468750,-2.88
17:38:52.484375,-2.36
17:38:52.500000,-1.58
17:38:52.515625,-0.77
17:38:52.531250,-0.14
17:38:52.546875,0.19
17:38:52.562500,0.26
17:38:52.578125,0.20
17:38:52.593750,0.14
17:38:52.609375,0.14
17:38:52.625000,0.18
17:38:52.640625,0.18
17:38:52.656250,0.10
17:38:52.671875,-0.03
17:38:52.687500,-0.10
17:38:52.703125,-0.07
17:38:52.718750,0.07
17:38:52.734375,0.25
17:38:52.750000,0.37
17:38:52.765625,0.35
17:38:52.781250,0.23
17:38:52.796875,0.11
17:38:52.812500,0.08
17:38:52.828125,0.19
17:38:52.843750,0.40
17:38:52.859375,0.58
17:38:52.875000,0.61
17:38:52.890625,0.45
17:38:52.906250,0.11
17:38:52.921875,-0.28
17:38:52.937500,-0.65
17:38:52.953125,-0.91
17:38:52.968750,-1.08
17:38:52.984375,-1.17
17:38:53,-1.19
17:38:53.015625,-1.16
17:38:53.031250,-1.06
17:38:53.046875,-0.93
17:38:53.062500,-0.82
17:38:53.078125,-0.80
17:38:53.093750,-0.91
17:38:53.109375,-1.14
17:38:53.125000,-1.39
17:38:53.140625,-1.52
17:38:53.156250,-1.43
17:38:53.171875,-1.08
17:38:53.187500,-0.55
17:38:53.203125,0.04
17:38:53.218750,0.54
17:38:53.234375,0.85
17:38:53.250000,0.96
17:38:53.265625,0.91
17:38:53.281250,0.81
17:38:53.296875,0.74
17:38:53.312500,0.75
17:38:53.328125,0.85
17:38:53.343750,1.03
17:38:53.359375,1.26
17:38:53.375000,1.49
17:38:53.390625,1.66
17:38:53.406250,1.70
17:38:53.421875,1.55
17:38:53.437500,1.23
17:38:53.453125,0.84
17:38:53.468750,0.50
17:38:53.484375,0.34
17:38:53.500000,0.37
17:38:53.515625,0.52
17:38:53.531250,0.67
17:38:53.546875,0.72
17:38:53.562500,0.64
17:38:53.578125,0.49
17:38:53.593750,0.36
17:38:53.609375,0.29
17:38:53.625000,0.25
17:38:53.640625,0.14
17:38:53.656250,-0.11
17:38:53.671875,-0.50
17:38:53.687500,-0.96
17:38:53.703125,-1.38
17:38:53.718750,-1.66
17:38:53.734375,-1.76
17:38:53.750000,-1.74
17:38:53.765625,-1.69
17:38:53.781250,-1.71
17:38:53.796875,-1.86
17:38:53.812500,-2.13
17:38:53.828125,-2.46
17:38:53.843750,-2.74
17:38:53.859375,-2.88
17:38:53.875000,-2.80
17:38:53.890625,-2.45
17:38:53.906250,-1.86
17:38:53.921875,-1.11
17:38:53.937500,-0.35
17:38:53.953125,0.26
17:38:53.968750,0.62
17:38:53.984375,0.73
17:38:54,0.69
17:38:54.015625,0.65
17:38:54.031250,0.73
17:38:54.046875,0.96
17:38:54.062500,1.30
17:38:54.078125,1.64
17:38:54.093750,1.90
17:38:54.109375,2.04
17:38:54.125000,2.08
17:38:54.140625,2.03
17:38:54.156250,1.91
17:38:54.171875,1.72
17:38:54.187500,1.50
17:38:54.203125,1.28
17:38:54.218750,1.15
17:38:54.234375,1.16
17:38:54.250000,1.32
17:38:54.265625,1.56
17:38:54.281250,1.73
17:38:54.296875,1.71
17:38:54.312500,1.40
17:38:54.328125,0.82
17:38:54.343750,0.12
17:38:54.359375,-0.50
17:38:54.375000,-0.85
17:38:54.390625,-0.86
17:38:54.406250,-0.61
17:38:54.421875,-0.29
17:38:54.437500,-0.11
17:38:54.453125,-0.18
17:38:54.468750,-0.50
17:38:54.484375,-0.96
17:38:54.500000,-1.42
17:38:54.515625,-1.78
17:38:54.531250,-1.99
17:38:54.546875,-2.07
17:38:54.562500,-2.06
17:38:54.578125,-2.03
17:38:54.593750,-2.02
17:38:54.609375,-2.08
17:38:54.625000,-2.19
17:38:54.640625,-2.27
17:38:54.656250,-2.20
17:38:54.671875,-1.90
17:38:54.687500,-1.33
17:38:54.703125,-0.60
17:38:54.718750,0.14
17:38:54.734375,0.69
17:38:54.750000,0.94
17:38:54.765625,0.91
17:38:54.781250,0.70
17:38:54.796875,0.49
17:38:54.812500,0.39
17:38:54.828125,0.46
17:38:54.843750,0.67
17:38:54.859375,0.96
17:38:54.875000,1.26
17:38:54.890625,1.49
17:38:54.906250,1.60
17:38:54.921875,1.53
17:38:54.937500,1.24
17:38:54.953125,0.72
17:38:54.968750,0.05
17:38:54.984375,-0.63
17:38:55,-1.12
17:38:55.015625,-1.30
17:38:55.031250,-1.15
17:38:55.046875,-0.81
17:38:55.062500,-0.44
17:38:55.078125,-0.19
17:38:55.093750,-0.11
17:38:55.109375,-0.16
17:38:55.125000,-0.25
17:38:55.140625,-0.33
17:38:55.156250,-0.38
17:38:55.171875,-0.42
17:38:55.187500,-0.43
17:38:55.203125,-0.43
17:38:55.218750,-0.42
17:38:55.234375,-0.43
17:38:55.250000,-0.52
17:38:55.265625,-0.71
17:38:55.281250,-0.96
17:38:55.296875,-1.17
17:38:55.312500,-1.22
17:38:55.328125,-1.06
17:38:55.343750,-0.69
17:38:55.359375,-0.25
17:38:55.375000,0.14
17:38:55.390625,0.36
17:38:55.406250,0.33
17:38:55.421875,0.04
17:38:55.437500,-0.49
17:38:55.453125,-1.22
17:38:55.468750,-2.11
17:38:55.484375,-3.06
17:38:55.500000,-3.97
17:38:55.515625,-4.80
17:38:55.531250,-5.55
17:38:55.546875,-6.30
17:38:55.562500,-7.15
17:38:55.578125,-8.11
17:38:55.593750,-9.09
17:38:55.609375,-9.91
17:38:55.625000,-10.38
17:38:55.640625,-10.42
17:38:55.656250,-10.07
17:38:55.671875,-9.51
17:38:55.687500,-8.93
17:38:55.703125,-8.44
17:38:55.718750,-8.01
17:38:55.734375,-7.48
17:38:55.750000,-6.65
17:38:55.765625,-5.39
17:38:55.781250,-3.67
17:38:55.796875,-1.64
17:38:55.812500,0.52
17:38:55.828125,2.61
17:38:55.843750,4.52
17:38:55.859375,6.20
17:38:55.875000,7.65
17:38:55.890625,8.85
17:38:55.906250,9.74
17:38:55.921875,10.24
17:38:55.937500,10.35
17:38:55.953125,10.13
17:38:55.968750,9.72
17:38:55.984375,9.25
17:38:56,8.76
17:38:56.015625,8.18
17:38:56.031250,7.42
17:38:56.046875,6.43
17:38:56.062500,5.28
17:38:56.078125,4.20
17:38:56.093750,3.44
17:38:56.109375,3.22
17:38:56.125000,3.62
17:38:56.140625,4.61
17:38:56.156250,6.10
17:38:56.171875,8.03
17:38:56.187500,10.36
17:38:56.203125,13.04
17:38:56.218750,15.97
17:38:56.234375,18.97
17:38:56.250000,21.78
17:38:56.265625,24.17
17:38:56.281250,25.96
17:38:56.296875,27.04
17:38:56.312500,27.39
17:38:56.328125,27.02
17:38:56.343750,25.98
17:38:56.359375,24.35
17:38:56.375000,22.23
17:38:56.390625,19.76
17:38:56.406250,17.06
17:38:56.421875,14.24
17:38:56.437500,11.40
17:38:56.453125,8.61
17:38:56.468750,5.97
17:38:56.484375,3.55
17:38:56.500000,1.43
17:38:56.515625,-0.41
17:38:56.531250,-2.02
17:38:56.546875,-3.49
17:38:56.562500,-4.89
17:38:56.578125,-6.20
17:38:56.593750,-7.35
17:38:56.609375,-8.22
17:38:56.625000,-8.78
17:38:56.640625,-9.08
17:38:56.656250,-9.25
17:38:56.671875,-9.46
17:38:56.687500,-9.87
17:38:56.703125,-10.53
17:38:56.718750,-11.42
17:38:56.734375,-12.40
17:38:56.750000,-13.31
17:38:56.765625,-14.03
17:38:56.781250,-14.49
17:38:56.796875,-14.71
17:38:56.812500,-14.79
17:38:56.828125,-14.90
17:38:56.843750,-15.24
17:38:56.859375,-15.96
17:38:56.875000,-17.09
17:38:56.890625,-18.52
17:38:56.906250,-20.03
17:38:56.921875,-21.33
17:38:56.937500,-22.12
17:38:56.953125,-22.19
17:38:56.968750,-21.42
17:38:56.984375,-19.78
17:38:57,-17.33
17:38:57.015625,-14.16
17:38:57.031250,-10.42
17:38:57.046875,-6.33
17:38:57.062500,-2.19
17:38:57.078125,1.63
17:38:57.093750,4.78
17:38:57.109375,6.99
17:38:57.125000,8.12
17:38:57.140625,8.24
17:38:57.156250,7.60
17:38:57.171875,6.55
17:38:57.187500,5.46
17:38:57.203125,4.57
17:38:57.218750,3.96
17:38:57.234375,3.51
17:38:57.250000,3.02
17:38:57.265625,2.35
17:38:57.281250,1.47
17:38:57.296875,0.57
17:38:57.312500,-0.06
17:38:57.328125,-0.10
17:38:57.343750,0.66
17:38:57.359375,2.23
17:38:57.375000,4.42
17:38:57.390625,6.92
17:38:57.406250,9.34
17:38:57.421875,11.28
17:38:57.437500,12.42
17:38:57.453125,12.55
17:38:57.468750,11.64
17:38:57.484375,9.90
17:38:57.500000,7.75
17:38:57.515625,5.68
17:38:57.531250,4.15
17:38:57.546875,3.43
17:38:57.562500,3.48
17:38:57.578125,4.05
17:38:57.593750,4.76
17:38:57.609375,5.27
17:38:57.625000,5.37
17:38:57.640625,5.03
17:38:57.656250,4.33
17:38:57.671875,3.38
17:38:57.687500,2.31
17:38:57.703125,1.23
17:38:57.718750,0.24
17:38:57.734375,-0.57
17:38:57.750000,-1.13
17:38:57.765625,-1.38
17:38:57.781250,-1.37
17:38:57.796875,-1.17
17:38:57.812500,-0.89
17:38:57.828125,-0.64
17:38:57.843750,-0.54
17:38:57.859375,-0.65
17:38:57.875000,-1.01
17:38:57.890625,-1.64
17:38:57.906250,-2.58
17:38:57.921875,-3.89
17:38:57.937500,-5.57
17:38:57.953125,-7.57
17:38:57.968750,-9.64
17:38:57.984375,-11.39
17:38:58,-12.34
17:38:58.015625,-12.13
17:38:58.031250,-10.73
17:38:58.046875,-8.49
17:38:58.062500,-6.12
17:38:58.078125,-4.41
17:38:58.093750,-3.95
17:38:58.109375,-4.93
17:38:58.125000,-7.08
17:38:58.140625,-9.87
17:38:58.156250,-12.66
17:38:58.171875,-14.91
17:38:58.187500,-16.32
17:38:58.203125,-16.79
17:38:58.218750,-16.43
17:38:58.234375,-15.43
17:38:58.250000,-14.09
17:38:58.265625,-12.71
17:38:58.281250,-11.59
17:38:58.296875,-10.92
17:38:58.312500,-10.75
17:38:58.328125,-10.99
17:38:58.343750,-11.43
17:38:58.359375,-11.84
17:38:58.375000,-11.96
17:38:58.390625,-11.60
17:38:58.406250,-10.61
17:38:58.421875,-9.01
17:38:58.437500,-6.92
17:38:58.453125,-4.63
17:38:58.468750,-2.43
17:38:58.484375,-0.55
17:38:58.500000,0.99
17:38:58.515625,2.35
17:38:58.531250,3.81
17:38:58.546875,5.61
17:38:58.562500,7.85
17:38:58.578125,10.47
17:38:58.593750,13.27
17:38:58.609375,16.04
17:38:58.625000,18.56
17:38:58.640625,20.62
17:38:58.656250,21.97
17:38:58.671875,22.36
17:38:58.687500,21.62
17:38:58.703125,19.78
17:38:58.718750,17.14
17:38:58.734375,14.19
17:38:58.750000,11.52
17:38:58.765625,9.59
17:38:58.781250,8.61
17:38:58.796875,8.51
17:38:58.812500,9.01
17:38:58.828125,9.77
17:38:58.843750,10.50
17:38:58.859375,11.08
17:38:58.875000,11.47
17:38:58.890625,11.71
17:38:58.906250,11.82
17:38:58.921875,11.70
17:38:58.937500,11.23
17:38:58.953125,10.31
17:38:58.968750,8.95
17:38:58.984375,7.29
17:38:59,5.60
17:38:59.015625,4.09
17:38:59.031250,2.88
17:38:59.046875,1.92
17:38:59.062500,1.03
17:38:59.078125,-0.01
17:38:59.093750,-1.31
17:38:59.109375,-2.82
17:38:59.125000,-4.36
17:38:59.140625,-5.74
17:38:59.156250,-6.79
17:38:59.171875,-7.49
17:38:59.187500,-7.90
17:38:59.203125,-8.13
17:38:59.218750,-8.23
17:38:59.234375,-8.21
17:38:59.250000,-8.01
17:38:59.265625,-7.61
17:38:59.281250,-7.04
17:38:59.296875,-6.40
17:38:59.312500,-5.79
17:38:59.328125,-5.25
17:38:59.343750,-4.78
17:38:59.359375,-4.31
17:38:59.375000,-3.81
17:38:59.390625,-3.31
17:38:59.406250,-2.88
17:38:59.421875,-2.61
17:38:59.437500,-2.53
17:38:59.453125,-2.59
17:38:59.468750,-2.75
17:38:59.484375,-2.93
17:38:59.500000,-3.14
17:38:59.515625,-3.41
17:38:59.531250,-3.77
17:38:59.546875,-4.18
17:38:59.562500,-4.53
17:38:59.578125,-4.70
17:38:59.593750,-4.63
17:38:59.609375,-4.30
17:38:59.625000,-3.82
17:38:59.640625,-3.30
17:38:59.656250,-2.81
17:38:59.671875,-2.37
17:38:59.687500,-1.92
17:38:59.703125,-1.39
17:38:59.718750,-0.80
17:38:59.734375,-0.22
17:38:59.750000,0.22
17:38:59.765625,0.42
17:38:59.781250,0.42
17:38:59.796875,0.34
17:38:59.812500,0.36
17:38:59.828125,0.55
17:38:59.843750,0.83
17:38:59.859375,1.03
17:38:59.875000,1.03
17:38:59.890625,0.82
17:38:59.906250,0.57
17:38:59.921875,0.49
17:38:59.937500,0.72
17:38:59.953125,1.22
17:38:59.968750,1.82
17:38:59.984375,2.30
17:39:00,2.53
17:39:00.015625,2.51
17:39:00.031250,2.33
17:39:00.046875,2.12
17:39:00.062500,1.94
17:39:00.078125,1.80
17:39:00.093750,1.65
17:39:00.109375,1.48
17:39:00.125000,1.29
17:39:00.140625,1.12
17:39:00.156250,1.01
17:39:00.171875,0.98
17:39:00.187500,1.01
17:39:00.203125,1.02
17:39:00.218750,0.96
17:39:00.234375,0.77
17:39:00.250000,0.47
17:39:00.265625,0.10
17:39:00.281250,-0.28
17:39:00.296875,-0.66
17:39:00.312500,-1.02
17:39:00.328125,-1.37
17:39:00.343750,-1.69
17:39:00.359375,-1.93
17:39:00.375000,-2.00
17:39:00.390625,-1.88
17:39:00.406250,-1.57
17:39:00.421875,-1.17
17:39:00.437500,-0.73
17:39:00.453125,-0.31
17:39:00.468750,0.09
17:39:00.484375,0.48
17:39:00.500000,0.87
17:39:00.515625,1.22
17:39:00.531250,1.49
17:39:00.546875,1.64
17:39:00.562500,1.65
17:39:00.578125,1.56
17:39:00.593750,1.40
17:39:00.609375,1.23
17:39:00.625000,1.10
17:39:00.640625,1.01
17:39:00.656250,0.95
17:39:00.671875,0.88
17:39:00.687500,0.77
17:39:00.703125,0.64
17:39:00.718750,0.52
17:39:00.734375,0.47
17:39:00.750000,0.54
17:39:00.765625,0.72
17:39:00.781250,0.94
17:39:00.796875,1.10
17:39:00.812500,1.14
17:39:00.828125,1.05
17:39:00.843750,0.87
17:39:00.859375,0.63
17:39:00.875000,0.39
17:39:00.890625,0.11
17:39:00.906250,-0.22
17:39:00.921875,-0.63
17:39:00.937500,-1.06
17:39:00.953125,-1.44
17:39:00.968750,-1.69
17:39:00.984375,-1.76
17:39:01,-1.70
17:39:01.015625,-1.60
17:39:01.031250,-1.52
17:39:01.046875,-1.47
17:39:01.062500,-1.36
17:39:01.078125,-1.09
17:39:01.093750,-0.63
17:39:01.109375,-0.05
17:39:01.125000,0.50
17:39:01.140625,0.85
17:39:01.156250,0.89
17:39:01.171875,0.69
17:39:01.187500,0.42
17:39:01.203125,0.31
17:39:01.218750,0.48
17:39:01.234375,0.92
17:39:01.250000,1.49
17:39:01.265625,2.00
17:39:01.281250,2.28
17:39:01.296875,2.31
17:39:01.312500,2.13
17:39:01.328125,1.88
17:39:01.343750,1.65
17:39:01.359375,1.53
17:39:01.375000,1.52
17:39:01.390625,1.63
17:39:01.406250,1.80
17:39:01.421875,1.97
17:39:01.437500,2.08
17:39:01.453125,2.10
17:39:01.468750,2.00
17:39:01.484375,1.79
17:39:01.500000,1.51
17:39:01.515625,1.18
17:39:01.531250,0.83
17:39:01.546875,0.47
17:39:01.562500,0.14
17:39:01.578125,-0.10
17:39:01.593750,-0.26
17:39:01.609375,-0.35
17:39:01.625000,-0.47
17:39:01.640625,-0.70
17:39:01.656250,-1.07
17:39:01.671875,-1.52
17:39:01.687500,-1.95
17:39:01.703125,-2.26
17:39:01.718750,-2.39
17:39:01.734375,-2.39
17:39:01.750000,-2.33
17:39:01.765625,-2.26
17:39:01.781250,-2.15
17:39:01.796875,-1.96
17:39:01.812500,-1.65
17:39:01.828125,-1.22
17:39:01.843750,-0.73
17:39:01.859375,-0.23
17:39:01.875000,0.19
17:39:01.890625,0.55
17:39:01.906250,0.87
17:39:01.921875,1.18
17:39:01.937500,1.51
17:39:01.953125,1.82
17:39:01.968750,2.04
17:39:01.984375,2.06
17:39:02,1.81
17:39:02.015625,1.30
17:39:02.031250,0.65
17:39:02.046875,0.09
17:39:02.062500,-0.18
17:39:02.078125,-0.05
17:39:02.093750,0.40
17:39:02.109375,0.99
17:39:02.125000,1.50
17:39:02.140625,1.81
17:39:02.156250,1.90
17:39:02.171875,1.88
17:39:02.187500,1.82
17:39:02.203125,1.70
17:39:02.218750,1.46
17:39:02.234375,1.03
17:39:02.250000,0.46
17:39:02.265625,-0.12
17:39:02.281250,-0.50
17:39:02.296875,-0.58
17:39:02.312500,-0.39
17:39:02.328125,-0.09
17:39:02.343750,0.10
17:39:02.359375,0.06
17:39:02.375000,-0.24
17:39:02.390625,-0.70
17:39:02.406250,-1.17
17:39:02.421875,-1.54
17:39:02.437500,-1.75
17:39:02.453125,-1.81
17:39:02.468750,-1.77
17:39:02.484375,-1.67
17:39:02.500000,-1.55
17:39:02.515625,-1.44
17:39:02.531250,-1.35
17:39:02.546875,-1.26
17:39:02.562500,-1.17
17:39:02.578125,-1.02
17:39:02.593750,-0.81
17:39:02.609375,-0.52
17:39:02.625000,-0.18
17:39:02.640625,0.18
17:39:02.656250,0.53
17:39:02.671875,0.85
17:39:02.687500,1.14
17:39:02.703125,1.43
17:39:02.718750,1.69
17:39:02.734375,1.89
17:39:02.750000,1.98
17:39:02.765625,1.92
17:39:02.781250,1.72
17:39:02.796875,1.46
17:39:02.812500,1.24
17:39:02.828125,1.17
17:39:02.843750,1.27
17:39:02.859375,1.50
17:39:02.875000,1.76
17:39:02.890625,1.94
17:39:02.906250,1.94
17:39:02.921875,1.78
17:39:02.937500,1.49
17:39:02.953125,1.15
17:39:02.968750,0.82
17:39:02.984375,0.55
17:39:03,0.38
17:39:03.015625,0.33
17:39:03.031250,0.40
17:39:03.046875,0.54
17:39:03.062500,0.68
17:39:03.078125,0.73
17:39:03.093750,0.63
17:39:03.109375,0.40
17:39:03.125000,0.08
17:39:03.140625,-0.24
17:39:03.156250,-0.53
17:39:03.171875,-0.78
17:39:03.187500,-1.03
17:39:03.203125,-1.32
17:39:03.218750,-1.60
17:39:03.234375,-1.82
17:39:03.250000,-1.90
17:39:03.265625,-1.85
17:39:03.281250,-1.77
17:39:03.296875,-1.79
17:39:03.312500,-1.98
17:39:03.328125,-2.33
17:39:03.343750,-2.67
17:39:03.359375,-2.81
17:39:03.375000,-2.58
17:39:03.390625,-1.96
17:39:03.406250,-1.09
17:39:03.421875,-0.20
17:39:03.437500,0.51
17:39:03.453125,0.90
17:39:03.468750,1.00
17:39:03.484375,0.91
17:39:03.500000,0.73
17:39:03.515625,0.55
17:39:03.531250,0.42
17:39:03.546875,0.37
17:39:03.562500,0.43
17:39:03.578125,0.63
17:39:03.593750,0.98
17:39:03.609375,1.46
17:39:03.625000,1.96
17:39:03.640625,2.35
17:39:03.656250,2.51
17:39:03.671875,2.36
17:39:03.687500,1.93
17:39:03.703125,1.35
17:39:03.718750,0.78
17:39:03.734375,0.33
17:39:03.750000,0.10
17:39:03.765625,0.12
17:39:03.781250,0.32
17:39:03.796875,0.62
17:39:03.812500,0.92
17:39:03.828125,1.11
17:39:03.843750,1.16
17:39:03.859375,1.11
17:39:03.875000,1.08
17:39:03.890625,1.17
17:39:03.906250,1.42
17:39:03.921875,1.75
17:39:03.937500,2.00
17:39:03.953125,2.03
17:39:03.968750,1.80
17:39:03.984375,1.41
17:39:04,1.06
17:39:04.015625,0.89
17:39:04.031250,0.95
17:39:04.046875,1.13
17:39:04.062500,1.26
17:39:04.078125,1.20
17:39:04.093750,0.92
17:39:04.109375,0.51
17:39:04.125000,0.12
17:39:04.140625,-0.17
17:39:04.156250,-0.34
17:39:04.171875,-0.47
17:39:04.187500,-0.62
17:39:04.203125,-0.86
17:39:04.218750,-1.18
17:39:04.234375,-1.53
17:39:04.250000,-1.88
17:39:04.265625,-2.19
17:39:04.281250,-2.44
17:39:04.296875,-2.64
17:39:04.312500,-2.74
17:39:04.328125,-2.68
17:39:04.343750,-2.42
17:39:04.359375,-1.96
17:39:04.375000,-1.40
17:39:04.390625,-0.89
17:39:04.406250,-0.55
17:39:04.421875,-0.42
17:39:04.437500,-0.44
17:39:04.453125,-0.48
17:39:04.468750,-0.46
17:39:04.484375,-0.34
17:39:04.500000,-0.16
17:39:04.515625,0.04
17:39:04.531250,0.22
17:39:04.546875,0.38
17:39:04.562500,0.53
17:39:04.578125,0.62
17:39:04.593750,0.60
17:39:04.609375,0.44
17:39:04.625000,0.21
17:39:04.640625,0.04
17:39:04.656250,0.08
17:39:04.671875,0.39
17:39:04.687500,0.88
17:39:04.703125,1.34
17:39:04.718750,1.58
17:39:04.734375,1.53
17:39:04.750000,1.25
17:39:04.765625,0.89
17:39:04.781250,0.62
17:39:04.796875,0.49
17:39:04.812500,0.46
17:39:04.828125,0.43
17:39:04.843750,0.39
17:39:04.859375,0.34
17:39:04.875000,0.36
17:39:04.890625,0.46
17:39:04.906250,0.58
17:39:04.921875,0.61
17:39:04.937500,0.47
17:39:04.953125,0.14
17:39:04.968750,-0.30
17:39:04.984375,-0.71
17:39:05,-0.95
17:39:05.015625,-0.97
17:39:05.031250,-0.86
17:39:05.046875,-0.79
17:39:05.062500,-0.88
17:39:05.078125,-1.19
17:39:05.093750,-1.64
17:39:05.109375,-2.09
17:39:05.125000,-2.39
17:39:05.140625,-2.46
17:39:05.156250,-2.31
17:39:05.171875,-2.01
17:39:05.187500,-1.64
17:39:05.203125,-1.28
17:39:05.218750,-0.97
17:39:05.234375,-0.75
17:39:05.250000,-0.65
17:39:05.265625,-0.67
17:39:05.281250,-0.81
17:39:05.296875,-1.04
17:39:05.312500,-1.28
17:39:05.328125,-1.47
17:39:05.343750,-1.53
17:39:05.359375,-1.44
17:39:05.375000,-1.22
17:39:05.390625,-0.91
17:39:05.406250,-0.58
17:39:05.421875,-0.33
17:39:05.437500,-0.19
17:39:05.453125,-0.13
17:39:05.468750,-0.08
17:39:05.484375,0.08
17:39:05.500000,0.47
17:39:05.515625,1.13
17:39:05.531250,2.02
17:39:05.546875,2.98
17:39:05.562500,3.83
17:39:05.578125,4.37
17:39:05.593750,4.53
17:39:05.609375,4.33
17:39:05.625000,3.88
17:39:05.640625,3.29
17:39:05.656250,2.66
17:39:05.671875,2.02
17:39:05.687500,1.33
17:39:05.703125,0.54
17:39:05.718750,-0.33
17:39:05.734375,-1.14
17:39:05.750000,-1.74
17:39:05.765625,-2.02
17:39:05.781250,-2.00
17:39:05.796875,-1.79
17:39:05.812500,-1.53
17:39:05.828125,-1.39
17:39:05.843750,-1.47
17:39:05.859375,-1.76
17:39:05.875000,-2.15
17:39:05.890625,-2.53
17:39:05.906250,-2.97
17:39:05.921875,-3.58
17:39:05.937500,-4.42
17:39:05.953125,-5.54
17:39:05.968750,-6.89
17:39:05.984375,-8.37
17:39:06,-9.86
17:39:06.015625,-11.15
17:39:06.031250,-12.13
17:39:06.046875,-12.94
17:39:06.062500,-13.64
17:39:06.078125,-14.09
17:39:06.093750,-14.03
17:39:06.109375,-13.27
17:39:06.125000,-11.79
17:39:06.140625,-9.83
17:39:06.156250,-7.69
17:39:06.171875,-5.70
17:39:06.187500,-4.40
17:39:06.203125,-3.93
17:39:06.218750,-3.87
17:39:06.234375,-3.56
17:39:06.250000,-2.33
17:39:06.265625,0.30
17:39:06.281250,4.53
17:39:06.296875,10.48
17:39:06.312500,17.94
17:39:06.328125,25.99
17:39:06.343750,33.68
17:39:06.359375,40.41
17:39:06.375000,45.78
17:39:06.390625,49.63
17:39:06.406250,52.05
17:39:06.421875,51.68
17:39:06.437500,47.62
17:39:06.453125,42.26
17:39:06.468750,36.99
17:39:06.484375,31.54
17:39:06.500000,26.00
17:39:06.515625,20.57
17:39:06.531250,15.54
17:39:06.546875,11.23
17:39:06.562500,7.82
17:39:06.578125,5.61
17:39:06.593750,4.79
17:39:06.609375,4.95
17:39:06.625000,5.60
17:39:06.640625,6.43
17:39:06.656250,7.12
17:39:06.671875,7.46
17:39:06.687500,7.37
17:39:06.703125,6.81
17:39:06.718750,5.99
17:39:06.734375,5.08
17:39:06.750000,3.94
17:39:06.765625,2.22
17:39:06.781250,-0.31
17:39:06.796875,-3.94
17:39:06.812500,-8.80
17:39:06.828125,-14.76
17:39:06.843750,-21.56
17:39:06.859375,-28.59
17:39:06.875000,-35.05
17:39:06.890625,-40.22
17:39:06.906250,-43.65
17:39:06.921875,-45.18
17:39:06.937500,-45.14
17:39:06.953125,-44.11
17:39:06.968750,-41.88
17:39:06.984375,-38.51
17:39:07,-34.08
17:39:07.015625,-29.85
17:39:07.031250,-26.08
17:39:07.046875,-22.75
17:39:07.062500,-19.35
17:39:07.078125,-15.77
17:39:07.093750,-12.06
17:39:07.109375,-8.34
17:39:07.125000,-4.87
17:39:07.140625,-1.80
17:39:07.156250,0.74
17:39:07.171875,2.83
17:39:07.187500,4.42
17:39:07.203125,5.48
17:39:07.218750,5.96
17:39:07.234375,5.96
17:39:07.250000,5.72
17:39:07.265625,5.39
17:39:07.281250,5.13
17:39:07.296875,5.00
17:39:07.312500,5.09
17:39:07.328125,5.31
17:39:07.343750,5.48
17:39:07.359375,5.42
17:39:07.375000,5.10
17:39:07.390625,4.62
17:39:07.406250,4.10
17:39:07.421875,3.62
17:39:07.437500,3.20
17:39:07.453125,2.86
17:39:07.468750,2.53
17:39:07.484375,2.16
17:39:07.500000,1.72
17:39:07.515625,1.31
17:39:07.531250,1.06
17:39:07.546875,1.00
17:39:07.562500,1.09
17:39:07.578125,1.24
17:39:07.593750,1.35
17:39:07.609375,1.38
17:39:07.625000,1.30
17:39:07.640625,1.12
17:39:07.656250,0.90
17:39:07.671875,0.67
17:39:07.687500,0.47
17:39:07.703125,0.27
17:39:07.718750,0.08
17:39:07.734375,-0.17
17:39:07.750000,-0.51
17:39:07.765625,-0.96
17:39:07.781250,-1.47
17:39:07.796875,-1.92
17:39:07.812500,-2.21
17:39:07.828125,-2.28
17:39:07.843750,-2.19
17:39:07.859375,-2.05
17:39:07.875000,-1.97
17:39:07.890625,-1.95
17:39:07.906250,-1.93
17:39:07.921875,-1.79
17:39:07.937500,-1.50
17:39:07.953125,-1.11
17:39:07.968750,-0.75
17:39:07.984375,-0.53
17:39:08,-0.46
17:39:08.015625,-0.47
17:39:08.031250,-0.42
17:39:08.046875,-0.22
17:39:08.062500,0.14
17:39:08.078125,0.58
17:39:08.093750,0.99
17:39:08.109375,1.29
17:39:08.125000,1.43
17:39:08.140625,1.43
17:39:08.156250,1.32
17:39:08.171875,1.08
17:39:08.187500,0.67
17:39:08.203125,0.09
17:39:08.218750,-0.59
17:39:08.234375,-1.20
17:39:08.250000,-1.55
17:39:08.265625,-1.51
17:39:08.281250,-1.10
17:39:08.296875,-0.49
17:39:08.312500,0.03
17:39:08.328125,0.26
17:39:08.343750,0.15
17:39:08.359375,-0.18
17:39:08.375000,-0.54
17:39:08.390625,-0.76
17:39:08.406250,-0.79
17:39:08.421875,-0.70
17:39:08.437500,-0.55
17:39:08.453125,-0.38
17:39:08.468750,-0.14
17:39:08.484375,0.23
17:39:08.500000,0.70
17:39:08.515625,1.17
17:39:08.531250,1.49
17:39:08.546875,1.53
17:39:08.562500,1.28
17:39:08.578125,0.82
17:39:08.593750,0.33
17:39:08.609375,-0.02
17:39:08.625000,-0.15
17:39:08.640625,-0.07
17:39:08.656250,0.14
17:39:08.671875,0.40
17:39:08.687500,0.64
17:39:08.703125,0.81
17:39:08.718750,0.91
17:39:08.734375,0.91
17:39:08.750000,0.79
17:39:08.765625,0.51
17:39:08.781250,0.07
17:39:08.796875,-0.46
17:39:08.812500,-0.97
17:39:08.828125,-1.32
17:39:08.843750,-1.45
17:39:08.859375,-1.37
17:39:08.875000,-1.18
17:39:08.890625,-0.97
17:39:08.906250,-0.83
17:39:08.921875,-0.77
17:39:08.937500,-0.74
17:39:08.953125,-0.72
17:39:08.968750,-0.68
17:39:08.984375,-0.67
17:39:09,-0.71
17:39:09.015625,-0.80
17:39:09.031250,-0.86
17:39:09.046875,-0.77
17:39:09.062500,-0.44
17:39:09.078125,0.16
17:39:09.093750,0.93
17:39:09.109375,1.67
17:39:09.125000,2.16
17:39:09.140625,2.27
17:39:09.156250,2.00
17:39:09.171875,1.50
17:39:09.187500,1.02
17:39:09.203125,0.78
17:39:09.218750,0.87
17:39:09.234375,1.19
17:39:09.250000,1.57
17:39:09.265625,1.78
17:39:09.281250,1.74
17:39:09.296875,1.47
17:39:09.312500,1.09
17:39:09.328125,0.76
17:39:09.343750,0.57
17:39:09.359375,0.53
17:39:09.375000,0.61
17:39:09.390625,0.76
17:39:09.406250,0.91
17:39:09.421875,1.05
17:39:09.437500,1.13
17:39:09.453125,1.09
17:39:09.468750,0.88
17:39:09.484375,0.50
17:39:09.500000,-0.01
17:39:09.515625,-0.54
17:39:09.531250,-0.95
17:39:09.546875,-1.16
17:39:09.562500,-1.17
17:39:09.578125,-1.08
17:39:09.593750,-1.03
17:39:09.609375,-1.12
17:39:09.625000,-1.37
17:39:09.640625,-1.67
17:39:09.656250,-1.86
17:39:09.671875,-1.83
17:39:09.687500,-1.60
17:39:09.703125,-1.24
17:39:09.718750,-0.90
17:39:09.734375,-0.64
17:39:09.750000,-0.46
17:39:09.765625,-0.33
17:39:09.781250,-0.18
17:39:09.796875,-0.03
17:39:09.812500,0.10
17:39:09.828125,0.19
17:39:09.843750,0.25
17:39:09.859375,0.35
17:39:09.875000,0.52
17:39:09.890625,0.73
17:39:09.906250,0.89
17:39:09.921875,0.90
17:39:09.937500,0.75
17:39:09.953125,0.50
17:39:09.968750,0.29
17:39:09.984375,0.24
17:39:10,0.39
17:39:10.015625,0.71
17:39:10.031250,1.09
17:39:10.046875,1.42
17:39:10.062500,1.64
17:39:10.078125,1.72
17:39:10.093750,1.67
17:39:10.109375,1.49
17:39:10.125000,1.19
17:39:10.140625,0.76
17:39:10.156250,0.25
17:39:10.171875,-0.29
17:39:10.187500,-0.73
17:39:10.203125,-1.00
17:39:10.218750,-1.02
17:39:10.234375,-0.87
17:39:10.250000,-0.63
17:39:10.265625,-0.47
17:39:10.281250,-0.47
17:39:10.296875,-0.63
17:39:10.312500,-0.85
17:39:10.328125,-1.01
17:39:10.343750,-1.04
17:39:10.359375,-0.96
17:39:10.375000,-0.85
17:39:10.390625,-0.80
17:39:10.406250,-0.85
17:39:10.421875,-0.94
17:39:10.437500,-1.02
17:39:10.453125,-1.01
17:39:10.468750,-0.91
17:39:10.484375,-0.75
17:39:10.500000,-0.56
17:39:10.515625,-0.34
17:39:10.531250,-0.07
17:39:10.546875,0.25
17:39:10.562500,0.59
17:39:10.578125,0.86
17:39:10.593750,1.00
17:39:10.609375,0.97
17:39:10.625000,0.79
17:39:10.640625,0.56
17:39:10.656250,0.38
17:39:10.671875,0.35
17:39:10.687500,0.51
17:39:10.703125,0.81
17:39:10.718750,1.17
17:39:10.734375,1.44
17:39:10.750000,1.51
17:39:10.765625,1.34
17:39:10.781250,0.98
17:39:10.796875,0.56
17:39:10.812500,0.19
17:39:10.828125,-0.03
17:39:10.843750,-0.11
17:39:10.859375,-0.11
17:39:10.875000,-0.10
17:39:10.890625,-0.11
17:39:10.906250,-0.13
17:39:10.921875,-0.14
17:39:10.937500,-0.15
17:39:10.953125,-0.17
17:39:10.968750,-0.22
17:39:10.984375,-0.31
17:39:11,-0.37
17:39:11.015625,-0.35
17:39:11.031250,-0.20
17:39:11.046875,0.02
17:39:11.062500,0.22
17:39:11.078125,0.30
17:39:11.093750,0.21
17:39:11.109375,-0.02
17:39:11.125000,-0.28
17:39:11.140625,-0.45
17:39:11.156250,-0.44
17:39:11.171875,-0.22
17:39:11.187500,0.11
17:39:11.203125,0.40
17:39:11.218750,0.52
17:39:11.234375,0.39
17:39:11.250000,0.01
17:39:11.265625,-0.51
17:39:11.281250,-1.05
17:39:11.296875,-1.48
17:39:11.312500,-1.72
17:39:11.328125,-1.74
17:39:11.343750,-1.53
17:39:11.359375,-1.13
17:39:11.375000,-0.62
17:39:11.390625,-0.11
17:39:11.406250,0.30
17:39:11.421875,0.51
17:39:11.437500,0.53
17:39:11.453125,0.43
17:39:11.468750,0.32
17:39:11.484375,0.29
17:39:11.500000,0.38
17:39:11.515625,0.53
17:39:11.531250,0.66
17:39:11.546875,0.73
17:39:11.562500,0.75
17:39:11.578125,0.79
17:39:11.593750,0.89
17:39:11.609375,1.02
17:39:11.625000,1.12
17:39:11.640625,1.07
17:39:11.656250,0.84
17:39:11.671875,0.48
17:39:11.687500,0.11
17:39:11.703125,-0.10
17:39:11.718750,-0.09
17:39:11.734375,0.10
17:39:11.750000,0.35
17:39:11.765625,0.54
17:39:11.781250,0.61
17:39:11.796875,0.59
17:39:11.812500,0.55
17:39:11.828125,0.55
17:39:11.843750,0.59
17:39:11.859375,0.64
17:39:11.875000,0.67
17:39:11.890625,0.66
17:39:11.906250,0.62
17:39:11.921875,0.55
17:39:11.937500,0.46
17:39:11.953125,0.35
17:39:11.968750,0.21
17:39:11.984375,0.07
17:39:12,-0.05
17:39:12.015625,-0.14
17:39:12.031250,-0.22
17:39:12.046875,-0.32
17:39:12.062500,-0.45
17:39:12.078125,-0.61
17:39:12.093750,-0.76
17:39:12.109375,-0.86
17:39:12.125000,-0.90
17:39:12.140625,-0.90
17:39:12.156250,-0.90
17:39:12.171875,-0.92
17:39:12.187500,-1.01
17:39:12.203125,-1.14
17:39:12.218750,-1.26
17:39:12.234375,-1.30
17:39:12.250000,-1.21
17:39:12.265625,-0.94
17:39:12.281250,-0.53
17:39:12.296875,-0.09
17:39:12.312500,0.29
17:39:12.328125,0.55
17:39:12.343750,0.67
17:39:12.359375,0.75
17:39:12.375000,0.84
17:39:12.390625,0.99
17:39:12.406250,1.14
17:39:12.421875,1.21
17:39:12.437500,1.11
17:39:12.453125,0.82
17:39:12.468750,0.42
17:39:12.484375,0.02
17:39:12.500000,-0.24
17:39:12.515625,-0.31
17:39:12.531250,-0.17
17:39:12.546875,0.11
17:39:12.562500,0.43
17:39:12.578125,0.68
17:39:12.593750,0.82
17:39:12.609375,0.81
17:39:12.625000,0.70
17:39:12.640625,0.54
17:39:12.656250,0.38
17:39:12.671875,0.26
17:39:12.687500,0.20
17:39:12.703125,0.17
17:39:12.718750,0.13
17:39:12.734375,0.07
17:39:12.750000,-0.02
17:39:12.765625,-0.14
17:39:12.781250,-0.26
17:39:12.796875,-0.35
17:39:12.812500,-0.38
17:39:12.828125,-0.33
17:39:12.843750,-0.19
17:39:12.859375,0.02
17:39:12.875000,0.27
17:39:12.890625,0.49
17:39:12.906250,0.63
17:39:12.921875,0.63
17:39:12.937500,0.50
17:39:12.953125,0.26
17:39:12.968750,-0.02
17:39:12.984375,-0.28
17:39:13,-0.50
17:39:13.015625,-0.65
17:39:13.031250,-0.77
17:39:13.046875,-0.88
17:39:13.062500,-0.97
17:39:13.078125,-1.03
17:39:13.093750,-1.04
17:39:13.109375,-1.02
17:39:13.125000,-1.00
17:39:13.140625,-1.05
17:39:13.156250,-1.20
17:39:13.171875,-1.47
17:39:13.187500,-1.75
17:39:13.203125,-1.93
17:39:13.218750,-1.86
17:39:13.234375,-1.50
17:39:13.250000,-0.90
17:39:13.265625,-0.24
17:39:13.281250,0.33
17:39:13.296875,0.67
17:39:13.312500,0.75
17:39:13.328125,0.66
17:39:13.343750,0.52
17:39:13.359375,0.46
17:39:13.375000,0.52
17:39:13.390625,0.67
17:39:13.406250,0.84
17:39:13.421875,0.92
17:39:13.437500,0.86
17:39:13.453125,0.66
17:39:13.468750,0.39
17:39:13.484375,0.11
17:39:13.500000,-0.11
17:39:13.515625,-0.22
17:39:13.531250,-0.23
17:39:13.546875,-0.14
17:39:13.562500,0.01
17:39:13.578125,0.20
17:39:13.593750,0.38
17:39:13.609375,0.54
17:39:13.625000,0.66
17:39:13.640625,0.76
17:39:13.656250,0.83
17:39:13.671875,0.89
17:39:13.687500,0.97
17:39:13.703125,1.05
17:39:13.718750,1.13
17:39:13.734375,1.15
17:39:13.750000,1.05
17:39:13.765625,0.82
17:39:13.781250,0.49
17:39:13.796875,0.13
17:39:13.812500,-0.15
17:39:13.828125,-0.29
17:39:13.843750,-0.30
17:39:13.859375,-0.26
17:39:13.875000,-0.26
17:39:13.890625,-0.34
17:39:13.906250,-0.47
17:39:13.921875,-0.57
17:39:13.937500,-0.56
17:39:13.953125,-0.40
17:39:13.968750,-0.14
17:39:13.984375,0.14
17:39:14,0.38
17:39:14.015625,0.54
17:39:14.031250,0.60
17:39:14.046875,0.57
17:39:14.062500,0.44
17:39:14.078125,0.21
17:39:14.093750,-0.11
17:39:14.109375,-0.46
17:39:14.125000,-0.78
17:39:14.140625,-0.97
17:39:14.156250,-1.00
17:39:14.171875,-0.90
17:39:14.187500,-0.70
17:39:14.203125,-0.48
17:39:14.218750,-0.28
17:39:14.234375,-0.10
17:39:14.250000,0.07
17:39:14.265625,0.26
17:39:14.281250,0.48
17:39:14.296875,0.70
17:39:14.312500,0.86
17:39:14.328125,0.87
17:39:14.343750,0.68
17:39:14.359375,0.31
17:39:14.375000,-0.15
17:39:14.390625,-0.54
17:39:14.406250,-0.76
17:39:14.421875,-0.74
17:39:14.437500,-0.52
17:39:14.453125,-0.16
17:39:14.468750,0.21
17:39:14.484375,0.51
17:39:14.500000,0.68
17:39:14.515625,0.71
17:39:14.531250,0.63
17:39:14.546875,0.50
17:39:14.562500,0.40
17:39:14.578125,0.41
17:39:14.593750,0.55
17:39:14.609375,0.77
17:39:14.625000,0.98
17:39:14.640625,1.08
17:39:14.656250,0.99
17:39:14.671875,0.76
17:39:14.687500,0.47
17:39:14.703125,0.19
17:39:14.718750,-0.01
17:39:14.734375,-0.17
17:39:14.750000,-0.31
17:39:14.765625,-0.46
17:39:14.781250,-0.59
17:39:14.796875,-0.70
17:39:14.812500,-0.79
17:39:14.828125,-0.88
17:39:14.843750,-0.99
17:39:14.859375,-1.08
17:39:14.875000,-1.09
17:39:14.890625,-0.98
17:39:14.906250,-0.74
17:39:14.921875,-0.45
17:39:14.937500,-0.22
17:39:14.953125,-0.16
17:39:14.968750,-0.26
17:39:14.984375,-0.45
17:39:15,-0.63
17:39:15.015625,-0.73
17:39:15.031250,-0.76
17:39:15.046875,-0.74
17:39:15.062500,-0.73
17:39:15.078125,-0.69
17:39:15.093750,-0.56
17:39:15.109375,-0.31
17:39:15.125000,0.01
17:39:15.140625,0.29
17:39:15.156250,0.41
17:39:15.171875,0.33
17:39:15.187500,0.16
17:39:15.203125,0.04
17:39:15.218750,0.12
17:39:15.234375,0.40
17:39:15.250000,0.79
17:39:15.265625,1.11
17:39:15.281250,1.21
17:39:15.296875,1.07
17:39:15.312500,0.74
17:39:15.328125,0.36
17:39:15.343750,0.08
17:39:15.359375,-0.02
17:39:15.375000,0.06
17:39:15.390625,0.28
17:39:15.406250,0.59
17:39:15.421875,0.89
17:39:15.437500,1.13
17:39:15.453125,1.25
17:39:15.468750,1.21
17:39:15.484375,1.03
17:39:15.500000,0.71
17:39:15.515625,0.29
17:39:15.531250,-0.17
17:39:15.546875,-0.59
17:39:15.562500,-0.89
17:39:15.578125,-1.00
17:39:15.593750,-0.89
17:39:15.609375,-0.58
17:39:15.625000,-0.16
17:39:15.640625,0.26
17:39:15.656250,0.56
17:39:15.671875,0.66
17:39:15.687500,0.54
17:39:15.703125,0.23
17:39:15.718750,-0.18
17:39:15.734375,-0.57
17:39:15.750000,-0.88
17:39:15.765625,-1.05
17:39:15.781250,-1.09
17:39:15.796875,-1.01
17:39:15.812500,-0.85
17:39:15.828125,-0.62
17:39:15.843750,-0.36
17:39:15.859375,-0.10
17:39:15.875000,0.08
17:39:15.890625,0.14
17:39:15.906250,0.01
17:39:15.921875,-0.27
17:39:15.937500,-0.67
17:39:15.953125,-1.08
17:39:15.968750,-1.42
17:39:15.984375,-1.64
17:39:16,-1.76
17:39:16.015625,-1.82
17:39:16.031250,-1.86
17:39:16.046875,-1.89
17:39:16.062500,-1.85
17:39:16.078125,-1.72
17:39:16.093750,-1.46
17:39:16.109375,-1.12
17:39:16.125000,-0.77
17:39:16.140625,-0.50
17:39:16.156250,-0.32
17:39:16.171875,-0.25
17:39:16.187500,-0.23
17:39:16.203125,-0.20
17:39:16.218750,-0.13
17:39:16.234375,-0.02
17:39:16.250000,0.11
17:39:16.265625,0.21
17:39:16.281250,0.24
17:39:16.296875,0.13
17:39:16.312500,-0.11
17:39:16.328125,-0.46
17:39:16.343750,-0.85
17:39:16.359375,-1.17
17:39:16.375000,-1.33
17:39:16.390625,-1.31
17:39:16.406250,-1.14
17:39:16.421875,-0.88
17:39:16.437500,-0.59
17:39:16.453125,-0.29
17:39:16.468750,0.06
17:39:16.484375,0.48
17:39:16.500000,0.96
17:39:16.515625,1.44
17:39:16.531250,1.82
17:39:16.546875,2.04
17:39:16.562500,2.10
17:39:16.578125,2.07
17:39:16.593750,2.05
17:39:16.609375,2.12
17:39:16.625000,2.31
17:39:16.640625,2.60
17:39:16.656250,2.94
17:39:16.671875,3.25
17:39:16.687500,3.46
17:39:16.703125,3.48
17:39:16.718750,3.28
17:39:16.734375,2.82
17:39:16.750000,2.18
17:39:16.765625,1.49
17:39:16.781250,0.92
17:39:16.796875,0.57
17:39:16.812500,0.44
17:39:16.828125,0.42
17:39:16.843750,0.37
17:39:16.859375,0.16
17:39:16.875000,-0.22
17:39:16.890625,-0.74
17:39:16.906250,-1.28
17:39:16.921875,-1.76
17:39:16.937500,-2.09
17:39:16.953125,-2.26
17:39:16.968750,-2.27
17:39:16.984375,-2.12
17:39:17,-1.82
17:39:17.015625,-1.38
17:39:17.031250,-0.85
17:39:17.046875,-0.28
17:39:17.062500,0.25
17:39:17.078125,0.68
17:39:17.093750,0.95
17:39:17.109375,1.05
17:39:17.125000,1.03
17:39:17.140625,0.92
17:39:17.156250,0.80
17:39:17.171875,0.70
17:39:17.187500,0.67
17:39:17.203125,0.72
17:39:17.218750,0.86
17:39:17.234375,1.03
17:39:17.250000,1.16
17:39:17.265625,1.20
17:39:17.281250,1.08
17:39:17.296875,0.86
17:39:17.312500,0.62
17:39:17.328125,0.45
17:39:17.343750,0.42
17:39:17.359375,0.51
17:39:17.375000,0.60
17:39:17.390625,0.59
17:39:17.406250,0.39
17:39:17.421875,0.03
17:39:17.437500,-0.40
17:39:17.453125,-0.76
17:39:17.468750,-0.97
17:39:17.484375,-1.04
17:39:17.500000,-1.04
17:39:17.515625,-1.05
17:39:17.531250,-1.13
17:39:17.546875,-1.23
17:39:17.562500,-1.24
17:39:17.578125,-1.08
17:39:17.593750,-0.74
17:39:17.609375,-0.35
17:39:17.625000,-0.11
17:39:17.640625,-0.18
17:39:17.656250,-0.57
17:39:17.671875,-1.14
17:39:17.687500,-1.62
17:39:17.703125,-1.82
17:39:17.718750,-1.66
17:39:17.734375,-1.28
17:39:17.750000,-0.91
17:39:17.765625,-0.77
17:39:17.781250,-0.93
17:39:17.796875,-1.31
17:39:17.812500,-1.72
17:39:17.828125,-1.96
17:39:17.843750,-1.90
17:39:17.859375,-1.54
17:39:17.875000,-0.95
17:39:17.890625,-0.28
17:39:17.906250,0.35
17:39:17.921875,0.82
17:39:17.937500,1.09
17:39:17.953125,1.20
17:39:17.968750,1.23
17:39:17.984375,1.24
17:39:18,1.26
17:39:18.015625,1.27
17:39:18.031250,1.22
17:39:18.046875,1.09
17:39:18.062500,0.95
17:39:18.078125,0.89
17:39:18.093750,0.94
17:39:18.109375,1.11
17:39:18.125000,1.28
17:39:18.140625,1.35
17:39:18.156250,1.26
17:39:18.171875,1.00
17:39:18.187500,0.68
17:39:18.203125,0.38
17:39:18.218750,0.17
17:39:18.234375,0.02
17:39:18.250000,-0.11
17:39:18.265625,-0.27
17:39:18.281250,-0.44
17:39:18.296875,-0.55
17:39:18.312500,-0.53
17:39:18.328125,-0.33
17:39:18.343750,-0.01
17:39:18.359375,0.33
17:39:18.375000,0.53
17:39:18.390625,0.51
17:39:18.406250,0.24
17:39:18.421875,-0.18
17:39:18.437500,-0.63
17:39:18.453125,-0.99
17:39:18.468750,-1.23
17:39:18.484375,-1.37
17:39:18.500000,-1.46
17:39:18.515625,-1.55
17:39:18.531250,-1.62
17:39:18.546875,-1.61
17:39:18.562500,-1.50
17:39:18.578125,-1.31
17:39:18.593750,-1.08
17:39:18.609375,-0.89
17:39:18.625000,-0.75
17:39:18.640625,-0.64
17:39:18.656250,-0.54
17:39:18.671875,-0.45
17:39:18.687500,-0.41
17:39:18.703125,-0.46
17:39:18.718750,-0.60
17:39:18.734375,-0.76
17:39:18.750000,-0.80
17:39:18.765625,-0.66
17:39:18.781250,-0.31
17:39:18.796875,0.16
17:39:18.812500,0.64
17:39:18.828125,1.03
17:39:18.843750,1.26
17:39:18.859375,1.34
17:39:18.875000,1.27
17:39:18.890625,1.09
17:39:18.906250,0.83
17:39:18.921875,0.56
17:39:18.937500,0.36
17:39:18.953125,0.28
17:39:18.968750,0.36
17:39:18.984375,0.54
17:39:19,0.78
17:39:19.015625,0.95
17:39:19.031250,0.99
17:39:19.046875,0.87
17:39:19.062500,0.62
17:39:19.078125,0.33
17:39:19.093750,0.11
17:39:19.109375,0.05
17:39:19.125000,0.17
17:39:19.140625,0.40
17:39:19.156250,0.60
17:39:19.171875,0.64
17:39:19.187500,0.46
17:39:19.203125,0.09
17:39:19.218750,-0.35
17:39:19.234375,-0.72
17:39:19.250000,-0.93
17:39:19.265625,-0.92
17:39:19.281250,-0.75
17:39:19.296875,-0.49
17:39:19.312500,-0.23
17:39:19.328125,-0.05
17:39:19.343750,0.03
17:39:19.359375,0.01
17:39:19.375000,-0.04
17:39:19.390625,-0.07
17:39:19.406250,-0.05
17:39:19.421875,-0.01
17:39:19.437500,0.04
17:39:19.453125,0.06
17:39:19.468750,0.11
17:39:19.484375,0.20
17:39:19.500000,0.36
17:39:19.515625,0.52
17:39:19.531250,0.60
17:39:19.546875,0.50
17:39:19.562500,0.21
17:39:19.578125,-0.20
17:39:19.593750,-0.60
17:39:19.609375,-0.92
17:39:19.625000,-1.16
17:39:19.640625,-1.35
17:39:19.656250,-1.53
17:39:19.671875,-1.69
17:39:19.687500,-1.75
17:39:19.703125,-1.63
17:39:19.718750,-1.32
17:39:19.734375,-0.86
17:39:19.750000,-0.34
17:39:19.765625,0.11
17:39:19.781250,0.42
17:39:19.796875,0.55
17:39:19.812500,0.49
17:39:19.828125,0.29
17:39:19.843750,-0.01
17:39:19.859375,-0.34
17:39:19.875000,-0.59
17:39:19.890625,-0.68
17:39:19.906250,-0.56
17:39:19.921875,-0.25
17:39:19.937500,0.16
17:39:19.953125,0.54
17:39:19.968750,0.75
17:39:19.984375,0.72
17:39:20,0.44
17:39:20.015625,0.05
17:39:20.031250,-0.29
17:39:20.046875,-0.46
17:39:20.062500,-0.37
17:39:20.078125,-0.09
17:39:20.093750,0.25
17:39:20.109375,0.53
17:39:20.125000,0.64
17:39:20.140625,0.58
17:39:20.156250,0.40
17:39:20.171875,0.19
17:39:20.187500,0.00
17:39:20.203125,-0.12
17:39:20.218750,-0.18
17:39:20.234375,-0.17
17:39:20.250000,-0.11
17:39:20.265625,0.02
17:39:20.281250,0.19
17:39:20.296875,0.39
17:39:20.312500,0.58
17:39:20.328125,0.73
17:39:20.343750,0.85
17:39:20.359375,0.93
17:39:20.375000,0.99
17:39:20.390625,1.05
17:39:20.406250,1.07
17:39:20.421875,1.00
17:39:20.437500,0.80
17:39:20.453125,0.47
17:39:20.468750,0.08
17:39:20.484375,-0.25
17:39:20.500000,-0.40
17:39:20.515625,-0.30
17:39:20.531250,0.02
17:39:20.546875,0.47
17:39:20.562500,0.90
17:39:20.578125,1.20
17:39:20.593750,1.29
17:39:20.609375,1.18
17:39:20.625000,0.93
17:39:20.640625,0.65
17:39:20.656250,0.41
17:39:20.671875,0.27
17:39:20.687500,0.21
17:39:20.703125,0.20
17:39:20.718750,0.18
17:39:20.734375,0.11
17:39:20.750000,0.01
17:39:20.765625,-0.09
17:39:20.781250,-0.08
17:39:20.796875,0.07
17:39:20.812500,0.35
17:39:20.828125,0.66
17:39:20.843750,0.86
17:39:20.859375,0.83
17:39:20.875000,0.55
17:39:20.890625,0.13
17:39:20.906250,-0.28
17:39:20.921875,-0.51
17:39:20.937500,-0.49
17:39:20.953125,-0.25
17:39:20.968750,0.05
17:39:20.984375,0.25
17:39:21,0.27
17:39:21.015625,0.12
17:39:21.031250,-0.05
17:39:21.046875,-0.16
17:39:21.062500,-0.15
17:39:21.078125,-0.09
17:39:21.093750,-0.10
17:39:21.109375,-0.28
17:39:21.125000,-0.63
17:39:21.140625,-1.05
17:39:21.156250,-1.37
17:39:21.171875,-1.45
17:39:21.187500,-1.28
17:39:21.203125,-0.94
17:39:21.218750,-0.61
17:39:21.234375,-0.42
17:39:21.250000,-0.45
17:39:21.265625,-0.70
17:39:21.281250,-1.07
17:39:21.296875,-1.44
17:39:21.312500,-1.73
17:39:21.328125,-1.91
17:39:21.343750,-1.98
17:39:21.359375,-1.98
17:39:21.375000,-1.93
17:39:21.390625,-1.86
17:39:21.406250,-1.77
17:39:21.421875,-1.63
17:39:21.437500,-1.41
17:39:21.453125,-1.09
17:39:21.468750,-0.68
17:39:21.484375,-0.25
17:39:21.500000,0.12
17:39:21.515625,0.34
17:39:21.531250,0.38
17:39:21.546875,0.28
17:39:21.562500,0.12
17:39:21.578125,-0.00
17:39:21.593750,0.00
17:39:21.609375,0.16
17:39:21.625000,0.44
17:39:21.640625,0.77
17:39:21.656250,1.07
17:39:21.671875,1.24
17:39:21.687500,1.26
17:39:21.703125,1.12
17:39:21.718750,0.89
17:39:21.734375,0.63
17:39:21.750000,0.40
17:39:21.765625,0.21
17:39:21.781250,0.05
17:39:21.796875,-0.07
17:39:21.812500,-0.12
17:39:21.828125,-0.04
17:39:21.843750,0.18
17:39:21.859375,0.53
17:39:21.875000,0.88
17:39:21.890625,1.10
17:39:21.906250,1.08
17:39:21.921875,0.80
17:39:21.937500,0.33
17:39:21.953125,-0.21
17:39:21.968750,-0.67
17:39:21.984375,-0.99
17:39:22,-1.17
17:39:22.015625,-1.28
17:39:22.031250,-1.39
17:39:22.046875,-1.55
17:39:22.062500,-1.77
17:39:22.078125,-2.04
17:39:22.093750,-2.30
17:39:22.109375,-2.51
17:39:22.125000,-2.63
17:39:22.140625,-2.65
17:39:22.156250,-2.57
17:39:22.171875,-2.42
17:39:22.187500,-2.23
17:39:22.203125,-2.03
17:39:22.218750,-1.82
17:39:22.234375,-1.61
17:39:22.250000,-1.42
17:39:22.265625,-1.31
17:39:22.281250,-1.31
17:39:22.296875,-1.42
17:39:22.312500,-1.57
17:39:22.328125,-1.62
17:39:22.343750,-1.41
17:39:22.359375,-0.84
17:39:22.375000,0.06
17:39:22.390625,1.16
17:39:22.406250,2.21
17:39:22.421875,2.97
17:39:22.437500,3.28
17:39:22.453125,3.17
17:39:22.468750,2.75
17:39:22.484375,2.22
17:39:22.500000,1.76
17:39:22.515625,1.48
17:39:22.531250,1.39
17:39:22.546875,1.43
17:39:22.562500,1.54
17:39:22.578125,1.67
17:39:22.593750,1.79
17:39:22.609375,1.87
17:39:22.625000,1.86
17:39:22.640625,1.69
17:39:22.656250,1.33
17:39:22.671875,0.80
17:39:22.687500,0.23
17:39:22.703125,-0.25
17:39:22.718750,-0.50
17:39:22.734375,-0.47
17:39:22.750000,-0.19
17:39:22.765625,0.24
17:39:22.781250,0.71
17:39:22.796875,1.09
17:39:22.812500,1.33
17:39:22.828125,1.44
17:39:22.843750,1.48
17:39:22.859375,1.54
17:39:22.875000,1.75
17:39:22.890625,2.13
17:39:22.906250,2.68
17:39:22.921875,3.30
17:39:22.937500,3.88
17:39:22.953125,4.31
17:39:22.968750,4.49
17:39:22.984375,4.38
17:39:23,3.98
17:39:23.015625,3.32
17:39:23.031250,2.48
17:39:23.046875,1.51
17:39:23.062500,0.50
17:39:23.078125,-0.53
17:39:23.093750,-1.56
17:39:23.109375,-2.56
17:39:23.125000,-3.47
17:39:23.140625,-4.18
17:39:23.156250,-4.58
17:39:23.171875,-4.59
17:39:23.187500,-4.25
17:39:23.203125,-3.69
17:39:23.218750,-3.04
17:39:23.234375,-2.44
17:39:23.250000,-1.94
17:39:23.265625,-1.56
17:39:23.281250,-1.30
17:39:23.296875,-1.17
17:39:23.312500,-1.18
17:39:23.328125,-1.31
17:39:23.343750,-1.49
17:39:23.359375,-1.61
17:39:23.375000,-1.56
17:39:23.390625,-1.32
17:39:23.406250,-0.95
17:39:23.421875,-0.57
17:39:23.437500,-0.27
17:39:23.453125,-0.07
17:39:23.468750,0.15
17:39:23.484375,0.51
17:39:23.500000,1.14
17:39:23.515625,2.05
17:39:23.531250,3.16
17:39:23.546875,4.31
17:39:23.562500,5.39
17:39:23.578125,6.34
17:39:23.593750,7.21
17:39:23.609375,8.07
17:39:23.625000,8.96
17:39:23.640625,9.87
17:39:23.656250,10.69
17:39:23.671875,11.29
17:39:23.687500,11.53
17:39:23.703125,11.27
17:39:23.718750,10.41
17:39:23.734375,8.82
17:39:23.750000,6.45
17:39:23.765625,3.22
17:39:23.781250,-0.80
17:39:23.796875,-5.48
17:39:23.812500,-10.53
17:39:23.828125,-15.58
17:39:23.843750,-20.21
17:39:23.859375,-24.08
17:39:23.875000,-27.03
17:39:23.890625,-29.08
17:39:23.906250,-30.44
17:39:23.921875,-31.30
17:39:23.937500,-31.79
17:39:23.953125,-31.84
17:39:23.968750,-31.27
17:39:23.984375,-29.85
17:39:24,-27.53
17:39:24.015625,-24.42
17:39:24.031250,-20.83
17:39:24.046875,-17.11
17:39:24.062500,-13.61
17:39:24.078125,-10.58
17:39:24.093750,-8.16
17:39:24.109375,-6.31
17:39:24.125000,-4.78
17:39:24.140625,-3.07
17:39:24.156250,-0.57
17:39:24.171875,3.24
17:39:24.187500,8.55
17:39:24.203125,15.10
17:39:24.218750,22.21
17:39:24.234375,29.04
17:39:24.250000,34.85
17:39:24.265625,39.19
17:39:24.281250,41.94
17:39:24.296875,43.18
17:39:24.312500,43.07
17:39:24.328125,41.77
17:39:24.343750,39.50
17:39:24.359375,36.50
17:39:24.375000,33.13
17:39:24.390625,29.72
17:39:24.406250,26.51
17:39:24.421875,23.56
17:39:24.437500,20.77
17:39:24.453125,17.99
17:39:24.468750,15.06
17:39:24.484375,11.93
17:39:24.500000,8.69
17:39:24.515625,5.51
17:39:24.531250,2.63
17:39:24.546875,0.18
17:39:24.562500,-1.86
17:39:24.578125,-3.66
17:39:24.593750,-5.48
17:39:24.609375,-7.58
17:39:24.625000,-10.01
17:39:24.640625,-12.62
17:39:24.656250,-15.09
17:39:24.671875,-17.04
17:39:24.687500,-18.19
17:39:24.703125,-18.44
17:39:24.718750,-17.86
17:39:24.734375,-16.65
17:39:24.750000,-15.04
17:39:24.765625,-13.25
17:39:24.781250,-11.46
17:39:24.796875,-9.80
17:39:24.812500,-8.37
17:39:24.828125,-7.18
17:39:24.843750,-6.22
17:39:24.859375,-5.43
17:39:24.875000,-4.76
17:39:24.890625,-4.18
17:39:24.906250,-3.70
17:39:24.921875,-3.29
17:39:24.937500,-2.93
17:39:24.953125,-2.54
17:39:24.968750,-2.02
17:39:24.984375,-1.37
17:39:25,-0.63
17:39:25.015625,0.10
17:39:25.031250,0.70
17:39:25.046875,1.08
17:39:25.062500,1.23
17:39:25.078125,1.19
17:39:25.093750,1.04
17:39:25.109375,0.89
17:39:25.125000,0.84
17:39:25.140625,0.93
17:39:25.156250,1.18
17:39:25.171875,1.52
17:39:25.187500,1.84
17:39:25.203125,2.03
17:39:25.218750,1.98
17:39:25.234375,1.69
17:39:25.250000,1.21
17:39:25.265625,0.67
17:39:25.281250,0.21
17:39:25.296875,-0.07
17:39:25.312500,-0.18
17:39:25.328125,-0.19
17:39:25.343750,-0.17
17:39:25.359375,-0.20
17:39:25.375000,-0.29
17:39:25.390625,-0.45
17:39:25.406250,-0.62
17:39:25.421875,-0.75
17:39:25.437500,-0.79
17:39:25.453125,-0.70
17:39:25.468750,-0.48
17:39:25.484375,-0.18
17:39:25.500000,0.09
17:39:25.515625,0.22
17:39:25.531250,0.15
17:39:25.546875,-0.07
17:39:25.562500,-0.28
17:39:25.578125,-0.33
17:39:25.593750,-0.13
17:39:25.609375,0.28
17:39:25.625000,0.77
17:39:25.640625,1.18
17:39:25.656250,1.41
17:39:25.671875,1.47
17:39:25.687500,1.45
17:39:25.703125,1.41
17:39:25.718750,1.38
17:39:25.734375,1.33
17:39:25.750000,1.23
17:39:25.765625,1.03
17:39:25.781250,0.80
17:39:25.796875,0.59
17:39:25.812500,0.48
17:39:25.828125,0.48
17:39:25.843750,0.57
17:39:25.859375,0.70
17:39:25.875000,0.81
17:39:25.890625,0.88
17:39:25.906250,0.90
17:39:25.921875,0.88
17:39:25.937500,0.82
17:39:25.953125,0.70
17:39:25.968750,0.49
17:39:25.984375,0.21
17:39:26,-0.11
17:39:26.015625,-0.39
17:39:26.031250,-0.57
17:39:26.046875,-0.65
17:39:26.062500,-0.71
17:39:26.078125,-0.81
17:39:26.093750,-1.03
17:39:26.109375,-1.34
17:39:26.125000,-1.64
17:39:26.140625,-1.83
17:39:26.156250,-1.79
17:39:26.171875,-1.54
17:39:26.187500,-1.15
17:39:26.203125,-0.74
17:39:26.218750,-0.42
17:39:26.234375,-0.28
17:39:26.250000,-0.29
17:39:26.265625,-0.41
17:39:26.281250,-0.55
17:39:26.296875,-0.63
17:39:26.312500,-0.61
17:39:26.328125,-0.49
17:39:26.343750,-0.34
17:39:26.359375,-0.20
17:39:26.375000,-0.12
17:39:26.390625,-0.11
17:39:26.406250,-0.11
17:39:26.421875,-0.10
17:39:26.437500,-0.04
17:39:26.453125,0.04
17:39:26.468750,0.07
17:39:26.484375,-0.00
17:39:26.500000,-0.20
17:39:26.515625,-0.48
17:39:26.531250,-0.77
17:39:26.546875,-0.97
17:39:26.562500,-0.99
17:39:26.578125,-0.80
17:39:26.593750,-0.42
17:39:26.609375,0.10
17:39:26.625000,0.63
17:39:26.640625,1.05
17:39:26.656250,1.28
17:39:26.671875,1.28
17:39:26.687500,1.08
17:39:26.703125,0.76
17:39:26.718750,0.44
17:39:26.734375,0.22
17:39:26.750000,0.17
17:39:26.765625,0.30
17:39:26.781250,0.54
17:39:26.796875,0.79
17:39:26.812500,0.93
17:39:26.828125,0.87
17:39:26.843750,0.60
17:39:26.859375,0.17
17:39:26.875000,-0.33
17:39:26.890625,-0.79
17:39:26.906250,-1.14
17:39:26.921875,-1.34
17:39:26.937500,-1.40
17:39:26.953125,-1.35
17:39:26.968750,-1.24
17:39:26.984375,-1.14
17:39:27,-1.10
17:39:27.015625,-1.15
17:39:27.031250,-1.28
17:39:27.046875,-1.45
17:39:27.062500,-1.60
17:39:27.078125,-1.71
17:39:27.093750,-1.74
17:39:27.109375,-1.71
17:39:27.125000,-1.62
17:39:27.140625,-1.46
17:39:27.156250,-1.22
17:39:27.171875,-0.90
17:39:27.187500,-0.53
17:39:27.203125,-0.12
17:39:27.218750,0.25
17:39:27.234375,0.56
17:39:27.250000,0.73
17:39:27.265625,0.73
17:39:27.281250,0.58
17:39:27.296875,0.34
17:39:27.312500,0.09
17:39:27.328125,-0.03
17:39:27.343750,0.07
17:39:27.359375,0.39
17:39:27.375000,0.83
17:39:27.390625,1.24
17:39:27.406250,1.45
17:39:27.421875,1.37
17:39:27.437500,1.03
17:39:27.453125,0.54
17:39:27.468750,0.08
17:39:27.484375,-0.19
17:39:27.500000,-0.22
17:39:27.515625,-0.03
17:39:27.531250,0.25
17:39:27.546875,0.49
17:39:27.562500,0.60
17:39:27.578125,0.56
17:39:27.593750,0.42
17:39:27.609375,0.27
17:39:27.625000,0.17
17:39:27.640625,0.16
17:39:27.656250,0.20
17:39:27.671875,0.25
17:39:27.687500,0.25
17:39:27.703125,0.17
17:39:27.718750,-0.02
17:39:27.734375,-0.28
17:39:27.750000,-0.57
17:39:27.765625,-0.83
17:39:27.781250,-1.03
17:39:27.796875,-1.16
17:39:27.812500,-1.24
17:39:27.828125,-1.29
17:39:27.843750,-1.33
17:39:27.859375,-1.33
17:39:27.875000,-1.28
17:39:27.890625,-1.22
17:39:27.906250,-1.19
17:39:27.921875,-1.25
17:39:27.937500,-1.43
17:39:27.953125,-1.65
17:39:27.968750,-1.80
17:39:27.984375,-1.74
17:39:28,-1.45
17:39:28.015625,-0.99
17:39:28.031250,-0.52
17:39:28.046875,-0.19
17:39:28.062500,-0.06
17:39:28.078125,-0.10
17:39:28.093750,-0.20
17:39:28.109375,-0.23
17:39:28.125000,-0.14
17:39:28.140625,0.08
17:39:28.156250,0.38
17:39:28.171875,0.68
17:39:28.187500,0.95
17:39:28.203125,1.12
17:39:28.218750,1.20
17:39:28.234375,1.18
17:39:28.250000,1.11
17:39:28.265625,1.03
17:39:28.281250,0.98
17:39:28.296875,0.99
17:39:28.312500,1.06
17:39:28.328125,1.20
17:39:28.343750,1.42
17:39:28.359375,1.72
17:39:28.375000,2.05
17:39:28.390625,2.31
17:39:28.406250,2.33
17:39:28.421875,1.99
17:39:28.437500,1.29
17:39:28.453125,0.39
17:39:28.468750,-0.44
17:39:28.484375,-0.95
17:39:28.500000,-1.01
17:39:28.515625,-0.69
17:39:28.531250,-0.18
17:39:28.546875,0.28
17:39:28.562500,0.57
17:39:28.578125,0.68
17:39:28.593750,0.69
17:39:28.609375,0.72
17:39:28.625000,0.80
17:39:28.640625,0.92
17:39:28.656250,0.99
17:39:28.671875,0.95
17:39:28.687500,0.78
17:39:28.703125,0.52
17:39:28.718750,0.24
17:39:28.734375,-0.02
17:39:28.750000,-0.22
17:39:28.765625,-0.41
17:39:28.781250,-0.61
17:39:28.796875,-0.85
17:39:28.812500,-1.11
17:39:28.828125,-1.37
17:39:28.843750,-1.56
17:39:28.859375,-1.64
17:39:28.875000,-1.63
17:39:28.890625,-1.54
17:39:28.906250,-1.43
17:39:28.921875,-1.34
17:39:28.937500,-1.29
17:39:28.953125,-1.27
17:39:28.968750,-1.24
17:39:28.984375,-1.11
17:39:29,-0.86
17:39:29.015625,-0.49
17:39:29.031250,-0.07
17:39:29.046875,0.30
17:39:29.062500,0.53
17:39:29.078125,0.60
17:39:29.093750,0.56
17:39:29.109375,0.51
17:39:29.125000,0.52
17:39:29.140625,0.62
17:39:29.156250,0.73
17:39:29.171875,0.80
17:39:29.187500,0.74
17:39:29.203125,0.56
17:39:29.218750,0.30
17:39:29.234375,0.04
17:39:29.250000,-0.16
17:39:29.265625,-0.27
17:39:29.281250,-0.30
17:39:29.296875,-0.29
17:39:29.312500,-0.25
17:39:29.328125,-0.21
17:39:29.343750,-0.17
17:39:29.359375,-0.11
17:39:29.375000,-0.03
17:39:29.390625,0.06
17:39:29.406250,0.13
17:39:29.421875,0.14
17:39:29.437500,0.08
17:39:29.453125,-0.01
17:39:29.468750,-0.08
17:39:29.484375,-0.06
17:39:29.500000,0.06
17:39:29.515625,0.24
17:39:29.531250,0.38
17:39:29.546875,0.41
17:39:29.562500,0.30
17:39:29.578125,0.10
17:39:29.593750,-0.13
17:39:29.609375,-0.31
17:39:29.625000,-0.43
17:39:29.640625,-0.49
17:39:29.656250,-0.51
17:39:29.671875,-0.48
17:39:29.687500,-0.40
17:39:29.703125,-0.26
17:39:29.718750,-0.12
17:39:29.734375,-0.05
17:39:29.750000,-0.10
17:39:29.765625,-0.26
17:39:29.781250,-0.47
17:39:29.796875,-0.69
17:39:29.812500,-0.86
17:39:29.828125,-0.97
17:39:29.843750,-0.99
17:39:29.859375,-0.92
17:39:29.875000,-0.73
17:39:29.890625,-0.46
17:39:29.906250,-0.13
17:39:29.921875,0.16
17:39:29.937500,0.34
17:39:29.953125,0.34
17:39:29.968750,0.16
17:39:29.984375,-0.17
17:39:30,-0.58
17:39:30.015625,-0.96
17:39:30.031250,-1.20
17:39:30.046875,-1.23
17:39:30.062500,-1.05
17:39:30.078125,-0.75
17:39:30.093750,-0.43
17:39:30.109375,-0.23
17:39:30.125000,-0.16
17:39:30.140625,-0.17
17:39:30.156250,-0.14
17:39:30.171875,0.03
17:39:30.187500,0.36
17:39:30.203125,0.75
17:39:30.218750,1.03
17:39:30.234375,1.08
17:39:30.250000,0.86
17:39:30.265625,0.46
17:39:30.281250,0.02
17:39:30.296875,-0.33
17:39:30.312500,-0.51
17:39:30.328125,-0.48
17:39:30.343750,-0.29
17:39:30.359375,0.01
17:39:30.375000,0.36
17:39:30.390625,0.69
17:39:30.406250,0.95
17:39:30.421875,1.08
17:39:30.437500,1.04
17:39:30.453125,0.83
17:39:30.468750,0.51
17:39:30.484375,0.15
17:39:30.500000,-0.19
17:39:30.515625,-0.50
17:39:30.531250,-0.78
17:39:30.546875,-1.02
17:39:30.562500,-1.18
17:39:30.578125,-1.23
17:39:30.593750,-1.16
17:39:30.609375,-0.99
17:39:30.625000,-0.82
17:39:30.640625,-0.68
17:39:30.656250,-0.57
17:39:30.671875,-0.44
17:39:30.687500,-0.25
17:39:30.703125,-0.01
17:39:30.718750,0.20
17:39:30.734375,0.27
17:39:30.750000,0.15
17:39:30.765625,-0.12
17:39:30.781250,-0.38
17:39:30.796875,-0.51
17:39:30.812500,-0.40
17:39:30.828125,-0.08
17:39:30.843750,0.32
17:39:30.859375,0.71
17:39:30.875000,1.03
17:39:30.890625,1.29
17:39:30.906250,1.54
17:39:30.921875,1.80
17:39:30.937500,2.04
17:39:30.953125,2.21
17:39:30.968750,2.25
17:39:30.984375,2.17
17:39:31,2.00
17:39:31.015625,1.82
17:39:31.031250,1.67
17:39:31.046875,1.60
17:39:31.062500,1.60
17:39:31.078125,1.64
17:39:31.093750,1.69
17:39:31.109375,1.73
17:39:31.125000,1.71
17:39:31.140625,1.60
17:39:31.156250,1.38
17:39:31.171875,1.05
17:39:31.187500,0.66
17:39:31.203125,0.27
17:39:31.218750,-0.09
17:39:31.234375,-0.42
17:39:31.250000,-0.72
17:39:31.265625,-1.02
17:39:31.281250,-1.28
17:39:31.296875,-1.43
17:39:31.312500,-1.40
17:39:31.328125,-1.17
17:39:31.343750,-0.78
17:39:31.359375,-0.33
17:39:31.375000,0.07
17:39:31.390625,0.34
17:39:31.406250,0.42
17:39:31.421875,0.35
17:39:31.437500,0.18
17:39:31.453125,-0.01
17:39:31.468750,-0.19
17:39:31.484375,-0.31
17:39:31.500000,-0.37
17:39:31.515625,-0.38
17:39:31.531250,-0.35
17:39:31.546875,-0.28
17:39:31.562500,-0.20
17:39:31.578125,-0.14
17:39:31.593750,-0.14
17:39:31.609375,-0.24
17:39:31.625000,-0.46
17:39:31.640625,-0.76
17:39:31.656250,-1.09
17:39:31.671875,-1.36
17:39:31.687500,-1.53
17:39:31.703125,-1.59
17:39:31.718750,-1.61
17:39:31.734375,-1.69
17:39:31.750000,-1.86
17:39:31.765625,-2.11
17:39:31.781250,-2.36
17:39:31.796875,-2.52
17:39:31.812500,-2.54
17:39:31.828125,-2.41
17:39:31.843750,-2.17
17:39:31.859375,-1.91
17:39:31.875000,-1.68
17:39:31.890625,-1.50
17:39:31.906250,-1.36
17:39:31.921875,-1.22
17:39:31.937500,-1.06
17:39:31.953125,-0.84
17:39:31.968750,-0.59
17:39:31.984375,-0.32
17:39:32,-0.06
17:39:32.015625,0.16
17:39:32.031250,0.37
17:39:32.046875,0.57
17:39:32.062500,0.76
17:39:32.078125,0.90
17:39:32.093750,0.91
17:39:32.109375,0.74
17:39:32.125000,0.38
17:39:32.140625,-0.06
17:39:32.156250,-0.45
17:39:32.171875,-0.67
17:39:32.187500,-0.67
17:39:32.203125,-0.50
17:39:32.218750,-0.29
17:39:32.234375,-0.13
17:39:32.250000,-0.09
17:39:32.265625,-0.16
17:39:32.281250,-0.28
17:39:32.296875,-0.38
17:39:32.312500,-0.40
17:39:32.328125,-0.36
17:39:32.343750,-0.25
17:39:32.359375,-0.10
17:39:32.375000,0.03
17:39:32.390625,0.11
17:39:32.406250,0.10
17:39:32.421875,-0.01
17:39:32.437500,-0.20
17:39:32.453125,-0.40
17:39:32.468750,-0.57
17:39:32.484375,-0.65
17:39:32.500000,-0.62
17:39:32.515625,-0.50
17:39:32.531250,-0.30
17:39:32.546875,-0.06
17:39:32.562500,0.18
17:39:32.578125,0.38
17:39:32.593750,0.48
17:39:32.609375,0.45
17:39:32.625000,0.33
17:39:32.640625,0.17
17:39:32.656250,0.10
17:39:32.671875,0.19
17:39:32.687500,0.46
17:39:32.703125,0.83
17:39:32.718750,1.14
17:39:32.734375,1.23
17:39:32.750000,1.03
17:39:32.765625,0.59
17:39:32.781250,0.06
17:39:32.796875,-0.39
17:39:32.812500,-0.62
17:39:32.828125,-0.59
17:39:32.843750,-0.37
17:39:32.859375,-0.07
17:39:32.875000,0.21
17:39:32.890625,0.39
17:39:32.906250,0.45
17:39:32.921875,0.43
17:39:32.937500,0.36
17:39:32.953125,0.29
17:39:32.968750,0.23
17:39:32.984375,0.20
17:39:33,0.19
17:39:33.015625,0.18
17:39:33.031250,0.18
17:39:33.046875,0.18
17:39:33.062500,0.17
17:39:33.078125,0.15
17:39:33.093750,0.11
17:39:33.109375,0.04
17:39:33.125000,-0.09
17:39:33.140625,-0.27
17:39:33.156250,-0.49
17:39:33.171875,-0.70
17:39:33.187500,-0.84
17:39:33.203125,-0.86
17:39:33.218750,-0.75
17:39:33.234375,-0.55
17:39:33.250000,-0.36
17:39:33.265625,-0.26
17:39:33.281250,-0.30
17:39:33.296875,-0.42
17:39:33.312500,-0.54
17:39:33.328125,-0.57
17:39:33.343750,-0.51
17:39:33.359375,-0.42
17:39:33.375000,-0.39
17:39:33.390625,-0.52
17:39:33.406250,-0.78
17:39:33.421875,-1.09
17:39:33.437500,-1.32
17:39:33.453125,-1.37
17:39:33.468750,-1.18
17:39:33.484375,-0.78
17:39:33.500000,-0.23
17:39:33.515625,0.40
17:39:33.531250,1.00
17:39:33.546875,1.47
17:39:33.562500,1.70
17:39:33.578125,1.64
17:39:33.593750,1.29
17:39:33.609375,0.78
17:39:33.625000,0.28
17:39:33.640625,-0.03
17:39:33.656250,-0.04
17:39:33.671875,0.21
17:39:33.687500,0.60
17:39:33.703125,0.94
17:39:33.718750,1.08
17:39:33.734375,0.99
17:39:33.750000,0.73
17:39:33.765625,0.43
17:39:33.781250,0.22
17:39:33.796875,0.18
17:39:33.812500,0.27
17:39:33.828125,0.44
17:39:33.843750,0.61
17:39:33.859375,0.72
17:39:33.875000,0.75
17:39:33.890625,0.70
17:39:33.906250,0.58
17:39:33.921875,0.43
17:39:33.937500,0.25
17:39:33.953125,0.07
17:39:33.968750,-0.10
17:39:33.984375,-0.23
17:39:34,-0.30
17:39:34.015625,-0.28
17:39:34.031250,-0.20
17:39:34.046875,-0.13
17:39:34.062500,-0.13
17:39:34.078125,-0.25
17:39:34.093750,-0.50
17:39:34.109375,-0.78
17:39:34.125000,-0.97
17:39:34.140625,-0.99
17:39:34.156250,-0.79
17:39:34.171875,-0.46
17:39:34.187500,-0.12
17:39:34.203125,0.13
17:39:34.218750,0.24
17:39:34.234375,0.20
17:39:34.250000,0.05
17:39:34.265625,-0.19
17:39:34.281250,-0.49
17:39:34.296875,-0.82
17:39:34.312500,-1.08
17:39:34.328125,-1.15
17:39:34.343750,-0.94
17:39:34.359375,-0.47
17:39:34.375000,0.12
17:39:34.390625,0.65
17:39:34.406250,0.94
17:39:34.421875,0.97
17:39:34.437500,0.81
17:39:34.453125,0.64
17:39:34.468750,0.56
17:39:34.484375,0.62
17:39:34.500000,0.71
17:39:34.515625,0.75
17:39:34.531250,0.66
17:39:34.546875,0.48
17:39:34.562500,0.31
17:39:34.578125,0.23
17:39:34.593750,0.27
17:39:34.609375,0.40
17:39:34.625000,0.52
17:39:34.640625,0.58
17:39:34.656250,0.59
17:39:34.671875,0.61
17:39:34.687500,0.70
17:39:34.703125,0.87
17:39:34.718750,1.07
17:39:34.734375,1.22
17:39:34.750000,1.24
17:39:34.765625,1.12
17:39:34.781250,0.88
17:39:34.796875,0.61
17:39:34.812500,0.36
17:39:34.828125,0.17
17:39:34.843750,0.01
17:39:34.859375,-0.13
17:39:34.875000,-0.26
17:39:34.890625,-0.35
17:39:34.906250,-0.39
17:39:34.921875,-0.35
17:39:34.937500,-0.25
17:39:34.953125,-0.15
17:39:34.968750,-0.13
17:39:34.984375,-0.23
17:39:35,-0.43
17:39:35.015625,-0.72
17:39:35.031250,-1.04
17:39:35.046875,-1.32
17:39:35.062500,-1.52
17:39:35.078125,-1.59
17:39:35.093750,-1.49
17:39:35.109375,-1.24
17:39:35.125000,-0.86
17:39:35.140625,-0.44
17:39:35.156250,-0.06
17:39:35.171875,0.23
17:39:35.187500,0.43
17:39:35.203125,0.55
17:39:35.218750,0.62
17:39:35.234375,0.64
17:39:35.250000,0.57
17:39:35.265625,0.41
17:39:35.281250,0.17
17:39:35.296875,-0.06
17:39:35.312500,-0.21
17:39:35.328125,-0.20
17:39:35.343750,-0.05
17:39:35.359375,0.13
17:39:35.375000,0.26
17:39:35.390625,0.26
17:39:35.406250,0.14
17:39:35.421875,-0.04
17:39:35.437500,-0.20
17:39:35.453125,-0.28
17:39:35.468750,-0.28
17:39:35.484375,-0.19
17:39:35.500000,-0.05
17:39:35.515625,0.17
17:39:35.531250,0.44
17:39:35.546875,0.74
17:39:35.562500,0.97
17:39:35.578125,1.06
17:39:35.593750,0.95
17:39:35.609375,0.68
17:39:35.625000,0.36
17:39:35.640625,0.10
17:39:35.656250,-0.03
17:39:35.671875,-0.04
17:39:35.687500,-0.03
17:39:35.703125,-0.05
17:39:35.718750,-0.14
17:39:35.734375,-0.26
17:39:35.750000,-0.39
17:39:35.765625,-0.48
17:39:35.781250,-0.58
17:39:35.796875,-0.71
17:39:35.812500,-0.89
17:39:35.828125,-1.09
17:39:35.843750,-1.23
17:39:35.859375,-1.23
17:39:35.875000,-1.09
17:39:35.890625,-0.87
17:39:35.906250,-0.66
17:39:35.921875,-0.57
17:39:35.937500,-0.63
17:39:35.953125,-0.83
17:39:35.968750,-1.07
17:39:35.984375,-1.28
17:39:36,-1.39
17:39:36.015625,-1.38
17:39:36.031250,-1.25
17:39:36.046875,-1.00
17:39:36.062500,-0.67
17:39:36.078125,-0.28
17:39:36.093750,0.11
17:39:36.109375,0.42
17:39:36.125000,0.63
17:39:36.140625,0.73
17:39:36.156250,0.77
17:39:36.171875,0.80
17:39:36.187500,0.85
17:39:36.203125,0.92
17:39:36.218750,0.96
17:39:36.234375,0.94
17:39:36.250000,0.85
17:39:36.265625,0.75
17:39:36.281250,0.69
17:39:36.296875,0.71
17:39:36.312500,0.79
17:39:36.328125,0.86
17:39:36.343750,0.88
17:39:36.359375,0.83
17:39:36.375000,0.74
17:39:36.390625,0.70
17:39:36.406250,0.77
17:39:36.421875,0.99
17:39:36.437500,1.32
17:39:36.453125,1.65
17:39:36.468750,1.87
17:39:36.484375,1.87
17:39:36.500000,1.62
17:39:36.515625,1.16
17:39:36.531250,0.62
17:39:36.546875,0.17
17:39:36.562500,-0.09
17:39:36.578125,-0.12
17:39:36.593750,-0.01
17:39:36.609375,0.12
17:39:36.625000,0.17
17:39:36.640625,0.12
17:39:36.656250,0.05
17:39:36.671875,0.03
17:39:36.687500,0.07
17:39:36.703125,0.11
17:39:36.718750,0.04
17:39:36.734375,-0.21
17:39:36.750000,-0.62
17:39:36.765625,-1.13
17:39:36.781250,-1.64
17:39:36.796875,-2.08
17:39:36.812500,-2.36
17:39:36.828125,-2.43
17:39:36.843750,-2.23
17:39:36.859375,-1.76
17:39:36.875000,-1.07
17:39:36.890625,-0.30
17:39:36.906250,0.37
17:39:36.921875,0.79
17:39:36.937500,0.93
17:39:36.953125,0.78
17:39:36.968750,0.45
17:39:36.984375,0.05
17:39:37,-0.29
17:39:37.015625,-0.44
17:39:37.031250,-0.35
17:39:37.046875,-0.01
17:39:37.062500,0.45
17:39:37.078125,0.86
17:39:37.093750,1.08
17:39:37.109375,1.01
17:39:37.125000,0.72
17:39:37.140625,0.35
17:39:37.156250,0.03
17:39:37.171875,-0.12
17:39:37.187500,-0.10
17:39:37.203125,0.06
17:39:37.218750,0.27
17:39:37.234375,0.47
17:39:37.250000,0.63
17:39:37.265625,0.75
17:39:37.281250,0.87
17:39:37.296875,0.98
17:39:37.312500,1.10
17:39:37.328125,1.18
17:39:37.343750,1.18
17:39:37.359375,1.08
17:39:37.375000,0.89
17:39:37.390625,0.66
17:39:37.406250,0.43
17:39:37.421875,0.23
17:39:37.437500,0.04
17:39:37.453125,-0.12
17:39:37.468750,-0.23
17:39:37.484375,-0.22
17:39:37.500000,-0.03
17:39:37.515625,0.35
17:39:37.531250,0.81
17:39:37.546875,1.17
17:39:37.562500,1.25
17:39:37.578125,0.95
17:39:37.593750,0.33
17:39:37.609375,-0.38
17:39:37.625000,-0.94
17:39:37.640625,-1.20
17:39:37.656250,-1.17
17:39:37.671875,-1.02
17:39:37.687500,-0.93
17:39:37.703125,-0.97
17:39:37.718750,-1.10
17:39:37.734375,-1.20
17:39:37.750000,-1.15
17:39:37.765625,-0.97
17:39:37.781250,-0.77
17:39:37.796875,-0.69
17:39:37.812500,-0.79
17:39:37.828125,-1.01
17:39:37.843750,-1.18
17:39:37.859375,-1.13
17:39:37.875000,-0.77
17:39:37.890625,-0.18
17:39:37.906250,0.49
17:39:37.921875,1.06
17:39:37.937500,1.37
17:39:37.953125,1.39
17:39:37.968750,1.13
17:39:37.984375,0.72
17:39:38,0.30
17:39:38.015625,-0.01
17:39:38.031250,-0.15
17:39:38.046875,-0.12
17:39:38.062500,0.01
17:39:38.078125,0.15
17:39:38.093750,0.26
17:39:38.109375,0.30
17:39:38.125000,0.29
17:39:38.140625,0.27
17:39:38.156250,0.28
17:39:38.171875,0.34
17:39:38.187500,0.45
17:39:38.203125,0.59
17:39:38.218750,0.71
17:39:38.234375,0.77
17:39:38.250000,0.74
17:39:38.265625,0.63
17:39:38.281250,0.49
17:39:38.296875,0.40
17:39:38.312500,0.42
17:39:38.328125,0.55
17:39:38.343750,0.72
17:39:38.359375,0.84
17:39:38.375000,0.80
17:39:38.390625,0.58
17:39:38.406250,0.26
17:39:38.421875,-0.06
17:39:38.437500,-0.26
17:39:38.453125,-0.31
17:39:38.468750,-0.23
17:39:38.484375,-0.12
17:39:38.500000,-0.06
17:39:38.515625,-0.09
17:39:38.531250,-0.25
17:39:38.546875,-0.50
17:39:38.562500,-0.80
17:39:38.578125,-1.11
17:39:38.593750,-1.35
17:39:38.609375,-1.45
17:39:38.625000,-1.36
17:39:38.640625,-1.05
17:39:38.656250,-0.62
17:39:38.671875,-0.20
17:39:38.687500,0.04
17:39:38.703125,0.03
17:39:38.718750,-0.22
17:39:38.734375,-0.61
17:39:38.750000,-0.96
17:39:38.765625,-1.15
17:39:38.781250,-1.13
17:39:38.796875,-0.88
17:39:38.812500,-0.48
17:39:38.828125,0.00
17:39:38.843750,0.48
17:39:38.859375,0.86
17:39:38.875000,1.08
17:39:38.890625,1.08
17:39:38.906250,0.87
17:39:38.921875,0.51
17:39:38.937500,0.12
17:39:38.953125,-0.20
17:39:38.968750,-0.37
17:39:38.984375,-0.39
17:39:39,-0.31
17:39:39.015625,-0.16
17:39:39.031250,0.00
17:39:39.046875,0.14
17:39:39.062500,0.23
17:39:39.078125,0.24
17:39:39.093750,0.16
17:39:39.109375,-0.00
17:39:39.125000,-0.19
17:39:39.140625,-0.30
17:39:39.156250,-0.27
17:39:39.171875,-0.05
17:39:39.187500,0.32
17:39:39.203125,0.77
17:39:39.218750,1.16
17:39:39.234375,1.36
17:39:39.250000,1.32
17:39:39.265625,1.04
17:39:39.281250,0.63
17:39:39.296875,0.23
17:39:39.312500,-0.04
17:39:39.328125,-0.09
17:39:39.343750,0.04
17:39:39.359375,0.27
17:39:39.375000,0.48
17:39:39.390625,0.61
17:39:39.406250,0.65
17:39:39.421875,0.65
17:39:39.437500,0.65
17:39:39.453125,0.65
17:39:39.468750,0.65
17:39:39.484375,0.56
17:39:39.500000,0.34
17:39:39.515625,-0.02
17:39:39.531250,-0.46
17:39:39.546875,-0.86
17:39:39.562500,-1.09
17:39:39.578125,-1.10
17:39:39.593750,-0.92
17:39:39.609375,-0.70
17:39:39.625000,-0.63
17:39:39.640625,-0.79
17:39:39.656250,-1.14
17:39:39.671875,-1.49
17:39:39.687500,-1.62
17:39:39.703125,-1.41
17:39:39.718750,-0.89
17:39:39.734375,-0.26
17:39:39.750000,0.27
17:39:39.765625,0.58
17:39:39.781250,0.65
17:39:39.796875,0.58
17:39:39.812500,0.45
17:39:39.828125,0.31
17:39:39.843750,0.18
17:39:39.859375,0.08
17:39:39.875000,0.07
17:39:39.890625,0.23
17:39:39.906250,0.61
17:39:39.921875,1.14
17:39:39.937500,1.67
17:39:39.953125,2.01
17:39:39.968750,2.03
17:39:39.984375,1.71
17:39:40,1.16
17:39:40.015625,0.59
17:39:40.031250,0.16
17:39:40.046875,-0.03
17:39:40.062500,-0.01
17:39:40.078125,0.14
17:39:40.093750,0.30
17:39:40.109375,0.39
