17:46:09,-0.00
17:46:09.015625,-0.00
17:46:09.031250,-0.00
17:46:09.046875,-0.00
17:46:09.062500,-0.00
17:46:09.078125,-0.00
17:46:09.093750,-0.00
17:46:09.109375,-0.00
17:46:09.125000,-0.00
17:46:09.140625,-0.01
17:46:09.156250,-0.00
17:46:09.171875,0.00
17:46:09.187500,0.01
17:46:09.203125,0.01
17:46:09.218750,-0.00
17:46:09.234375,-0.03
17:46:09.250000,-0.05
17:46:09.265625,-0.05
17:46:09.281250,-0.00
17:46:09.296875,0.13
17:46:09.312500,0.36
17:46:09.328125,0.66
17:46:09.343750,1.01
17:46:09.359375,1.37
17:46:09.375000,1.72
17:46:09.390625,2.06
17:46:09.406250,2.40
17:46:09.421875,2.77
17:46:09.437500,3.24
17:46:09.453125,3.80
17:46:09.468750,4.42
17:46:09.484375,5.06
17:46:09.500000,5.66
17:46:09.515625,6.20
17:46:09.531250,6.68
17:46:09.546875,7.15
17:46:09.562500,7.64
17:46:09.578125,8.31
17:46:09.593750,9.14
17:46:09.609375,10.09
17:46:09.625000,11.04
17:46:09.640625,11.88
17:46:09.656250,12.56
17:46:09.671875,13.14
17:46:09.687500,13.76
17:46:09.703125,14.58
17:46:09.718750,15.96
17:46:09.734375,17.91
17:46:09.750000,20.32
17:46:09.765625,22.90
17:46:09.781250,25.38
17:46:09.796875,27.58
17:46:09.812500,29.57
17:46:09.828125,31.68
17:46:09.843750,34.20
17:46:09.859375,37.81
17:46:09.875000,42.54
17:46:09.890625,48.15
17:46:09.906250,54.10
17:46:09.921875,59.83
17:46:09.937500,64.97
17:46:09.953125,69.58
17:46:09.968750,74.14
17:46:09.984375,79.19
17:46:10,85.71
17:46:10.015625,93.76
17:46:10.031250,103.00
17:46:10.046875,112.62
17:46:10.062500,121.73
17:46:10.078125,129.77
17:46:10.093750,136.75
17:46:10.109375,144.29
17:46:10.125000,150.58
17:46:10.140625,157.77
17:46:10.156250,166.64
17:46:10.171875,177.95
17:46:10.187500,191.79
17:46:10.203125,206.97
17:46:10.218750,220.57
17:46:10.234375,228.25
17:46:10.250000,225.36
17:46:10.265625,208.37
17:46:10.281250,176.87
17:46:10.296875,132.76
17:46:10.312500,80.05
17:46:10.328125,23.07
17:46:10.343750,-34.94
17:46:10.359375,-92.44
17:46:10.375000,-149.16
17:46:10.390625,-205.23
17:46:10.406250,-260.49
17:46:10.421875,-313.74
17:46:10.437500,-363.87
17:46:10.453125,-409.83
17:46:10.468750,-450.91
17:46:10.484375,-486.50
17:46:10.500000,-515.74
17:46:10.515625,-537.23
17:46:10.531250,-549.22
17:46:10.546875,-550.04
17:46:10.562500,-538.37
17:46:10.578125,-514.20
17:46:10.593750,-478.67
17:46:10.609375,-433.88
17:46:10.625000,-382.45
17:46:10.640625,-327.02
17:46:10.656250,-269.84
17:46:10.671875,-212.63
17:46:10.687500,-156.70
17:46:10.703125,-102.95
17:46:10.718750,-52.37
17:46:10.734375,-5.90
17:46:10.750000,35.58
17:46:10.765625,71.43
17:46:10.781250,101.35
17:46:10.796875,125.50
17:46:10.812500,144.38
17:46:10.828125,158.68
17:46:10.843750,169.15
17:46:10.859375,176.37
17:46:10.875000,180.75
17:46:10.890625,182.57
17:46:10.906250,182.07
17:46:10.921875,179.51
17:46:10.937500,175.23
17:46:10.953125,169.65
17:46:10.968750,163.18
17:46:10.984375,156.15
17:46:11,148.81
17:46:11.015625,141.30
17:46:11.031250,133.69
17:46:11.046875,126.02
17:46:11.062500,118.33
17:46:11.078125,110.69
17:46:11.093750,103.16
17:46:11.109375,95.80
17:46:11.125000,88.68
17:46:11.140625,81.83
17:46:11.156250,75.25
17:46:11.171875,68.95
17:46:11.187500,62.95
17:46:11.203125,57.25
17:46:11.218750,51.86
17:46:11.234375,46.78
17:46:11.250000,42.03
17:46:11.265625,37.59
17:46:11.281250,33.45
17:46:11.296875,29.61
17:46:11.312500,26.07
17:46:11.328125,22.81
17:46:11.343750,19.82
17:46:11.359375,17.11
17:46:11.375000,14.67
17:46:11.390625,12.48
17:46:11.406250,10.54
17:46:11.421875,8.83
17:46:11.437500,7.35
17:46:11.453125,6.07
17:46:11.468750,4.97
17:46:11.484375,4.05
17:46:11.500000,3.27
17:46:11.515625,2.62
17:46:11.531250,2.09
17:46:11.546875,1.65
17:46:11.562500,1.30
17:46:11.578125,1.01
17:46:11.593750,0.79
17:46:11.609375,0.61
17:46:11.625000,0.47
17:46:11.640625,0.37
17:46:11.656250,0.28
17:46:11.671875,0.22
17:46:11.687500,0.18
17:46:11.703125,0.15
17:46:11.718750,0.13
17:46:11.734375,0.13
17:46:11.750000,0.13
17:46:11.765625,0.14
17:46:11.781250,0.16
17:46:11.796875,0.18
17:46:11.812500,0.21
17:46:11.828125,0.25
17:46:11.843750,0.29
17:46:11.859375,0.33
17:46:11.875000,0.37
17:46:11.890625,0.41
17:46:11.906250,0.45
17:46:11.921875,0.50
17:46:11.937500,0.55
17:46:11.953125,0.60
17:46:11.968750,0.65
17:46:11.984375,0.70
17:46:12,0.76
17:46:12.015625,0.82
17:46:12.031250,0.89
17:46:12.046875,0.96
17:46:12.062500,1.05
17:46:12.078125,1.14
17:46:12.093750,1.24
17:46:12.109375,1.36
17:46:12.125000,1.50
17:46:12.140625,1.65
17:46:12.156250,1.82
17:46:12.171875,2.02
17:46:12.187500,2.23
17:46:12.203125,2.47
17:46:12.218750,2.72
17:46:12.234375,3.01
17:46:12.250000,3.32
17:46:12.265625,3.66
17:46:12.281250,4.02
17:46:12.296875,4.42
17:46:12.312500,4.85
17:46:12.328125,5.32
17:46:12.343750,5.82
17:46:12.359375,6.35
17:46:12.375000,6.88
17:46:12.390625,7.42
17:46:12.406250,7.97
17:46:12.421875,8.56
17:46:12.437500,9.23
17:46:12.453125,9.99
17:46:12.468750,10.82
17:46:12.484375,11.72
17:46:12.500000,12.65
17:46:12.515625,13.59
17:46:12.531250,14.54
17:46:12.546875,15.54
17:46:12.562500,16.61
17:46:12.578125,17.78
17:46:12.593750,19.03
17:46:12.609375,20.27
17:46:12.625000,21.39
17:46:12.640625,22.24
17:46:12.656250,22.70
17:46:12.671875,22.59
17:46:12.687500,21.86
17:46:12.703125,20.43
17:46:12.718750,18.34
17:46:12.734375,15.62
17:46:12.750000,12.30
17:46:12.765625,8.37
17:46:12.781250,3.89
17:46:12.796875,-1.05
17:46:12.812500,-6.24
17:46:12.828125,-11.37
17:46:12.843750,-16.09
17:46:12.859375,-20.05
17:46:12.875000,-23.05
17:46:12.890625,-25.12
17:46:12.906250,-26.45
17:46:12.921875,-27.37
17:46:12.937500,-28.14
17:46:12.953125,-28.87
17:46:12.968750,-29.42
17:46:12.984375,-29.47
17:46:13,-28.75
17:46:13.015625,-27.24
17:46:13.031250,-25.29
17:46:13.046875,-23.47
17:46:13.062500,-22.44
17:46:13.078125,-22.68
17:46:13.093750,-24.24
17:46:13.109375,-26.63
17:46:13.125000,-29.11
17:46:13.140625,-30.92
17:46:13.156250,-31.80
17:46:13.171875,-32.01
17:46:13.187500,-32.22
17:46:13.203125,-33.08
17:46:13.218750,-34.79
17:46:13.234375,-36.77
17:46:13.250000,-38.13
17:46:13.265625,-38.37
17:46:13.281250,-37.40
17:46:13.296875,-35.40
17:46:13.312500,-31.99
17:46:13.328125,-25.92
17:46:13.343750,-15.66
17:46:13.359375,-0.83
17:46:13.375000,16.80
17:46:13.390625,33.55
17:46:13.406250,45.57
17:46:13.421875,50.89
17:46:13.437500,50.35
17:46:13.453125,46.90
17:46:13.468750,43.55
17:46:13.484375,41.42
17:46:13.500000,39.37
17:46:13.515625,35.40
17:46:13.531250,28.70
17:46:13.546875,20.79
17:46:13.562500,15.50
17:46:13.578125,16.11
17:46:13.593750,23.42
17:46:13.609375,35.29
17:46:13.625000,47.94
17:46:13.640625,58.08
17:46:13.656250,64.43
17:46:13.671875,67.69
17:46:13.687500,69.44
17:46:13.703125,70.97
17:46:13.718750,72.50
17:46:13.734375,73.37
17:46:13.750000,72.61
17:46:13.765625,69.43
17:46:13.781250,63.79
17:46:13.796875,56.34
17:46:13.812500,48.31
17:46:13.828125,40.78
17:46:13.843750,34.73
17:46:13.859375,30.55
17:46:13.875000,27.96
17:46:13.890625,26.24
17:46:13.906250,24.53
17:46:13.921875,22.28
17:46:13.937500,19.51
17:46:13.953125,16.92
17:46:13.968750,14.94
17:46:13.984375,14.26
17:46:14,15.26
17:46:14.015625,17.80
17:46:14.031250,21.18
17:46:14.046875,24.35
17:46:14.062500,26.26
17:46:14.078125,26.31
17:46:14.093750,24.64
17:46:14.109375,21.03
17:46:14.125000,16.04
17:46:14.140625,10.35
17:46:14.156250,4.39
17:46:14.171875,-2.09
17:46:14.187500,-10.49
17:46:14.203125,-23.76
17:46:14.218750,-46.85
17:46:14.234375,-79.47
17:46:14.250000,-122.66
17:46:14.265625,-174.49
17:46:14.281250,-228.62
17:46:14.296875,-274.65
17:46:14.312500,-300.86
17:46:14.328125,-298.17
17:46:14.343750,-264.09
17:46:14.359375,-204.47
17:46:14.375000,-131.95
17:46:14.390625,-62.72
17:46:14.406250,-10.50
17:46:14.421875,16.87
17:46:14.437500,18.26
17:46:14.453125,-2.06
17:46:14.468750,-36.45
17:46:14.484375,-75.45
17:46:14.500000,-108.84
17:46:14.515625,-126.93
17:46:14.531250,-123.99
17:46:14.546875,-100.33
17:46:14.562500,-63.64
17:46:14.578125,-26.89
17:46:14.593750,-2.99
17:46:14.609375,0.95
17:46:14.625000,-13.16
17:46:14.640625,-36.31
17:46:14.656250,-57.31
17:46:14.671875,-68.67
17:46:14.687500,-68.43
17:46:14.703125,-59.14
17:46:14.718750,-45.12
17:46:14.734375,-30.76
17:46:14.750000,-20.48
17:46:14.765625,-19.48
17:46:14.781250,-33.35
17:46:14.796875,-65.46
17:46:14.812500,-113.88
17:46:14.828125,-169.43
17:46:14.843750,-218.05
17:46:14.859375,-246.14
17:46:14.875000,-246.26
17:46:14.890625,-219.42
17:46:14.906250,-172.69
17:46:14.921875,-115.39
17:46:14.937500,-55.72
17:46:14.953125,0.03
17:46:14.968750,46.64
17:46:14.984375,78.91
17:46:15,92.47
17:46:15.015625,86.13
17:46:15.031250,64.36
17:46:15.046875,38.05
17:46:15.062500,19.75
17:46:15.078125,17.95
17:46:15.093750,34.02
17:46:15.109375,63.41
17:46:15.125000,99.28
17:46:15.140625,136.24
17:46:15.156250,172.19
17:46:15.171875,207.89
17:46:15.187500,246.62
17:46:15.203125,288.66
17:46:15.218750,329.04
17:46:15.234375,359.27
17:46:15.250000,371.48
17:46:15.265625,361.73
17:46:15.281250,331.11
17:46:15.296875,285.08
17:46:15.312500,231.50
17:46:15.328125,181.82
17:46:15.343750,143.05
17:46:15.359375,114.82
17:46:15.375000,90.97
17:46:15.390625,65.92
17:46:15.406250,39.22
17:46:15.421875,16.25
17:46:15.437500,5.11
17:46:15.453125,12.32
17:46:15.468750,45.07
17:46:15.484375,103.91
17:46:15.500000,181.43
17:46:15.515625,265.43
17:46:15.531250,344.64
17:46:15.546875,411.54
17:46:15.562500,461.88
17:46:15.578125,493.31
17:46:15.593750,475.88
17:46:15.609375,399.07
17:46:15.625000,282.21
17:46:15.640625,162.24
17:46:15.656250,65.87
17:46:15.671875,-0.25
17:46:15.687500,-42.06
17:46:15.703125,-67.82
17:46:15.718750,-82.95
17:46:15.734375,-93.67
17:46:15.750000,-99.57
17:46:15.765625,-101.40
17:46:15.781250,-103.86
17:46:15.796875,-114.11
17:46:15.812500,-137.17
17:46:15.828125,-175.08
17:46:15.843750,-223.24
17:46:15.859375,-269.60
17:46:15.875000,-304.21
17:46:15.890625,-318.76
17:46:15.906250,-313.07
17:46:15.921875,-294.22
17:46:15.937500,-271.63
17:46:15.953125,-251.13
17:46:15.968750,-234.24
17:46:15.984375,-219.12
17:46:16,-203.60
17:46:16.015625,-187.82
17:46:16.031250,-171.26
17:46:16.046875,-154.44
17:46:16.062500,-139.32
17:46:16.078125,-128.30
17:46:16.093750,-121.69
17:46:16.109375,-118.18
17:46:16.125000,-114.98
17:46:16.140625,-109.78
17:46:16.156250,-102.59
17:46:16.171875,-94.24
17:46:16.187500,-85.87
17:46:16.203125,-78.96
17:46:16.218750,-77.43
17:46:16.234375,-79.05
17:46:16.250000,-81.30
17:46:16.265625,-81.82
17:46:16.281250,-79.18
17:46:16.296875,-74.41
17:46:16.312500,-70.11
17:46:16.328125,-68.56
17:46:16.343750,-71.75
17:46:16.359375,-81.23
17:46:16.375000,-97.49
17:46:16.390625,-120.57
17:46:16.406250,-149.05
17:46:16.421875,-179.45
17:46:16.437500,-201.19
17:46:16.453125,-209.01
17:46:16.468750,-199.78
17:46:16.484375,-174.50
17:46:16.500000,-138.92
17:46:16.515625,-101.53
17:46:16.531250,-70.35
17:46:16.546875,-51.13
17:46:16.562500,-42.04
17:46:16.578125,-39.69
17:46:16.593750,-41.00
17:46:16.609375,-43.19
17:46:16.625000,-45.08
17:46:16.640625,-46.83
17:46:16.656250,-48.70
17:46:16.671875,-50.13
17:46:16.687500,-50.36
17:46:16.703125,-48.75
17:46:16.718750,-45.92
17:46:16.734375,-43.19
17:46:16.750000,-40.77
17:46:16.765625,-37.83
17:46:16.781250,-32.20
17:46:16.796875,-24.93
17:46:16.812500,-15.54
17:46:16.828125,-4.11
17:46:16.843750,8.68
17:46:16.859375,21.21
17:46:16.875000,32.51
17:46:16.890625,43.15
17:46:16.906250,54.61
17:46:16.921875,68.20
17:46:16.937500,84.18
17:46:16.953125,102.72
17:46:16.968750,122.23
17:46:16.984375,140.37
17:46:17,154.44
17:46:17.015625,164.48
17:46:17.031250,172.79
17:46:17.046875,182.61
17:46:17.062500,195.86
17:46:17.078125,212.34
17:46:17.093750,232.52
17:46:17.109375,255.79
17:46:17.125000,280.95
17:46:17.140625,304.15
17:46:17.156250,322.64
17:46:17.171875,333.03
17:46:17.187500,331.88
17:46:17.203125,317.13
17:46:17.218750,290.92
17:46:17.234375,263.10
17:46:17.250000,243.70
17:46:17.265625,237.48
17:46:17.281250,238.46
17:46:17.296875,238.24
17:46:17.312500,229.40
17:46:17.328125,211.31
17:46:17.343750,190.94
17:46:17.359375,180.48
17:46:17.375000,194.35
17:46:17.390625,236.95
17:46:17.406250,299.48
17:46:17.421875,360.72
17:46:17.437500,404.10
17:46:17.453125,422.33
17:46:17.468750,419.08
17:46:17.484375,403.49
17:46:17.500000,361.75
17:46:17.515625,290.37
17:46:17.531250,195.84
17:46:17.546875,114.06
17:46:17.562500,49.71
17:46:17.578125,1.33
17:46:17.593750,-38.91
17:46:17.609375,-72.01
17:46:17.625000,-99.61
17:46:17.640625,-125.62
17:46:17.656250,-152.16
17:46:17.671875,-183.15
17:46:17.687500,-223.24
17:46:17.703125,-278.83
17:46:17.718750,-347.63
17:46:17.734375,-421.10
17:46:17.750000,-486.95
17:46:17.765625,-534.63
17:46:17.781250,-557.82
17:46:17.796875,-553.11
17:46:17.812500,-523.49
17:46:17.828125,-476.80
17:46:17.843750,-425.06
17:46:17.859375,-374.90
17:46:17.875000,-328.51
17:46:17.890625,-285.03
17:46:17.906250,-243.82
17:46:17.921875,-204.78
17:46:17.937500,-166.15
17:46:17.953125,-126.19
17:46:17.968750,-83.05
17:46:17.984375,-36.47
17:46:18,15.40
17:46:18.015625,73.17
17:46:18.031250,134.77
17:46:18.046875,194.30
17:46:18.062500,243.68
17:46:18.078125,276.48
17:46:18.093750,289.40
17:46:18.109375,283.71
17:46:18.125000,264.05
17:46:18.140625,238.04
17:46:18.156250,212.45
17:46:18.171875,190.36
17:46:18.187500,169.70
17:46:18.203125,144.93
17:46:18.218750,110.53
17:46:18.234375,64.16
17:46:18.250000,8.79
17:46:18.265625,-47.22
17:46:18.281250,-91.54
17:46:18.296875,-112.48
17:46:18.312500,-103.90
17:46:18.328125,-68.63
17:46:18.343750,-17.84
17:46:18.359375,33.36
17:46:18.375000,72.03
17:46:18.390625,91.99
17:46:18.406250,94.52
17:46:18.421875,85.18
17:46:18.437500,69.35
17:46:18.453125,49.35
17:46:18.468750,25.10
17:46:18.484375,-2.56
17:46:18.500000,-29.55
17:46:18.515625,-49.13
17:46:18.531250,-55.88
17:46:18.546875,-49.45
17:46:18.562500,-35.24
17:46:18.578125,-21.15
17:46:18.593750,-13.00
17:46:18.609375,-11.48
17:46:18.625000,-12.65
17:46:18.640625,-11.60
17:46:18.656250,-5.80
17:46:18.671875,3.64
17:46:18.687500,13.39
17:46:18.703125,20.81
17:46:18.718750,25.48
17:46:18.734375,28.75
17:46:18.750000,31.92
17:46:18.765625,34.81
17:46:18.781250,36.01
17:46:18.796875,34.41
17:46:18.812500,30.45
17:46:18.828125,25.60
17:46:18.843750,20.82
17:46:18.859375,15.32
17:46:18.875000,7.08
17:46:18.890625,-5.40
17:46:18.906250,-20.94
17:46:18.921875,-35.98
17:46:18.937500,-46.34
17:46:18.953125,-50.03
17:46:18.968750,-49.38
17:46:18.984375,-50.83
17:46:19,-62.46
17:46:19.015625,-90.25
17:46:19.031250,-134.69
17:46:19.046875,-189.28
17:46:19.062500,-242.20
17:46:19.078125,-280.08
17:46:19.093750,-293.43
17:46:19.109375,-280.78
17:46:19.125000,-249.30
17:46:19.140625,-211.37
17:46:19.156250,-178.55
17:46:19.171875,-156.57
17:46:19.187500,-144.07
17:46:19.203125,-135.33
17:46:19.218750,-125.00
17:46:19.234375,-111.66
17:46:19.250000,-97.52
17:46:19.265625,-84.94
17:46:19.281250,-73.08
17:46:19.296875,-57.37
17:46:19.312500,-32.51
17:46:19.328125,3.55
17:46:19.343750,47.83
17:46:19.359375,94.26
17:46:19.375000,137.26
17:46:19.390625,174.46
17:46:19.406250,206.52
17:46:19.421875,234.21
17:46:19.437500,255.78
17:46:19.453125,266.71
17:46:19.468750,261.64
17:46:19.484375,237.46
17:46:19.500000,195.68
17:46:19.515625,142.44
17:46:19.531250,86.67
17:46:19.546875,36.86
17:46:19.562500,-2.09
17:46:19.578125,-30.24
17:46:19.593750,-51.55
17:46:19.609375,-70.77
17:46:19.625000,-90.10
17:46:19.640625,-107.53
17:46:19.656250,-118.27
17:46:19.671875,-118.49
17:46:19.687500,-108.85
17:46:19.703125,-94.65
17:46:19.718750,-82.46
17:46:19.734375,-75.25
17:46:19.750000,-69.77
17:46:19.765625,-58.61
17:46:19.781250,-35.64
17:46:19.796875,-1.46
17:46:19.812500,35.44
17:46:19.828125,62.63
17:46:19.843750,70.42
17:46:19.859375,56.55
17:46:19.875000,26.06
17:46:19.890625,-12.96
17:46:19.906250,-54.24
17:46:19.921875,-95.33
17:46:19.937500,-135.72
17:46:19.953125,-173.12
17:46:19.968750,-201.61
17:46:19.984375,-213.23
17:46:20,-202.54
17:46:20.015625,-170.92
17:46:20.031250,-128.17
17:46:20.046875,-89.83
17:46:20.062500,-71.40
17:46:20.078125,-82.05
17:46:20.093750,-120.95
17:46:20.109375,-177.76
17:46:20.125000,-237.05
17:46:20.140625,-284.51
17:46:20.156250,-311.96
17:46:20.171875,-319.29
17:46:20.187500,-312.77
17:46:20.203125,-300.86
17:46:20.218750,-290.18
17:46:20.234375,-283.24
17:46:20.250000,-278.86
17:46:20.265625,-274.42
17:46:20.281250,-268.29
17:46:20.296875,-260.78
17:46:20.312500,-253.51
17:46:20.328125,-247.50
17:46:20.343750,-241.69
17:46:20.359375,-232.85
17:46:20.375000,-217.01
17:46:20.390625,-191.58
17:46:20.406250,-156.88
17:46:20.421875,-116.36
17:46:20.437500,-75.49
17:46:20.453125,-39.54
17:46:20.468750,-11.56
17:46:20.484375,8.71
17:46:20.500000,24.61
17:46:20.515625,40.86
17:46:20.531250,61.60
17:46:20.546875,88.47
17:46:20.562500,120.14
17:46:20.578125,152.96
17:46:20.593750,182.93
17:46:20.609375,207.47
17:46:20.625000,226.70
17:46:20.640625,243.21
17:46:20.656250,260.76
17:46:20.671875,282.72
17:46:20.687500,311.03
17:46:20.703125,346.02
17:46:20.718750,386.80
17:46:20.734375,431.35
17:46:20.750000,475.97
17:46:20.765625,514.72
17:46:20.781250,539.77
17:46:20.796875,543.51
17:46:20.812500,521.84
17:46:20.828125,477.16
17:46:20.843750,419.04
17:46:20.859375,361.65
17:46:20.875000,318.75
17:46:20.890625,298.50
17:46:20.906250,300.69
17:46:20.921875,317.49
17:46:20.937500,337.15
17:46:20.953125,348.51
17:46:20.968750,344.14
17:46:20.984375,320.96
17:46:21,279.10
17:46:21.015625,220.53
17:46:21.031250,148.81
17:46:21.046875,69.98
17:46:21.062500,-6.49
17:46:21.078125,-68.15
17:46:21.093750,-102.59
17:46:21.109375,-102.24
17:46:21.125000,-68.39
17:46:21.140625,-12.23
17:46:21.156250,48.44
17:46:21.171875,95.76
17:46:21.187500,118.40
17:46:21.203125,114.89
17:46:21.218750,92.83
17:46:21.234375,63.46
17:46:21.250000,35.94
17:46:21.265625,14.00
17:46:21.281250,-3.76
17:46:21.296875,-20.59
17:46:21.312500,-37.91
17:46:21.328125,-53.86
17:46:21.343750,-64.63
17:46:21.359375,-66.64
17:46:21.375000,-60.01
17:46:21.390625,-49.01
17:46:21.406250,-40.51
17:46:21.421875,-41.47
17:46:21.437500,-56.61
17:46:21.453125,-87.04
17:46:21.468750,-130.14
17:46:21.484375,-180.52
17:46:21.500000,-229.55
17:46:21.515625,-267.77
17:46:21.531250,-286.58
17:46:21.546875,-281.00
17:46:21.562500,-251.97
17:46:21.578125,-206.91
17:46:21.593750,-157.88
17:46:21.609375,-117.36
17:46:21.625000,-94.59
17:46:21.640625,-91.38
17:46:21.656250,-104.35
17:46:21.671875,-127.63
17:46:21.687500,-156.58
17:46:21.703125,-190.13
17:46:21.718750,-230.13
17:46:21.734375,-278.32
17:46:21.750000,-329.03
17:46:21.765625,-379.69
17:46:21.781250,-420.04
17:46:21.796875,-441.26
17:46:21.812500,-439.46
17:46:21.828125,-417.78
17:46:21.843750,-384.76
17:46:21.859375,-350.47
17:46:21.875000,-322.02
17:46:21.890625,-301.16
17:46:21.906250,-285.28
17:46:21.921875,-268.71
17:46:21.937500,-247.79
17:46:21.953125,-222.37
17:46:21.968750,-195.21
17:46:21.984375,-169.65
17:46:22,-147.13
17:46:22.015625,-125.98
17:46:22.031250,-102.33
17:46:22.046875,-72.76
17:46:22.062500,-35.12
17:46:22.078125,9.04
17:46:22.093750,55.20
17:46:22.109375,97.80
17:46:22.125000,132.39
17:46:22.140625,157.38
17:46:22.156250,174.42
17:46:22.171875,187.49
17:46:22.187500,200.68
17:46:22.203125,217.44
17:46:22.218750,238.71
17:46:22.234375,263.28
17:46:22.250000,288.51
17:46:22.265625,311.24
17:46:22.281250,328.48
17:46:22.296875,337.94
17:46:22.312500,338.59
17:46:22.328125,330.80
17:46:22.343750,317.13
17:46:22.359375,301.26
17:46:22.375000,287.03
17:46:22.390625,276.81
17:46:22.406250,270.20
17:46:22.421875,263.83
17:46:22.437500,252.75
17:46:22.453125,232.65
17:46:22.468750,202.01
17:46:22.484375,162.92
17:46:22.500000,120.00
17:46:22.515625,78.39
17:46:22.531250,41.58
17:46:22.546875,10.34
17:46:22.562500,-16.94
17:46:22.578125,-42.77
17:46:22.593750,-68.77
17:46:22.609375,-94.45
17:46:22.625000,-117.13
17:46:22.640625,-132.79
17:46:22.656250,-137.61
17:46:22.671875,-129.21
17:46:22.687500,-107.62
17:46:22.703125,-75.33
17:46:22.718750,-36.85
17:46:22.734375,2.30
17:46:22.750000,36.61
17:46:22.765625,61.68
17:46:22.781250,74.92
17:46:22.796875,75.92
17:46:22.812500,66.60
17:46:22.828125,50.85
17:46:22.843750,33.95
17:46:22.859375,21.65
17:46:22.875000,19.00
17:46:22.890625,29.25
17:46:22.906250,53.10
17:46:22.921875,88.40
17:46:22.937500,130.67
17:46:22.953125,174.04
17:46:22.968750,212.84
17:46:22.984375,242.94
17:46:23,262.49
17:46:23.015625,271.80
17:46:23.031250,272.31
17:46:23.046875,265.43
17:46:23.062500,251.69
17:46:23.078125,230.64
17:46:23.093750,201.49
17:46:23.109375,164.09
17:46:23.125000,119.66
17:46:23.140625,70.86
17:46:23.156250,21.36
17:46:23.171875,-24.95
17:46:23.187500,-64.82
17:46:23.203125,-96.30
17:46:23.218750,-119.09
17:46:23.234375,-134.31
17:46:23.250000,-144.02
17:46:23.265625,-150.36
17:46:23.281250,-154.87
17:46:23.296875,-158.09
17:46:23.312500,-159.72
17:46:23.328125,-159.26
17:46:23.343750,-156.52
17:46:23.359375,-152.25
17:46:23.375000,-148.19
17:46:23.390625,-146.06
17:46:23.406250,-146.43
17:46:23.421875,-147.94
17:46:23.437500,-147.65
17:46:23.453125,-142.50
17:46:23.468750,-130.93
17:46:23.484375,-113.82
17:46:23.500000,-94.17
17:46:23.515625,-75.52
17:46:23.531250,-60.22
17:46:23.546875,-48.51
17:46:23.562500,-38.88
17:46:23.578125,-29.30
17:46:23.593750,-18.64
17:46:23.609375,-7.31
17:46:23.625000,3.08
17:46:23.640625,10.68
17:46:23.656250,14.36
17:46:23.671875,14.14
17:46:23.687500,11.07
17:46:23.703125,6.76
17:46:23.718750,2.88
17:46:23.734375,0.61
17:46:23.750000,0.04
17:46:23.765625,0.32
17:46:23.781250,-0.01
17:46:23.796875,-2.04
17:46:23.812500,-5.61
17:46:23.828125,-9.54
17:46:23.843750,-12.18
17:46:23.859375,-12.26
17:46:23.875000,-9.78
17:46:23.890625,-5.83
17:46:23.906250,-2.01
17:46:23.921875,0.38
17:46:23.937500,0.89
17:46:23.953125,-0.10
17:46:23.968750,-1.82
17:46:23.984375,-3.71
17:46:24,-5.64
17:46:24.015625,-7.91
17:46:24.031250,-10.95
17:46:24.046875,-14.77
17:46:24.062500,-18.83
17:46:24.078125,-22.20
17:46:24.093750,-24.08
17:46:24.109375,-23.95
17:46:24.125000,-21.70
17:46:24.140625,-17.18
17:46:24.156250,-10.18
17:46:24.171875,-0.59
17:46:24.187500,11.05
17:46:24.203125,23.18
17:46:24.218750,33.69
17:46:24.234375,40.79
17:46:24.250000,44.08
17:46:24.265625,45.00
17:46:24.281250,45.93
17:46:24.296875,48.48
17:46:24.312500,52.38
17:46:24.328125,55.34
17:46:24.343750,54.44
17:46:24.359375,48.16
17:46:24.375000,37.54
17:46:24.390625,25.88
17:46:24.406250,17.12
17:46:24.421875,13.98
17:46:24.437500,17.02
17:46:24.453125,24.79
17:46:24.468750,34.99
17:46:24.484375,45.27
17:46:24.500000,53.67
17:46:24.515625,58.40
17:46:24.531250,57.81
17:46:24.546875,51.01
17:46:24.562500,38.64
17:46:24.578125,23.30
17:46:24.593750,8.68
17:46:24.609375,-1.83
17:46:24.625000,-6.87
17:46:24.640625,-7.64
17:46:24.656250,-7.12
17:46:24.671875,-8.45
17:46:24.687500,-13.37
17:46:24.703125,-21.62
17:46:24.718750,-31.54
17:46:24.734375,-41.30
17:46:24.750000,-49.83
17:46:24.765625,-57.08
17:46:24.781250,-63.40
17:46:24.796875,-68.99
17:46:24.812500,-73.57
17:46:24.828125,-76.74
17:46:24.843750,-78.40
17:46:24.859375,-79.03
17:46:24.875000,-79.34
17:46:24.890625,-79.51
17:46:24.906250,-78.83
17:46:24.921875,-75.64
17:46:24.937500,-67.94
17:46:24.953125,-54.49
17:46:24.968750,-35.65
17:46:24.984375,-13.68
17:46:25,7.89
17:46:25.015625,25.63
17:46:25.031250,37.42
17:46:25.046875,43.12
17:46:25.062500,44.26
17:46:25.078125,43.02
17:46:25.093750,41.09
17:46:25.109375,39.01
17:46:25.125000,36.34
17:46:25.140625,32.34
17:46:25.156250,26.74
17:46:25.171875,20.09
17:46:25.187500,13.45
17:46:25.203125,7.93
17:46:25.218750,4.07
17:46:25.234375,1.74
17:46:25.250000,0.29
17:46:25.265625,-0.97
17:46:25.281250,-2.35
17:46:25.296875,-3.75
17:46:25.312500,-4.84
17:46:25.328125,-5.37
17:46:25.343750,-5.49
17:46:25.359375,-5.66
17:46:25.375000,-6.55
17:46:25.390625,-8.61
17:46:25.406250,-11.84
17:46:25.421875,-15.66
17:46:25.437500,-19.06
17:46:25.453125,-20.99
17:46:25.468750,-20.78
17:46:25.484375,-18.44
17:46:25.500000,-14.66
17:46:25.515625,-10.48
17:46:25.531250,-6.87
17:46:25.546875,-4.26
17:46:25.562500,-2.47
17:46:25.578125,-0.89
17:46:25.593750,1.05
17:46:25.609375,3.54
17:46:25.625000,6.30
17:46:25.640625,8.74
17:46:25.656250,10.28
17:46:25.671875,10.73
17:46:25.687500,10.28
17:46:25.703125,9.46
17:46:25.718750,8.86
17:46:25.734375,8.91
17:46:25.750000,9.71
17:46:25.765625,11.10
17:46:25.781250,12.71
17:46:25.796875,14.19
17:46:25.812500,15.26
17:46:25.828125,15.84
17:46:25.843750,15.97
17:46:25.859375,15.78
17:46:25.875000,15.33
17:46:25.890625,14.57
17:46:25.906250,13.41
17:46:25.921875,11.83
17:46:25.937500,10.03
17:46:25.953125,8.46
17:46:25.968750,7.64
17:46:25.984375,7.93
17:46:26,9.22
17:46:26.015625,10.95
17:46:26.031250,12.27
17:46:26.046875,12.39
17:46:26.062500,10.91
17:46:26.078125,7.98
17:46:26.093750,4.04
17:46:26.109375,-0.36
17:46:26.125000,-4.83
17:46:26.140625,-9.14
17:46:26.156250,-13.15
17:46:26.171875,-16.58
17:46:26.187500,-19.01
17:46:26.203125,-20.04
17:46:26.218750,-19.52
17:46:26.234375,-17.62
17:46:26.250000,-14.80
17:46:26.265625,-11.51
17:46:26.281250,-7.99
17:46:26.296875,-4.12
17:46:26.312500,0.32
17:46:26.328125,5.44
17:46:26.343750,10.99
17:46:26.359375,16.34
17:46:26.375000,20.71
17:46:26.390625,23.49
17:46:26.406250,24.46
17:46:26.421875,23.85
17:46:26.437500,22.12
17:46:26.453125,19.78
17:46:26.468750,17.16
17:46:26.484375,14.48
17:46:26.500000,11.87
17:46:26.515625,9.54
17:46:26.531250,7.75
17:46:26.546875,6.69
17:46:26.562500,6.33
17:46:26.578125,6.45
17:46:26.593750,6.70
17:46:26.609375,6.77
17:46:26.625000,6.57
17:46:26.640625,6.15
17:46:26.656250,5.59
17:46:26.671875,4.91
17:46:26.687500,3.98
17:46:26.703125,2.62
17:46:26.718750,0.77
17:46:26.734375,-1.40
17:46:26.750000,-3.52
17:46:26.765625,-5.21
17:46:26.781250,-6.21
17:46:26.796875,-6.52
17:46:26.812500,-6.38
17:46:26.828125,-6.15
17:46:26.843750,-6.22
17:46:26.859375,-6.93
17:46:26.875000,-8.45
17:46:26.890625,-10.83
17:46:26.906250,-13.85
17:46:26.921875,-17.13
17:46:26.937500,-20.14
17:46:26.953125,-22.29
17:46:26.968750,-23.08
17:46:26.984375,-22.28
17:46:27,-19.93
17:46:27.015625,-16.37
17:46:27.031250,-12.09
17:46:27.046875,-7.62
17:46:27.062500,-3.38
17:46:27.078125,0.36
17:46:27.093750,3.53
17:46:27.109375,6.15
17:46:27.125000,8.24
17:46:27.140625,9.82
17:46:27.156250,10.91
17:46:27.171875,11.54
17:46:27.187500,11.80
17:46:27.203125,11.83
17:46:27.218750,11.75
17:46:27.234375,11.67
17:46:27.250000,11.66
17:46:27.265625,11.78
17:46:27.281250,12.06
17:46:27.296875,12.56
17:46:27.312500,13.24
17:46:27.328125,14.00
17:46:27.343750,14.69
17:46:27.359375,15.09
17:46:27.375000,15.10
17:46:27.390625,14.67
17:46:27.406250,13.92
17:46:27.421875,12.95
17:46:27.437500,11.88
17:46:27.453125,10.73
17:46:27.468750,9.50
17:46:27.484375,8.16
17:46:27.500000,6.73
17:46:27.515625,5.26
17:46:27.531250,3.84
17:46:27.546875,2.53
17:46:27.562500,1.27
17:46:27.578125,0.01
17:46:27.593750,-1.36
17:46:27.609375,-2.96
17:46:27.625000,-4.86
17:46:27.640625,-7.13
17:46:27.656250,-9.77
17:46:27.671875,-12.72
17:46:27.687500,-15.77
17:46:27.703125,-18.56
17:46:27.718750,-20.59
17:46:27.734375,-21.33
17:46:27.750000,-20.50
17:46:27.765625,-18.13
17:46:27.781250,-14.68
17:46:27.796875,-10.81
17:46:27.812500,-7.19
17:46:27.828125,-4.25
17:46:27.843750,-2.02
17:46:27.859375,-0.25
17:46:27.875000,1.39
17:46:27.890625,3.11
17:46:27.906250,4.93
17:46:27.921875,6.63
17:46:27.937500,7.95
17:46:27.953125,8.74
17:46:27.968750,9.07
17:46:27.984375,9.16
17:46:28,9.30
17:46:28.015625,9.69
17:46:28.031250,10.33
17:46:28.046875,11.05
17:46:28.062500,11.61
17:46:28.078125,11.82
17:46:28.093750,11.66
17:46:28.109375,11.21
17:46:28.125000,10.59
17:46:28.140625,9.89
17:46:28.156250,9.13
17:46:28.171875,8.26
17:46:28.187500,7.26
17:46:28.203125,6.10
17:46:28.218750,4.80
17:46:28.234375,3.36
17:46:28.250000,1.74
17:46:28.265625,-0.02
17:46:28.281250,-1.79
17:46:28.296875,-3.34
17:46:28.312500,-4.51
17:46:28.328125,-5.24
17:46:28.343750,-5.81
17:46:28.359375,-6.64
17:46:28.375000,-8.17
17:46:28.390625,-10.58
17:46:28.406250,-13.78
17:46:28.421875,-17.38
17:46:28.437500,-20.91
17:46:28.453125,-23.85
17:46:28.468750,-25.71
17:46:28.484375,-25.87
17:46:28.500000,-23.65
17:46:28.515625,-18.72
17:46:28.531250,-11.49
17:46:28.546875,-3.34
17:46:28.562500,3.73
17:46:28.578125,7.89
17:46:28.593750,8.31
17:46:28.609375,5.64
17:46:28.625000,1.68
17:46:28.640625,-1.51
17:46:28.656250,-2.54
17:46:28.671875,-1.23
17:46:28.687500,1.62
17:46:28.703125,4.91
17:46:28.718750,7.88
17:46:28.734375,10.43
17:46:28.750000,12.86
17:46:28.765625,15.48
17:46:28.781250,18.22
17:46:28.796875,20.73
17:46:28.812500,22.64
17:46:28.828125,23.87
17:46:28.843750,24.74
17:46:28.859375,25.73
17:46:28.875000,27.20
17:46:28.890625,29.17
17:46:28.906250,31.25
17:46:28.921875,32.93
17:46:28.937500,33.95
17:46:28.953125,34.51
17:46:28.968750,35.12
17:46:28.984375,36.30
17:46:29,38.08
17:46:29.015625,39.98
17:46:29.031250,41.17
17:46:29.046875,40.96
17:46:29.062500,39.32
17:46:29.078125,36.96
17:46:29.093750,35.09
17:46:29.109375,34.82
17:46:29.125000,36.60
17:46:29.140625,39.97
17:46:29.156250,43.86
17:46:29.171875,47.05
17:46:29.187500,48.85
17:46:29.203125,49.36
17:46:29.218750,49.48
17:46:29.234375,50.26
17:46:29.250000,52.56
17:46:29.265625,56.87
17:46:29.281250,63.27
17:46:29.296875,71.97
17:46:29.312500,83.16
17:46:29.328125,96.21
17:46:29.343750,108.93
17:46:29.359375,117.47
17:46:29.375000,118.05
17:46:29.390625,109.39
17:46:29.406250,94.54
17:46:29.421875,80.18
17:46:29.437500,73.72
17:46:29.453125,79.13
17:46:29.468750,94.60
17:46:29.484375,113.08
17:46:29.500000,125.63
17:46:29.515625,125.19
17:46:29.531250,108.79
17:46:29.546875,77.21
17:46:29.562500,33.46
17:46:29.578125,-18.29
17:46:29.593750,-72.59
17:46:29.609375,-122.03
17:46:29.625000,-157.24
17:46:29.640625,-168.91
17:46:29.656250,-151.33
17:46:29.671875,-105.69
17:46:29.687500,-41.07
17:46:29.703125,27.74
17:46:29.718750,84.83
17:46:29.734375,117.89
17:46:29.750000,121.60
17:46:29.765625,98.53
17:46:29.781250,56.85
17:46:29.796875,6.90
17:46:29.812500,-42.54
17:46:29.828125,-86.71
17:46:29.843750,-125.32
17:46:29.859375,-161.49
17:46:29.875000,-199.59
17:46:29.890625,-242.95
17:46:29.906250,-292.31
17:46:29.921875,-345.25
17:46:29.937500,-396.46
17:46:29.953125,-439.04
17:46:29.968750,-466.38
17:46:29.984375,-474.32
17:46:30,-462.51
17:46:30.015625,-434.74
17:46:30.031250,-397.28
17:46:30.046875,-356.89
17:46:30.062500,-318.83
17:46:30.078125,-285.88
17:46:30.093750,-258.63
17:46:30.109375,-236.32
17:46:30.125000,-217.82
17:46:30.140625,-201.85
17:46:30.156250,-187.14
17:46:30.171875,-172.19
17:46:30.187500,-155.57
17:46:30.203125,-136.30
17:46:30.218750,-114.15
17:46:30.234375,-89.63
17:46:30.250000,-63.75
17:46:30.265625,-37.51
17:46:30.281250,-11.61
17:46:30.296875,13.72
17:46:30.312500,38.53
17:46:30.328125,62.95
17:46:30.343750,87.03
17:46:30.359375,110.74
17:46:30.375000,134.24
17:46:30.390625,158.44
17:46:30.406250,185.25
17:46:30.421875,217.36
17:46:30.437500,257.13
17:46:30.453125,304.60
17:46:30.468750,356.12
17:46:30.484375,404.17
17:46:30.500000,439.15
17:46:30.515625,452.73
17:46:30.531250,440.95
17:46:30.546875,405.64
17:46:30.562500,353.40
17:46:30.578125,293.16
17:46:30.593750,233.80
17:46:30.609375,182.83
17:46:30.625000,145.97
17:46:30.640625,126.77
17:46:30.656250,125.58
17:46:30.671875,138.23
17:46:30.687500,155.79
17:46:30.703125,166.60
17:46:30.718750,160.23
17:46:30.734375,131.59
17:46:30.750000,82.87
17:46:30.765625,22.04
17:46:30.781250,-41.16
17:46:30.796875,-98.93
17:46:30.812500,-147.10
17:46:30.828125,-184.09
17:46:30.843750,-208.79
17:46:30.859375,-219.69
17:46:30.875000,-216.14
17:46:30.890625,-200.68
17:46:30.906250,-180.18
17:46:30.921875,-163.93
17:46:30.937500,-159.38
17:46:30.953125,-168.24
17:46:30.968750,-184.94
17:46:30.984375,-199.03
17:46:31,-200.36
17:46:31.015625,-183.85
17:46:31.031250,-151.37
17:46:31.046875,-109.97
17:46:31.062500,-67.65
17:46:31.078125,-29.61
17:46:31.093750,3.29
17:46:31.109375,33.13
17:46:31.125000,62.19
17:46:31.140625,90.47
17:46:31.156250,115.17
17:46:31.171875,132.05
17:46:31.187500,137.76
17:46:31.203125,131.72
17:46:31.218750,116.69
17:46:31.234375,97.70
17:46:31.250000,80.23
17:46:31.265625,68.22
17:46:31.281250,62.87
17:46:31.296875,62.74
17:46:31.312500,64.98
17:46:31.328125,66.86
17:46:31.343750,67.10
17:46:31.359375,66.40
17:46:31.375000,67.03
17:46:31.390625,71.58
17:46:31.406250,81.58
17:46:31.421875,96.16
17:46:31.437500,111.99
17:46:31.453125,124.32
17:46:31.468750,128.89
17:46:31.484375,123.92
17:46:31.500000,110.98
17:46:31.515625,94.24
17:46:31.531250,78.51
17:46:31.546875,67.07
17:46:31.562500,60.38
17:46:31.578125,56.46
17:46:31.593750,52.41
17:46:31.609375,46.22
17:46:31.625000,37.69
17:46:31.640625,28.14
17:46:31.656250,19.31
17:46:31.671875,12.23
17:46:31.687500,6.79
17:46:31.703125,2.10
17:46:31.718750,-2.75
17:46:31.734375,-8.19
17:46:31.750000,-13.99
17:46:31.765625,-19.31
17:46:31.781250,-22.84
17:46:31.796875,-23.13
17:46:31.812500,-18.84
17:46:31.828125,-9.48
17:46:31.843750,4.23
17:46:31.859375,20.01
17:46:31.875000,34.53
17:46:31.890625,44.38
17:46:31.906250,46.94
17:46:31.921875,40.75
17:46:31.937500,25.17
17:46:31.953125,0.04
17:46:31.968750,-34.21
17:46:31.984375,-75.65
17:46:32,-119.88
17:46:32.015625,-160.08
17:46:32.031250,-188.45
17:46:32.046875,-198.64
17:46:32.062500,-187.97
17:46:32.078125,-157.99
17:46:32.093750,-112.99
17:46:32.109375,-57.50
17:46:32.125000,5.35
17:46:32.140625,73.45
17:46:32.156250,143.63
17:46:32.171875,209.76
17:46:32.187500,262.92
17:46:32.203125,294.24
17:46:32.218750,298.88
17:46:32.234375,278.93
17:46:32.250000,242.96
17:46:32.265625,202.45
17:46:32.281250,166.79
17:46:32.296875,139.55
17:46:32.312500,117.83
17:46:32.328125,94.44
17:46:32.343750,62.33
17:46:32.359375,18.79
17:46:32.375000,-32.28
17:46:32.390625,-81.15
17:46:32.406250,-115.83
17:46:32.421875,-126.94
17:46:32.437500,-112.06
17:46:32.453125,-77.49
17:46:32.468750,-36.64
17:46:32.484375,-5.20
17:46:32.500000,5.01
17:46:32.515625,-9.42
17:46:32.531250,-42.37
17:46:32.546875,-81.21
17:46:32.562500,-111.95
17:46:32.578125,-124.58
17:46:32.593750,-115.80
17:46:32.609375,-88.68
17:46:32.625000,-50.38
17:46:32.640625,-9.63
17:46:32.656250,25.15
17:46:32.671875,46.88
17:46:32.687500,50.95
17:46:32.703125,36.96
17:46:32.718750,9.70
17:46:32.734375,-21.79
17:46:32.750000,-47.53
17:46:32.765625,-60.63
17:46:32.781250,-60.16
17:46:32.796875,-50.55
17:46:32.812500,-37.98
17:46:32.828125,-26.03
17:46:32.843750,-13.73
17:46:32.859375,2.63
17:46:32.875000,25.50
17:46:32.890625,52.83
17:46:32.906250,77.79
17:46:32.921875,92.26
17:46:32.937500,91.12
17:46:32.953125,74.70
17:46:32.968750,47.92
17:46:32.984375,17.45
17:46:33,-10.90
17:46:33.015625,-33.07
17:46:33.031250,-46.03
17:46:33.046875,-47.68
17:46:33.062500,-37.25
17:46:33.078125,-17.01
17:46:33.093750,6.78
17:46:33.109375,24.60
17:46:33.125000,26.33
17:46:33.140625,4.90
17:46:33.156250,-40.39
17:46:33.171875,-102.55
17:46:33.187500,-168.53
17:46:33.203125,-222.96
17:46:33.218750,-252.45
17:46:33.234375,-249.50
17:46:33.250000,-213.93
17:46:33.265625,-152.10
17:46:33.281250,-74.76
17:46:33.296875,6.06
17:46:33.312500,79.17
17:46:33.328125,135.19
17:46:33.343750,167.37
17:46:33.359375,172.26
17:46:33.375000,151.20
17:46:33.390625,111.52
17:46:33.406250,65.15
17:46:33.421875,24.55
17:46:33.437500,-2.37
17:46:33.453125,-15.67
17:46:33.468750,-22.47
17:46:33.484375,-31.40
17:46:33.500000,-46.54
17:46:33.515625,-64.29
17:46:33.531250,-75.73
17:46:33.546875,-73.02
17:46:33.562500,-55.64
17:46:33.578125,-31.84
17:46:33.593750,-14.18
17:46:33.609375,-11.80
17:46:33.625000,-24.28
17:46:33.640625,-41.23
17:46:33.656250,-47.94
17:46:33.671875,-33.50
17:46:33.687500,3.09
17:46:33.703125,52.40
17:46:33.718750,99.03
17:46:33.734375,128.35
17:46:33.750000,132.29
17:46:33.765625,111.91
17:46:33.781250,75.87
17:46:33.796875,36.80
17:46:33.812500,6.72
17:46:33.828125,-6.84
17:46:33.843750,-2.48
17:46:33.859375,15.75
17:46:33.875000,40.80
17:46:33.890625,66.00
17:46:33.906250,87.46
17:46:33.921875,104.15
17:46:33.937500,116.74
17:46:33.953125,125.14
17:46:33.968750,127.04
17:46:33.984375,118.81
17:46:34,97.84
17:46:34.015625,65.11
17:46:34.031250,26.11
17:46:34.046875,-10.47
17:46:34.062500,-36.50
17:46:34.078125,-47.94
17:46:34.093750,-46.73
17:46:34.109375,-39.64
17:46:34.125000,-34.43
17:46:34.140625,-35.75
17:46:34.156250,-42.97
17:46:34.171875,-51.09
17:46:34.187500,-54.40
17:46:34.203125,-50.58
17:46:34.218750,-42.55
17:46:34.234375,-37.05
17:46:34.250000,-40.60
17:46:34.265625,-55.24
17:46:34.281250,-77.02
17:46:34.296875,-97.76
17:46:34.312500,-109.42
17:46:34.328125,-108.20
17:46:34.343750,-96.25
17:46:34.359375,-79.89
17:46:34.375000,-65.87
17:46:34.390625,-57.86
17:46:34.406250,-55.19
17:46:34.421875,-54.56
17:46:34.437500,-52.66
17:46:34.453125,-48.57
17:46:34.468750,-44.18
17:46:34.484375,-42.52
17:46:34.500000,-45.47
17:46:34.515625,-52.28
17:46:34.531250,-59.91
17:46:34.546875,-64.76
17:46:34.562500,-64.68
17:46:34.578125,-59.92
17:46:34.593750,-52.64
17:46:34.609375,-45.40
17:46:34.625000,-39.76
17:46:34.640625,-35.75
17:46:34.656250,-32.39
17:46:34.671875,-28.65
17:46:34.687500,-24.08
17:46:34.703125,-19.05
17:46:34.718750,-14.30
17:46:34.734375,-10.51
17:46:34.750000,-8.10
17:46:34.765625,-7.18
17:46:34.781250,-7.73
17:46:34.796875,-9.51
17:46:34.812500,-12.02
17:46:34.828125,-14.42
17:46:34.843750,-15.78
17:46:34.859375,-15.44
17:46:34.875000,-13.33
17:46:34.890625,-10.08
17:46:34.906250,-6.73
17:46:34.921875,-4.21
17:46:34.937500,-3.03
17:46:34.953125,-3.15
17:46:34.968750,-4.20
17:46:34.984375,-5.77
17:46:35,-7.60
17:46:35.015625,-9.54
17:46:35.031250,-11.36
17:46:35.046875,-12.67
17:46:35.062500,-12.92
17:46:35.078125,-11.67
17:46:35.093750,-8.90
17:46:35.109375,-5.06
17:46:35.125000,-0.96
17:46:35.140625,2.63
17:46:35.156250,5.28
17:46:35.171875,7.05
17:46:35.187500,8.32
17:46:35.203125,9.48
17:46:35.218750,10.69
17:46:35.234375,11.81
17:46:35.250000,12.56
17:46:35.265625,12.73
17:46:35.281250,12.33
17:46:35.296875,11.61
17:46:35.312500,10.89
17:46:35.328125,10.39
17:46:35.343750,10.13
17:46:35.359375,9.94
17:46:35.375000,9.52
17:46:35.390625,8.67
17:46:35.406250,7.40
17:46:35.421875,6.03
17:46:35.437500,5.04
17:46:35.453125,4.89
17:46:35.468750,5.71
17:46:35.484375,7.22
17:46:35.500000,8.76
17:46:35.515625,9.57
17:46:35.531250,9.16
17:46:35.546875,7.51
17:46:35.562500,5.08
17:46:35.578125,2.55
17:46:35.593750,0.48
17:46:35.609375,-0.90
17:46:35.625000,-1.76
17:46:35.640625,-2.41
17:46:35.656250,-3.16
17:46:35.671875,-4.15
17:46:35.687500,-5.38
17:46:35.703125,-6.73
17:46:35.718750,-8.14
17:46:35.734375,-9.64
17:46:35.750000,-11.30
17:46:35.765625,-13.20
17:46:35.781250,-15.36
17:46:35.796875,-17.75
17:46:35.812500,-20.28
17:46:35.828125,-22.81
17:46:35.843750,-25.13
17:46:35.859375,-26.95
17:46:35.875000,-27.98
17:46:35.890625,-28.02
17:46:35.906250,-27.08
17:46:35.921875,-25.46
17:46:35.937500,-23.65
17:46:35.953125,-22.18
17:46:35.968750,-21.34
17:46:35.984375,-21.06
17:46:36,-20.98
17:46:36.015625,-20.62
17:46:36.031250,-19.68
17:46:36.046875,-18.23
17:46:36.062500,-16.58
17:46:36.078125,-15.14
17:46:36.093750,-14.11
17:46:36.109375,-13.40
17:46:36.125000,-12.71
17:46:36.140625,-11.80
17:46:36.156250,-10.69
17:46:36.171875,-9.77
17:46:36.187500,-9.60
17:46:36.203125,-10.59
17:46:36.218750,-12.65
17:46:36.234375,-15.12
17:46:36.250000,-16.87
17:46:36.265625,-16.69
17:46:36.281250,-13.87
17:46:36.296875,-8.50
17:46:36.312500,-1.56
17:46:36.328125,5.44
17:46:36.343750,11.02
17:46:36.359375,14.30
17:46:36.375000,15.29
17:46:36.390625,14.66
17:46:36.406250,13.37
17:46:36.421875,12.13
17:46:36.437500,11.08
17:46:36.453125,9.84
17:46:36.468750,7.76
17:46:36.484375,4.44
17:46:36.500000,-0.00
17:46:36.515625,-4.87
17:46:36.531250,-9.11
17:46:36.546875,-11.86
17:46:36.562500,-12.88
17:46:36.578125,-12.81
17:46:36.593750,-13.00
17:46:36.609375,-15.01
17:46:36.625000,-19.90
17:46:36.640625,-27.68
17:46:36.656250,-37.13
17:46:36.671875,-46.27
17:46:36.687500,-53.23
17:46:36.703125,-57.11
17:46:36.718750,-58.41
17:46:36.734375,-58.79
17:46:36.750000,-60.19
17:46:36.765625,-63.78
17:46:36.781250,-69.33
17:46:36.796875,-75.25
17:46:36.812500,-79.39
17:46:36.828125,-79.99
17:46:36.843750,-76.11
17:46:36.859375,-67.75
17:46:36.875000,-55.21
17:46:36.890625,-39.08
17:46:36.906250,-20.31
17:46:36.921875,-0.62
17:46:36.937500,17.83
17:46:36.953125,33.52
17:46:36.968750,47.02
17:46:36.984375,61.45
17:46:37,81.34
17:46:37.015625,109.83
17:46:37.031250,145.73
17:46:37.046875,182.26
17:46:37.062500,209.07
17:46:37.078125,216.43
17:46:37.093750,199.75
17:46:37.109375,161.97
17:46:37.125000,112.68
17:46:37.140625,64.51
17:46:37.156250,28.45
17:46:37.171875,10.39
17:46:37.187500,10.08
17:46:37.203125,22.43
17:46:37.218750,40.18
17:46:37.234375,56.71
17:46:37.250000,67.84
17:46:37.265625,72.47
17:46:37.281250,71.79
17:46:37.296875,67.99
17:46:37.312500,62.95
17:46:37.328125,57.54
17:46:37.343750,51.94
17:46:37.359375,46.08
17:46:37.375000,40.58
17:46:37.390625,36.61
17:46:37.406250,35.46
17:46:37.421875,37.67
17:46:37.437500,42.34
17:46:37.453125,47.30
17:46:37.468750,49.85
17:46:37.484375,47.85
17:46:37.500000,40.57
17:46:37.515625,29.10
17:46:37.531250,16.16
17:46:37.546875,4.91
17:46:37.562500,-2.17
17:46:37.578125,-4.16
17:46:37.593750,-2.03
17:46:37.609375,2.04
17:46:37.625000,5.74
17:46:37.640625,7.72
17:46:37.656250,8.03
17:46:37.671875,7.79
17:46:37.687500,8.26
17:46:37.703125,9.96
17:46:37.718750,12.38
17:46:37.734375,14.31
17:46:37.750000,14.57
17:46:37.765625,12.77
17:46:37.781250,9.60
17:46:37.796875,6.71
17:46:37.812500,6.21
17:46:37.828125,10.02
17:46:37.843750,19.16
17:46:37.859375,33.40
17:46:37.875000,51.08
17:46:37.890625,69.43
17:46:37.906250,85.13
17:46:37.921875,95.20
17:46:37.937500,97.70
17:46:37.953125,92.23
17:46:37.968750,79.91
17:46:37.984375,62.98
17:46:38,44.03
17:46:38.015625,25.15
17:46:38.031250,7.31
17:46:38.046875,-9.82
17:46:38.062500,-27.30
17:46:38.078125,-46.04
17:46:38.093750,-65.85
17:46:38.109375,-84.94
17:46:38.125000,-100.47
17:46:38.140625,-109.65
17:46:38.156250,-111.12
17:46:38.171875,-105.90
17:46:38.187500,-97.02
17:46:38.203125,-88.31
17:46:38.218750,-82.65
17:46:38.234375,-80.73
17:46:38.250000,-80.90
17:46:38.265625,-80.27
17:46:38.281250,-76.18
17:46:38.296875,-67.63
17:46:38.312500,-55.63
17:46:38.328125,-42.61
17:46:38.343750,-31.19
17:46:38.359375,-23.01
17:46:38.375000,-18.24
17:46:38.390625,-15.81
17:46:38.406250,-14.14
17:46:38.421875,-12.07
17:46:38.437500,-9.30
17:46:38.453125,-6.43
17:46:38.468750,-4.53
17:46:38.484375,-4.50
17:46:38.500000,-6.58
17:46:38.515625,-10.08
17:46:38.531250,-13.67
17:46:38.546875,-15.96
17:46:38.562500,-16.22
17:46:38.578125,-14.81
17:46:38.593750,-13.03
17:46:38.609375,-12.50
17:46:38.625000,-14.15
17:46:38.640625,-17.72
17:46:38.656250,-21.74
17:46:38.671875,-24.23
17:46:38.687500,-23.70
17:46:38.703125,-19.91
17:46:38.718750,-14.00
17:46:38.734375,-7.92
17:46:38.750000,-3.50
17:46:38.765625,-1.66
17:46:38.781250,-2.06
17:46:38.796875,-3.46
17:46:38.812500,-4.38
17:46:38.828125,-3.89
17:46:38.843750,-1.91
17:46:38.859375,0.95
17:46:38.875000,3.86
17:46:38.890625,6.33
17:46:38.906250,8.36
17:46:38.921875,10.30
17:46:38.937500,12.39
17:46:38.953125,14.43
17:46:38.968750,15.85
17:46:38.984375,15.97
17:46:39,14.46
17:46:39.015625,11.56
17:46:39.031250,8.01
17:46:39.046875,4.59
17:46:39.062500,1.68
17:46:39.078125,-0.92
17:46:39.093750,-3.85
17:46:39.109375,-7.71
17:46:39.125000,-12.56
17:46:39.140625,-17.76
17:46:39.156250,-22.24
17:46:39.171875,-25.00
17:46:39.187500,-25.67
17:46:39.203125,-24.72
17:46:39.218750,-23.25
17:46:39.234375,-22.48
17:46:39.250000,-23.10
17:46:39.265625,-25.09
17:46:39.281250,-27.70
17:46:39.296875,-29.99
17:46:39.312500,-31.27
17:46:39.328125,-31.34
17:46:39.343750,-30.50
17:46:39.359375,-29.24
17:46:39.375000,-27.99
17:46:39.390625,-26.94
17:46:39.406250,-26.08
17:46:39.421875,-25.35
17:46:39.437500,-24.68
17:46:39.453125,-24.00
17:46:39.468750,-23.18
17:46:39.484375,-21.96
17:46:39.500000,-20.12
17:46:39.515625,-17.56
17:46:39.531250,-14.48
17:46:39.546875,-11.32
17:46:39.562500,-8.62
17:46:39.578125,-6.78
17:46:39.593750,-5.91
17:46:39.609375,-5.80
17:46:39.625000,-6.12
17:46:39.640625,-6.55
17:46:39.656250,-6.87
17:46:39.671875,-6.95
17:46:39.687500,-6.69
17:46:39.703125,-6.03
17:46:39.718750,-4.97
17:46:39.734375,-3.68
17:46:39.750000,-2.48
17:46:39.765625,-1.70
17:46:39.781250,-1.56
17:46:39.796875,-2.00
17:46:39.812500,-2.75
17:46:39.828125,-3.43
17:46:39.843750,-3.79
17:46:39.859375,-3.80
17:46:39.875000,-3.75
17:46:39.890625,-4.05
17:46:39.906250,-5.00
17:46:39.921875,-6.52
17:46:39.937500,-8.11
17:46:39.953125,-9.09
17:46:39.968750,-8.90
17:46:39.984375,-7.47
17:46:40,-5.28
17:46:40.015625,-3.09
17:46:40.031250,-1.59
17:46:40.046875,-1.05
17:46:40.062500,-1.31
17:46:40.078125,-1.96
17:46:40.093750,-2.65
17:46:40.109375,-3.19
17:46:40.125000,-3.50
17:46:40.140625,-3.48
17:46:40.156250,-2.96
17:46:40.171875,-1.89
17:46:40.187500,-0.44
17:46:40.203125,0.90
17:46:40.218750,1.67
17:46:40.234375,1.83
17:46:40.250000,2.01
17:46:40.265625,3.31
17:46:40.281250,6.70
17:46:40.296875,12.41
17:46:40.312500,19.62
17:46:40.328125,26.88
17:46:40.343750,32.77
17:46:40.359375,36.58
17:46:40.375000,38.47
17:46:40.390625,39.16
17:46:40.406250,39.35
17:46:40.421875,39.28
17:46:40.437500,38.81
17:46:40.453125,37.65
17:46:40.468750,35.83
17:46:40.484375,33.79
17:46:40.500000,32.19
17:46:40.515625,31.54
17:46:40.531250,31.97
17:46:40.546875,33.08
17:46:40.562500,34.22
17:46:40.578125,34.78
17:46:40.593750,34.48
17:46:40.609375,33.44
17:46:40.625000,32.15
17:46:40.640625,31.31
17:46:40.656250,31.57
17:46:40.671875,33.17
17:46:40.687500,35.66
17:46:40.703125,37.72
17:46:40.718750,37.37
17:46:40.734375,32.60
17:46:40.750000,22.18
17:46:40.765625,6.29
17:46:40.781250,-13.29
17:46:40.796875,-33.62
17:46:40.812500,-51.52
17:46:40.828125,-64.56
17:46:40.843750,-71.64
17:46:40.859375,-72.97
17:46:40.875000,-69.65
17:46:40.890625,-62.97
17:46:40.906250,-54.08
17:46:40.921875,-44.01
17:46:40.937500,-33.84
17:46:40.953125,-24.75
17:46:40.968750,-17.89
17:46:40.984375,-13.84
17:46:41,-12.14
17:46:41.015625,-11.41
17:46:41.031250,-9.73
17:46:41.046875,-5.49
17:46:41.062500,1.76
17:46:41.078125,11.01
17:46:41.093750,20.06
17:46:41.109375,26.40
17:46:41.125000,28.31
17:46:41.140625,25.62
17:46:41.156250,19.80
17:46:41.171875,13.31
17:46:41.187500,8.48
17:46:41.203125,6.48
17:46:41.218750,6.91
17:46:41.234375,8.22
17:46:41.250000,8.61
17:46:41.265625,7.07
17:46:41.281250,3.98
17:46:41.296875,0.83
17:46:41.312500,-0.71
17:46:41.328125,0.21
17:46:41.343750,3.05
17:46:41.359375,5.98
17:46:41.375000,6.84
17:46:41.390625,3.92
17:46:41.406250,-3.38
17:46:41.421875,-14.47
17:46:41.437500,-27.72
17:46:41.453125,-40.40
17:46:41.468750,-48.92
17:46:41.484375,-49.20
17:46:41.500000,-37.96
17:46:41.515625,-14.35
17:46:41.531250,18.70
17:46:41.546875,54.59
17:46:41.562500,84.92
17:46:41.578125,102.57
17:46:41.593750,104.64
17:46:41.609375,93.45
17:46:41.625000,75.24
17:46:41.640625,57.24
17:46:41.656250,44.64
17:46:41.671875,39.03
17:46:41.687500,38.86
17:46:41.703125,41.40
17:46:41.718750,44.64
17:46:41.734375,48.26
17:46:41.750000,53.14
17:46:41.765625,60.14
17:46:41.781250,68.96
17:46:41.796875,78.11
17:46:41.812500,85.79
17:46:41.828125,91.30
17:46:41.843750,95.89
17:46:41.859375,102.15
17:46:41.875000,112.45
17:46:41.890625,126.84
17:46:41.906250,142.04
17:46:41.921875,152.09
17:46:41.937500,150.57
17:46:41.953125,133.43
17:46:41.968750,100.77
17:46:41.984375,56.70
17:46:42,7.50
17:46:42.015625,-40.95
17:46:42.031250,-84.74
17:46:42.046875,-121.98
17:46:42.062500,-151.58
17:46:42.078125,-172.34
17:46:42.093750,-182.93
17:46:42.109375,-183.24
17:46:42.125000,-175.59
17:46:42.140625,-164.87
17:46:42.156250,-156.94
17:46:42.171875,-155.99
17:46:42.187500,-162.53
17:46:42.203125,-173.13
17:46:42.218750,-182.18
17:46:42.234375,-184.57
17:46:42.250000,-177.83
17:46:42.265625,-162.77
17:46:42.281250,-142.52
17:46:42.296875,-121.15
17:46:42.312500,-102.47
17:46:42.328125,-89.54
17:46:42.343750,-84.23
17:46:42.359375,-86.71
17:46:42.375000,-94.56
17:46:42.390625,-102.64
17:46:42.406250,-104.16
17:46:42.421875,-93.16
17:46:42.437500,-67.18
17:46:42.453125,-28.86
17:46:42.468750,14.60
17:46:42.484375,54.20
17:46:42.500000,82.56
17:46:42.515625,96.59
17:46:42.531250,98.00
17:46:42.546875,91.70
17:46:42.562500,83.06
17:46:42.578125,75.47
17:46:42.593750,69.70
17:46:42.609375,64.63
17:46:42.625000,59.02
17:46:42.640625,52.77
17:46:42.656250,47.13
17:46:42.671875,43.69
17:46:42.687500,43.16
17:46:42.703125,44.62
17:46:42.718750,45.84
17:46:42.734375,44.52
17:46:42.750000,39.49
17:46:42.765625,31.30
17:46:42.781250,21.82
17:46:42.796875,13.04
17:46:42.812500,6.07
17:46:42.828125,0.83
17:46:42.843750,-3.32
17:46:42.859375,-6.75
17:46:42.875000,-8.93
17:46:42.890625,-8.79
17:46:42.906250,-5.58
17:46:42.921875,0.28
17:46:42.937500,7.17
17:46:42.953125,12.92
17:46:42.968750,15.97
17:46:42.984375,16.08
17:46:43,14.32
17:46:43.015625,12.37
17:46:43.031250,11.59
17:46:43.046875,12.41
17:46:43.062500,14.28
17:46:43.078125,16.21
17:46:43.093750,17.28
17:46:43.109375,17.03
17:46:43.125000,15.57
17:46:43.140625,13.45
17:46:43.156250,11.32
17:46:43.171875,9.77
17:46:43.187500,9.08
17:46:43.203125,9.18
17:46:43.218750,9.72
17:46:43.234375,10.30
17:46:43.250000,10.73
17:46:43.265625,11.08
17:46:43.281250,11.62
17:46:43.296875,12.47
17:46:43.312500,13.49
17:46:43.328125,14.29
17:46:43.343750,14.51
17:46:43.359375,14.08
17:46:43.375000,13.32
17:46:43.390625,12.71
17:46:43.406250,12.59
17:46:43.421875,12.91
17:46:43.437500,13.34
17:46:43.453125,13.46
17:46:43.468750,13.05
17:46:43.484375,12.13
17:46:43.500000,10.79
17:46:43.515625,8.97
17:46:43.531250,6.36
17:46:43.546875,2.57
17:46:43.562500,-2.55
17:46:43.578125,-8.64
17:46:43.593750,-14.83
17:46:43.609375,-20.13
17:46:43.625000,-23.78
17:46:43.640625,-25.57
17:46:43.656250,-25.81
17:46:43.671875,-25.01
17:46:43.687500,-23.58
17:46:43.703125,-21.60
17:46:43.718750,-18.91
17:46:43.734375,-15.32
17:46:43.750000,-10.79
17:46:43.765625,-5.58
17:46:43.781250,-0.26
17:46:43.796875,4.56
17:46:43.812500,8.36
17:46:43.828125,10.90
17:46:43.843750,12.37
17:46:43.859375,13.20
17:46:43.875000,14.01
17:46:43.890625,15.32
17:46:43.906250,17.31
17:46:43.921875,19.72
17:46:43.937500,21.94
17:46:43.953125,23.29
17:46:43.968750,23.42
17:46:43.984375,22.52
17:46:44,21.31
17:46:44.015625,20.82
17:46:44.031250,21.91
17:46:44.046875,24.87
17:46:44.062500,29.20
17:46:44.078125,33.80
17:46:44.093750,37.38
17:46:44.109375,39.02
17:46:44.125000,38.57
17:46:44.140625,36.84
17:46:44.156250,35.53
17:46:44.171875,36.74
17:46:44.187500,42.44
17:46:44.203125,53.52
17:46:44.218750,68.92
17:46:44.234375,85.05
17:46:44.250000,96.30
17:46:44.265625,96.44
17:46:44.281250,80.82
17:46:44.296875,48.57
17:46:44.312500,3.79
17:46:44.328125,-44.96
17:46:44.343750,-86.76
17:46:44.359375,-111.63
17:46:44.375000,-113.68
17:46:44.390625,-93.01
17:46:44.406250,-55.67
17:46:44.421875,-11.81
17:46:44.437500,27.40
17:46:44.453125,52.73
17:46:44.468750,59.06
17:46:44.484375,46.09
17:46:44.500000,17.70
17:46:44.515625,-19.44
17:46:44.531250,-57.51
17:46:44.546875,-89.01
17:46:44.562500,-108.10
17:46:44.578125,-111.63
17:46:44.593750,-100.09
17:46:44.609375,-77.65
17:46:44.625000,-51.26
17:46:44.640625,-28.53
17:46:44.656250,-15.20
17:46:44.671875,-13.32
17:46:44.687500,-20.81
17:46:44.703125,-32.68
17:46:44.718750,-43.27
17:46:44.734375,-48.48
17:46:44.750000,-46.90
17:46:44.765625,-39.67
17:46:44.781250,-29.37
17:46:44.796875,-18.62
17:46:44.812500,-9.26
17:46:44.828125,-2.12
17:46:44.843750,2.72
17:46:44.859375,5.48
17:46:44.875000,6.46
17:46:44.890625,6.05
17:46:44.906250,4.77
17:46:44.921875,3.21
17:46:44.937500,1.94
17:46:44.953125,1.26
17:46:44.968750,1.04
17:46:44.984375,0.79
17:46:45,-0.15
17:46:45.015625,-2.21
17:46:45.031250,-5.39
17:46:45.046875,-9.19
17:46:45.062500,-12.74
17:46:45.078125,-15.17
17:46:45.093750,-15.93
17:46:45.109375,-14.98
17:46:45.125000,-12.87
17:46:45.140625,-10.47
17:46:45.156250,-8.67
17:46:45.171875,-8.01
17:46:45.187500,-8.51
17:46:45.203125,-9.69
17:46:45.218750,-10.82
17:46:45.234375,-11.28
17:46:45.250000,-10.68
17:46:45.265625,-9.05
17:46:45.281250,-6.61
17:46:45.296875,-3.72
17:46:45.312500,-0.73
17:46:45.328125,2.05
17:46:45.343750,4.35
17:46:45.359375,6.01
17:46:45.375000,7.03
17:46:45.390625,7.59
17:46:45.406250,8.03
17:46:45.421875,8.76
17:46:45.437500,9.98
17:46:45.453125,11.50
17:46:45.468750,12.82
17:46:45.484375,13.28
17:46:45.500000,12.41
17:46:45.515625,10.22
17:46:45.531250,7.19
17:46:45.546875,4.03
17:46:45.562500,1.30
17:46:45.578125,-0.88
17:46:45.593750,-2.86
17:46:45.609375,-5.17
17:46:45.625000,-8.21
17:46:45.640625,-11.89
17:46:45.656250,-15.67
17:46:45.671875,-18.71
17:46:45.687500,-20.23
17:46:45.703125,-19.85
17:46:45.718750,-17.68
17:46:45.734375,-14.30
17:46:45.750000,-10.59
17:46:45.765625,-7.49
17:46:45.781250,-5.69
17:46:45.796875,-5.49
17:46:45.812500,-6.75
17:46:45.828125,-8.96
17:46:45.843750,-11.36
17:46:45.859375,-13.25
17:46:45.875000,-14.03
17:46:45.890625,-13.39
17:46:45.906250,-11.36
17:46:45.921875,-8.22
17:46:45.937500,-4.55
17:46:45.953125,-1.03
17:46:45.968750,1.66
17:46:45.984375,3.23
17:46:46,3.80
17:46:46.015625,3.89
17:46:46.031250,4.17
17:46:46.046875,5.13
17:46:46.062500,6.94
17:46:46.078125,9.17
17:46:46.093750,11.16
17:46:46.109375,12.16
17:46:46.125000,11.87
17:46:46.140625,10.55
17:46:46.156250,8.99
17:46:46.171875,8.02
17:46:46.187500,8.21
17:46:46.203125,9.63
17:46:46.218750,11.64
17:46:46.234375,13.44
17:46:46.250000,14.39
17:46:46.265625,14.32
17:46:46.281250,13.65
17:46:46.296875,13.06
17:46:46.312500,13.17
17:46:46.328125,14.61
17:46:46.343750,18.36
17:46:46.359375,25.40
17:46:46.375000,36.68
17:46:46.390625,52.34
17:46:46.406250,71.03
17:46:46.421875,89.96
17:46:46.437500,105.60
17:46:46.453125,114.97
17:46:46.468750,117.15
17:46:46.484375,115.18
17:46:46.500000,114.01
17:46:46.515625,119.27
17:46:46.531250,133.85
17:46:46.546875,156.12
17:46:46.562500,181.46
17:46:46.578125,205.33
17:46:46.593750,225.20
17:46:46.609375,240.75
17:46:46.625000,252.92
17:46:46.640625,261.81
17:46:46.656250,266.27
17:46:46.671875,264.52
17:46:46.687500,255.39
17:46:46.703125,239.19
17:46:46.718750,217.51
17:46:46.734375,192.34
17:46:46.750000,164.64
17:46:46.765625,137.10
17:46:46.781250,110.22
17:46:46.796875,83.40
17:46:46.812500,55.81
17:46:46.828125,27.35
17:46:46.843750,-0.82
17:46:46.859375,-26.53
17:46:46.875000,-47.55
17:46:46.890625,-62.54
17:46:46.906250,-71.45
17:46:46.921875,-76.18
17:46:46.937500,-79.35
17:46:46.953125,-83.46
17:46:46.968750,-90.32
17:46:46.984375,-100.71
17:46:47,-114.38
17:46:47.015625,-129.77
17:46:47.031250,-143.80
17:46:47.046875,-152.13
17:46:47.062500,-150.80
17:46:47.078125,-137.62
17:46:47.093750,-113.62
17:46:47.109375,-83.32
17:46:47.125000,-53.02
17:46:47.140625,-28.32
17:46:47.156250,-11.82
17:46:47.171875,-2.43
17:46:47.187500,3.54
17:46:47.203125,9.89
17:46:47.218750,18.77
17:46:47.234375,30.16
17:46:47.250000,42.73
17:46:47.265625,55.33
17:46:47.281250,67.80
17:46:47.296875,80.87
17:46:47.312500,95.26
17:46:47.328125,110.80
17:46:47.343750,126.11
17:46:47.359375,139.29
17:46:47.375000,148.65
17:46:47.390625,153.43
17:46:47.406250,154.05
17:46:47.421875,151.69
17:46:47.437500,147.66
17:46:47.453125,142.82
17:46:47.468750,137.19
17:46:47.484375,130.10
17:46:47.500000,120.65
17:46:47.515625,108.24
17:46:47.531250,93.03
17:46:47.546875,76.02
17:46:47.562500,58.70
17:46:47.578125,42.57
17:46:47.593750,28.73
17:46:47.609375,17.50
17:46:47.625000,8.55
17:46:47.640625,1.23
17:46:47.656250,-5.08
17:46:47.671875,-10.60
17:46:47.687500,-15.13
17:46:47.703125,-18.24
17:46:47.718750,-19.60
17:46:47.734375,-19.34
17:46:47.750000,-18.20
17:46:47.765625,-17.34
17:46:47.781250,-18.01
17:46:47.796875,-21.04
17:46:47.812500,-26.52
17:46:47.828125,-33.72
17:46:47.843750,-41.35
17:46:47.859375,-48.11
17:46:47.875000,-53.27
17:46:47.890625,-57.05
17:46:47.906250,-60.49
17:46:47.921875,-65.03
17:46:47.937500,-71.82
17:46:47.953125,-81.13
17:46:47.968750,-92.11
17:46:47.984375,-103.21
17:46:48,-112.91
17:46:48.015625,-120.61
17:46:48.031250,-127.20
17:46:48.046875,-134.74
17:46:48.062500,-145.73
17:46:48.078125,-161.82
17:46:48.093750,-182.86
17:46:48.109375,-206.76
17:46:48.125000,-230.31
17:46:48.140625,-250.48
17:46:48.156250,-265.91
17:46:48.171875,-277.54
17:46:48.187500,-288.24
17:46:48.203125,-301.58
17:46:48.218750,-320.75
17:46:48.234375,-347.46
17:46:48.250000,-381.58
17:46:48.265625,-420.89
17:46:48.281250,-461.03
17:46:48.296875,-495.90
17:46:48.312500,-518.64
17:46:48.328125,-523.48
17:46:48.343750,-508.20
17:46:48.359375,-475.62
17:46:48.375000,-433.48
17:46:48.390625,-392.17
17:46:48.406250,-360.93
17:46:48.421875,-344.87
17:46:48.437500,-343.52
17:46:48.453125,-351.58
17:46:48.468750,-361.65
17:46:48.484375,-366.94
17:46:48.500000,-362.93
17:46:48.515625,-347.75
17:46:48.531250,-321.33
17:46:48.546875,-283.92
17:46:48.562500,-235.73
17:46:48.578125,-177.34
17:46:48.593750,-110.98
17:46:48.609375,-42.27
17:46:48.625000,19.10
17:46:48.640625,60.98
17:46:48.656250,72.63
17:46:48.671875,49.21
17:46:48.687500,-4.13
17:46:48.703125,-73.24
17:46:48.718750,-139.35
17:46:48.734375,-185.81
17:46:48.750000,-204.06
17:46:48.765625,-195.71
17:46:48.781250,-169.81
17:46:48.796875,-137.36
17:46:48.812500,-106.63
17:46:48.828125,-78.80
17:46:48.843750,-51.27
17:46:48.859375,-20.64
17:46:48.875000,14.01
17:46:48.890625,49.86
17:46:48.906250,81.67
17:46:48.921875,104.50
17:46:48.937500,116.53
17:46:48.953125,118.91
17:46:48.968750,118.73
17:46:48.984375,122.46
17:46:49,135.02
17:46:49.015625,157.72
17:46:49.031250,188.14
17:46:49.046875,221.14
17:46:49.062500,251.10
17:46:49.078125,273.83
17:46:49.093750,285.31
17:46:49.109375,287.29
17:46:49.125000,278.61
17:46:49.140625,256.58
17:46:49.156250,217.65
17:46:49.171875,159.92
17:46:49.187500,86.05
17:46:49.203125,4.78
17:46:49.218750,-70.70
17:46:49.234375,-129.45
17:46:49.250000,-159.16
17:46:49.265625,-158.60
17:46:49.281250,-133.99
17:46:49.296875,-95.59
17:46:49.312500,-53.02
17:46:49.328125,-12.00
17:46:49.343750,25.44
17:46:49.359375,75.08
17:46:49.375000,111.53
17:46:49.390625,134.09
17:46:49.406250,138.96
17:46:49.421875,126.24
17:46:49.437500,102.48
17:46:49.453125,79.15
17:46:49.468750,67.58
17:46:49.484375,72.93
17:46:49.500000,91.14
17:46:49.515625,108.05
17:46:49.531250,114.27
17:46:49.546875,103.33
17:46:49.562500,78.45
17:46:49.578125,50.39
17:46:49.593750,30.95
17:46:49.609375,26.04
17:46:49.625000,32.99
17:46:49.640625,43.32
17:46:49.656250,47.00
17:46:49.671875,44.43
17:46:49.687500,40.48
17:46:49.703125,43.17
17:46:49.718750,57.57
17:46:49.734375,81.74
17:46:49.750000,107.34
17:46:49.765625,124.58
17:46:49.781250,127.85
17:46:49.796875,117.74
17:46:49.812500,103.81
17:46:49.828125,95.86
17:46:49.843750,100.35
17:46:49.859375,117.92
17:46:49.875000,144.36
17:46:49.890625,173.66
17:46:49.906250,200.97
17:46:49.921875,224.08
17:46:49.937500,242.40
17:46:49.953125,257.77
17:46:49.968750,271.49
17:46:49.984375,284.12
17:46:50,295.03
17:46:50.015625,301.88
17:46:50.031250,300.43
17:46:50.046875,285.16
17:46:50.062500,250.81
17:46:50.078125,194.44
17:46:50.093750,118.20
17:46:50.109375,29.01
17:46:50.125000,-62.36
17:46:50.140625,-144.28
17:46:50.156250,-207.57
17:46:50.171875,-247.95
17:46:50.187500,-266.62
17:46:50.203125,-268.99
17:46:50.218750,-262.34
17:46:50.234375,-253.24
17:46:50.250000,-246.02
17:46:50.265625,-242.38
17:46:50.281250,-242.29
17:46:50.296875,-245.05
17:46:50.312500,-250.20
17:46:50.328125,-257.31
17:46:50.343750,-265.48
17:46:50.359375,-272.99
17:46:50.375000,-277.56
17:46:50.390625,-277.32
17:46:50.406250,-271.66
17:46:50.421875,-261.66
17:46:50.437500,-249.53
17:46:50.453125,-237.84
17:46:50.468750,-228.31
17:46:50.484375,-221.26
17:46:50.500000,-215.78
17:46:50.515625,-210.27
17:46:50.531250,-203.25
17:46:50.546875,-193.92
17:46:50.562500,-182.32
17:46:50.578125,-169.18
17:46:50.593750,-155.43
17:46:50.609375,-141.73
17:46:50.625000,-128.33
17:46:50.640625,-115.12
17:46:50.656250,-101.79
17:46:50.671875,-88.03
17:46:50.687500,-73.60
17:46:50.703125,-58.26
17:46:50.718750,-41.75
17:46:50.734375,-23.96
17:46:50.750000,-5.00
17:46:50.765625,14.61
17:46:50.781250,33.88
17:46:50.796875,51.66
17:46:50.812500,67.13
17:46:50.828125,80.25
17:46:50.843750,91.98
17:46:50.859375,104.00
17:46:50.875000,117.97
17:46:50.890625,134.72
17:46:50.906250,153.68
17:46:50.921875,173.03
17:46:50.937500,190.60
17:46:50.953125,204.88
17:46:50.968750,215.89
17:46:50.984375,225.33
17:46:51,235.81
17:46:51.015625,249.83
17:46:51.031250,268.88
17:46:51.046875,293.24
17:46:51.062500,322.39
17:46:51.078125,355.02
17:46:51.093750,388.83
17:46:51.109375,420.05
17:46:51.125000,443.64
17:46:51.140625,454.65
17:46:51.156250,450.58
17:46:51.171875,433.15
17:46:51.187500,408.43
17:46:51.203125,384.48
17:46:51.218750,367.64
17:46:51.234375,359.43
17:46:51.250000,356.08
17:46:51.265625,350.93
17:46:51.281250,338.79
17:46:51.296875,319.24
17:46:51.312500,297.09
17:46:51.328125,279.46
17:46:51.343750,271.39
17:46:51.359375,272.56
17:46:51.375000,277.38
17:46:51.390625,277.90
17:46:51.406250,267.82
17:46:51.421875,245.16
17:46:51.437500,212.27
17:46:51.453125,173.17
17:46:51.468750,130.45
17:46:51.484375,83.68
17:46:51.500000,30.55
17:46:51.515625,-30.10
17:46:51.531250,-95.50
17:46:51.546875,-158.47
17:46:51.562500,-209.63
17:46:51.578125,-241.13
17:46:51.593750,-249.90
17:46:51.609375,-238.52
17:46:51.625000,-213.75
17:46:51.640625,-183.77
17:46:51.656250,-155.36
17:46:51.671875,-132.47
17:46:51.687500,-116.19
17:46:51.703125,-105.58
17:46:51.718750,-98.76
17:46:51.734375,-93.84
17:46:51.750000,-89.12
17:46:51.765625,-83.33
17:46:51.781250,-75.70
17:46:51.796875,-66.07
17:46:51.812500,-54.95
17:46:51.828125,-43.41
17:46:51.843750,-32.76
17:46:51.859375,-24.18
17:46:51.875000,-18.32
17:46:51.890625,-14.97
17:46:51.906250,-13.18
17:46:51.921875,-11.61
17:46:51.937500,-9.19
17:46:51.953125,-5.59
17:46:51.968750,-1.31
17:46:51.984375,2.78
17:46:52,6.07
17:46:52.015625,8.58
17:46:52.031250,10.82
17:46:52.046875,13.26
17:46:52.062500,15.77
17:46:52.078125,17.53
17:46:52.093750,17.60
17:46:52.109375,15.52
17:46:52.125000,11.87
17:46:52.140625,7.99
17:46:52.156250,5.28
17:46:52.171875,4.44
17:46:52.187500,5.05
17:46:52.203125,5.89
17:46:52.218750,5.67
17:46:52.234375,3.80
17:46:52.250000,0.61
17:46:52.265625,-2.91
17:46:52.281250,-5.73
17:46:52.296875,-7.41
17:46:52.312500,-8.15
17:46:52.328125,-8.57
17:46:52.343750,-9.27
17:46:52.359375,-10.46
17:46:52.375000,-11.92
17:46:52.390625,-13.16
17:46:52.406250,-13.71
17:46:52.421875,-13.44
17:46:52.437500,-12.73
17:46:52.453125,-12.36
17:46:52.468750,-13.15
17:46:52.484375,-15.45
17:46:52.500000,-18.73
17:46:52.515625,-21.65
17:46:52.531250,-22.62
17:46:52.546875,-20.65
17:46:52.562500,-16.01
17:46:52.578125,-10.24
17:46:52.593750,-5.35
17:46:52.609375,-2.78
17:46:52.625000,-2.52
17:46:52.640625,-3.13
17:46:52.656250,-2.64
17:46:52.671875,0.20
17:46:52.687500,5.19
17:46:52.703125,10.76
17:46:52.718750,14.98
17:46:52.734375,16.71
17:46:52.750000,16.24
17:46:52.765625,14.98
17:46:52.781250,14.50
17:46:52.796875,15.58
17:46:52.812500,17.85
17:46:52.828125,20.10
17:46:52.843750,21.13
17:46:52.859375,20.45
17:46:52.875000,18.47
17:46:52.890625,16.10
17:46:52.906250,14.13
17:46:52.921875,12.84
17:46:52.937500,11.92
17:46:52.953125,10.90
17:46:52.968750,9.50
17:46:52.984375,7.86
17:46:53,6.38
17:46:53.015625,5.47
17:46:53.031250,5.24
17:46:53.046875,5.46
17:46:53.062500,5.75
17:46:53.078125,5.78
17:46:53.093750,5.41
17:46:53.109375,4.80
17:46:53.125000,4.15
17:46:53.140625,3.62
17:46:53.156250,3.22
17:46:53.171875,2.80
17:46:53.187500,2.24
17:46:53.203125,1.49
17:46:53.218750,0.72
17:46:53.234375,0.20
17:46:53.250000,0.17
17:46:53.265625,0.67
17:46:53.281250,1.48
17:46:53.296875,2.20
17:46:53.312500,2.41
17:46:53.328125,1.90
17:46:53.343750,0.78
17:46:53.359375,-0.54
17:46:53.375000,-1.65
17:46:53.390625,-2.25
17:46:53.406250,-2.35
17:46:53.421875,-2.16
17:46:53.437500,-2.02
17:46:53.453125,-2.17
17:46:53.468750,-2.69
17:46:53.484375,-3.62
17:46:53.500000,-4.95
17:46:53.515625,-6.70
17:46:53.531250,-8.83
17:46:53.546875,-11.15
17:46:53.562500,-13.31
17:46:53.578125,-14.91
17:46:53.593750,-15.67
17:46:53.609375,-15.62
17:46:53.625000,-15.07
17:46:53.640625,-14.56
17:46:53.656250,-14.53
17:46:53.671875,-15.21
17:46:53.687500,-16.48
17:46:53.703125,-17.98
17:46:53.718750,-19.23
17:46:53.734375,-19.80
17:46:53.750000,-19.45
17:46:53.765625,-18.19
17:46:53.781250,-16.26
17:46:53.796875,-14.07
17:46:53.812500,-12.02
17:46:53.828125,-10.37
17:46:53.843750,-9.19
17:46:53.859375,-8.29
17:46:53.875000,-7.43
17:46:53.890625,-6.43
17:46:53.906250,-5.27
17:46:53.921875,-4.09
17:46:53.937500,-3.05
17:46:53.953125,-2.23
17:46:53.968750,-1.55
17:46:53.984375,-0.89
17:46:54,-0.11
17:46:54.015625,0.83
17:46:54.031250,1.82
17:46:54.046875,2.73
17:46:54.062500,3.39
17:46:54.078125,3.76
17:46:54.093750,3.86
17:46:54.109375,3.80
17:46:54.125000,3.67
17:46:54.140625,3.55
17:46:54.156250,3.49
17:46:54.171875,3.49
17:46:54.187500,3.55
17:46:54.203125,3.67
17:46:54.218750,3.84
17:46:54.234375,4.05
17:46:54.250000,4.25
17:46:54.265625,4.40
17:46:54.281250,4.41
17:46:54.296875,4.23
17:46:54.312500,3.89
17:46:54.328125,3.49
17:46:54.343750,3.12
17:46:54.359375,2.86
17:46:54.375000,2.70
17:46:54.390625,2.49
17:46:54.406250,2.02
17:46:54.421875,1.07
17:46:54.437500,-0.49
17:46:54.453125,-2.66
17:46:54.468750,-5.32
17:46:54.484375,-8.23
17:46:54.500000,-11.10
17:46:54.515625,-13.65
17:46:54.531250,-15.70
17:46:54.546875,-17.20
17:46:54.562500,-18.30
17:46:54.578125,-19.22
17:46:54.593750,-20.19
17:46:54.609375,-21.28
17:46:54.625000,-22.38
17:46:54.640625,-23.19
17:46:54.656250,-23.37
17:46:54.671875,-22.69
17:46:54.687500,-21.05
17:46:54.703125,-18.62
17:46:54.718750,-15.72
17:46:54.734375,-12.75
17:46:54.750000,-10.04
17:46:54.765625,-7.73
17:46:54.781250,-5.73
17:46:54.796875,-3.83
17:46:54.812500,-1.82
17:46:54.828125,0.39
17:46:54.843750,2.71
17:46:54.859375,4.96
17:46:54.875000,6.93
17:46:54.890625,8.47
17:46:54.906250,9.45
17:46:54.921875,9.78
17:46:54.937500,9.38
17:46:54.953125,8.28
17:46:54.968750,6.75
17:46:54.984375,5.25
17:46:55,4.34
17:46:55.015625,4.39
17:46:55.031250,5.37
17:46:55.046875,6.79
17:46:55.062500,7.92
17:46:55.078125,8.13
17:46:55.093750,7.03
17:46:55.109375,4.67
17:46:55.125000,1.37
17:46:55.140625,-2.40
17:46:55.156250,-6.06
17:46:55.171875,-9.06
17:46:55.187500,-10.83
17:46:55.203125,-11.01
17:46:55.218750,-9.54
17:46:55.234375,-6.89
17:46:55.250000,-3.86
17:46:55.265625,-1.38
17:46:55.281250,-0.09
17:46:55.296875,-0.15
17:46:55.312500,-1.21
17:46:55.328125,-2.70
17:46:55.343750,-4.12
17:46:55.359375,-5.22
17:46:55.375000,-6.07
17:46:55.390625,-6.84
17:46:55.406250,-7.68
17:46:55.421875,-8.71
17:46:55.437500,-10.00
17:46:55.453125,-11.68
17:46:55.468750,-13.91
17:46:55.484375,-16.75
17:46:55.500000,-20.02
17:46:55.515625,-23.26
17:46:55.531250,-25.84
17:46:55.546875,-27.23
17:46:55.562500,-27.22
17:46:55.578125,-26.06
17:46:55.593750,-24.35
17:46:55.609375,-22.78
17:46:55.625000,-21.84
17:46:55.640625,-21.64
17:46:55.656250,-21.90
17:46:55.671875,-22.16
17:46:55.687500,-21.91
17:46:55.703125,-20.92
17:46:55.718750,-19.18
17:46:55.734375,-17.00
17:46:55.750000,-14.91
17:46:55.765625,-13.51
17:46:55.781250,-13.31
17:46:55.796875,-14.43
17:46:55.812500,-16.58
17:46:55.828125,-19.00
17:46:55.843750,-20.93
17:46:55.859375,-21.86
17:46:55.875000,-21.98
17:46:55.890625,-21.99
17:46:55.906250,-22.60
17:46:55.921875,-23.85
17:46:55.937500,-24.65
17:46:55.953125,-22.85
17:46:55.968750,-15.98
17:46:55.984375,-2.26
17:46:56,18.50
17:46:56.015625,44.65
17:46:56.031250,73.08
17:46:56.046875,100.07
17:46:56.062500,122.21
17:46:56.078125,137.15
17:46:56.093750,144.02
17:46:56.109375,143.49
17:46:56.125000,137.43
17:46:56.140625,128.37
17:46:56.156250,118.74
17:46:56.171875,110.15
17:46:56.187500,103.10
17:46:56.203125,97.10
17:46:56.218750,91.16
17:46:56.234375,84.32
17:46:56.250000,76.09
17:46:56.265625,66.97
17:46:56.281250,58.70
17:46:56.296875,54.22
17:46:56.312500,56.90
17:46:56.328125,69.15
17:46:56.343750,90.70
17:46:56.359375,118.01
17:46:56.375000,145.42
17:46:56.390625,167.80
17:46:56.406250,183.33
17:46:56.421875,194.38
17:46:56.437500,205.82
17:46:56.453125,221.62
17:46:56.468750,241.88
17:46:56.484375,262.41
17:46:56.500000,277.05
17:46:56.515625,281.46
17:46:56.531250,275.64
17:46:56.546875,263.74
17:46:56.562500,251.34
17:46:56.578125,242.16
17:46:56.593750,236.37
17:46:56.609375,231.24
17:46:56.625000,223.48
17:46:56.640625,211.50
17:46:56.656250,196.33
17:46:56.671875,180.66
17:46:56.687500,167.25
17:46:56.703125,157.43
17:46:56.718750,150.86
17:46:56.734375,146.14
17:46:56.750000,141.89
17:46:56.765625,137.69
17:46:56.781250,134.37
17:46:56.796875,133.42
17:46:56.812500,136.08
17:46:56.828125,142.49
17:46:56.843750,151.25
17:46:56.859375,159.77
17:46:56.875000,164.97
17:46:56.890625,164.37
17:46:56.906250,156.61
17:46:56.921875,141.79
17:46:56.937500,120.94
17:46:56.953125,95.37
17:46:56.968750,66.06
17:46:56.984375,33.44
17:46:57,-2.43
17:46:57.015625,-41.34
17:46:57.031250,-82.48
17:46:57.046875,-124.19
17:46:57.062500,-164.17
17:46:57.078125,-200.02
17:46:57.093750,-229.86
17:46:57.109375,-252.83
17:46:57.125000,-269.24
17:46:57.140625,-280.27
17:46:57.156250,-287.40
17:46:57.171875,-291.88
17:46:57.187500,-294.51
17:46:57.203125,-295.58
17:46:57.218750,-295.16
17:46:57.234375,-293.48
17:46:57.250000,-291.03
17:46:57.265625,-289.06
17:46:57.281250,-289.88
17:46:57.296875,-296.88
17:46:57.312500,-314.00
17:46:57.328125,-344.29
17:46:57.343750,-387.39
17:46:57.359375,-437.82
17:46:57.375000,-485.62
17:46:57.390625,-519.35
17:46:57.406250,-530.63
17:46:57.421875,-517.33
17:46:57.437500,-484.11
17:46:57.453125,-440.01
17:46:57.468750,-395.10
17:46:57.484375,-358.02
17:46:57.500000,-335.12
17:46:57.515625,-330.56
17:46:57.531250,-345.85
17:46:57.546875,-378.80
17:46:57.562500,-422.50
17:46:57.578125,-466.13
17:46:57.593750,-498.11
17:46:57.609375,-510.45
17:46:57.625000,-501.87
17:46:57.640625,-477.78
17:46:57.656250,-447.12
17:46:57.671875,-417.90
17:46:57.687500,-394.30
17:46:57.703125,-376.48
17:46:57.718750,-362.48
17:46:57.734375,-350.42
17:46:57.750000,-339.29
17:46:57.765625,-328.70
17:46:57.781250,-318.08
17:46:57.796875,-306.33
17:46:57.812500,-292.06
17:46:57.828125,-274.58
17:46:57.843750,-254.25
17:46:57.859375,-232.25
17:46:57.875000,-210.09
17:46:57.890625,-188.69
17:46:57.906250,-167.96
17:46:57.921875,-146.96
17:46:57.937500,-124.36
17:46:57.953125,-99.10
17:46:57.968750,-71.00
17:46:57.984375,-40.66
17:46:58,-9.22
17:46:58.015625,22.26
17:46:58.031250,53.22
17:46:58.046875,83.59
17:46:58.062500,113.60
17:46:58.078125,143.27
17:46:58.093750,172.12
17:46:58.109375,199.18
17:46:58.125000,223.39
17:46:58.140625,244.08
17:46:58.156250,261.40
17:46:58.171875,276.40
17:46:58.187500,290.72
17:46:58.203125,306.06
17:46:58.218750,323.72
17:46:58.234375,344.04
17:46:58.250000,365.97
17:46:58.265625,386.94
17:46:58.281250,403.41
17:46:58.296875,412.00
17:46:58.312500,410.92
17:46:58.328125,401.01
17:46:58.343750,385.76
17:46:58.359375,370.06
17:46:58.375000,358.27
17:46:58.390625,352.50
17:46:58.406250,351.92
17:46:58.421875,353.11
17:46:58.437500,351.36
17:46:58.453125,342.43
17:46:58.468750,323.94
17:46:58.484375,296.21
17:46:58.500000,262.09
17:46:58.515625,225.96
17:46:58.531250,192.22
17:46:58.546875,163.94
17:46:58.562500,142.06
17:46:58.578125,125.69
17:46:58.593750,113.23
17:46:58.609375,103.51
17:46:58.625000,96.23
17:46:58.640625,91.43
17:46:58.656250,88.55
17:46:58.671875,85.60
17:46:58.687500,79.42
17:46:58.703125,66.99
17:46:58.718750,46.93
17:46:58.734375,20.47
17:46:58.750000,-9.16
17:46:58.765625,-38.18
17:46:58.781250,-63.81
17:46:58.796875,-84.72
17:46:58.812500,-100.69
17:46:58.828125,-111.47
17:46:58.843750,-116.18
17:46:58.859375,-113.51
17:46:58.875000,-102.76
17:46:58.890625,-84.92
17:46:58.906250,-62.95
17:46:58.921875,-41.15
17:46:58.937500,-23.68
17:46:58.953125,-13.27
17:46:58.968750,-10.50
17:46:58.984375,-14.13
17:46:59,-21.98
17:46:59.015625,-31.79
17:46:59.031250,-41.80
17:46:59.046875,-50.70
17:46:59.062500,-57.70
17:46:59.078125,-62.63
17:46:59.093750,-65.76
17:46:59.109375,-67.48
17:46:59.125000,-67.74
17:46:59.140625,-65.69
17:46:59.156250,-59.63
17:46:59.171875,-47.87
17:46:59.187500,-29.83
17:46:59.203125,-6.91
17:46:59.218750,17.47
17:46:59.234375,38.91
17:46:59.250000,53.74
17:46:59.265625,60.50
17:46:59.281250,60.46
17:46:59.296875,56.91
17:46:59.312500,53.34
17:46:59.328125,51.83
17:46:59.343750,52.29
17:46:59.359375,52.87
17:46:59.375000,51.33
17:46:59.390625,46.53
17:46:59.406250,39.14
17:46:59.421875,31.45
17:46:59.437500,26.42
17:46:59.453125,26.18
17:46:59.468750,30.71
17:46:59.484375,37.24
17:46:59.500000,40.84
17:46:59.515625,36.49
17:46:59.531250,21.61
17:46:59.546875,-2.07
17:46:59.562500,-28.38
17:46:59.578125,-48.70
17:46:59.593750,-55.40
17:46:59.609375,-44.96
17:46:59.625000,-19.56
17:46:59.640625,14.00
17:46:59.656250,47.19
17:46:59.671875,73.12
17:46:59.687500,88.50
17:46:59.703125,93.74
17:46:59.718750,91.43
17:46:59.734375,84.44
17:46:59.750000,74.85
17:46:59.765625,63.86
17:46:59.781250,52.47
17:46:59.796875,42.10
17:46:59.812500,34.58
17:46:59.828125,31.47
17:46:59.843750,33.46
17:46:59.859375,39.67
17:46:59.875000,47.88
17:46:59.890625,55.57
17:46:59.906250,60.97
17:46:59.921875,63.92
17:46:59.937500,65.67
17:46:59.953125,67.62
17:46:59.968750,69.74
17:46:59.984375,69.65
17:47:00,63.17
17:47:00.015625,46.37
17:47:00.031250,18.13
17:47:00.046875,-18.41
17:47:00.062500,-56.46
17:47:00.078125,-88.14
17:47:00.093750,-107.83
17:47:00.109375,-114.15
17:47:00.125000,-109.94
17:47:00.140625,-100.23
17:47:00.156250,-89.55
17:47:00.171875,-80.30
17:47:00.187500,-72.75
17:47:00.203125,-66.33
17:47:00.218750,-60.99
17:47:00.234375,-57.62
17:47:00.250000,-57.30
17:47:00.265625,-60.22
17:47:00.281250,-65.15
17:47:00.296875,-69.76
17:47:00.312500,-71.77
17:47:00.328125,-70.15
17:47:00.343750,-65.52
17:47:00.359375,-59.88
17:47:00.375000,-55.47
17:47:00.390625,-53.74
17:47:00.406250,-54.62
17:47:00.421875,-56.70
17:47:00.437500,-57.96
17:47:00.453125,-56.87
17:47:00.468750,-53.30
17:47:00.484375,-48.77
17:47:00.500000,-46.01
17:47:00.515625,-47.72
17:47:00.531250,-55.11
17:47:00.546875,-66.72
17:47:00.562500,-78.41
17:47:00.578125,-84.37
17:47:00.593750,-79.09
17:47:00.609375,-59.24
17:47:00.625000,-24.88
17:47:00.640625,20.63
17:47:00.656250,71.55
17:47:00.671875,121.23
17:47:00.687500,163.64
17:47:00.703125,194.35
17:47:00.718750,211.23
17:47:00.734375,214.59
17:47:00.750000,206.72
17:47:00.765625,190.99
17:47:00.781250,170.44
17:47:00.796875,146.63
17:47:00.812500,119.46
17:47:00.828125,88.09
17:47:00.843750,52.50
17:47:00.859375,14.81
17:47:00.875000,-20.83
17:47:00.890625,-49.76
17:47:00.906250,-68.80
17:47:00.921875,-77.67
17:47:00.937500,-78.80
17:47:00.953125,-75.81
17:47:00.968750,-71.60
17:47:00.984375,-67.26
17:47:01,-62.29
17:47:01.015625,-56.00
17:47:01.031250,-48.68
17:47:01.046875,-41.89
17:47:01.062500,-37.78
17:47:01.078125,-37.71
17:47:01.093750,-41.36
17:47:01.109375,-46.77
17:47:01.125000,-51.26
17:47:01.140625,-52.60
17:47:01.156250,-49.91
17:47:01.171875,-43.88
17:47:01.187500,-36.20
17:47:01.203125,-28.64
17:47:01.218750,-22.32
17:47:01.234375,-17.43
17:47:01.250000,-13.47
17:47:01.265625,-9.68
17:47:01.281250,-5.60
17:47:01.296875,-1.28
17:47:01.312500,2.81
17:47:01.328125,6.03
17:47:01.343750,7.98
17:47:01.359375,8.63
17:47:01.375000,8.34
17:47:01.390625,7.65
17:47:01.406250,7.08
17:47:01.421875,6.86
17:47:01.437500,7.00
17:47:01.453125,7.32
17:47:01.468750,7.58
17:47:01.484375,7.65
17:47:01.500000,7.56
17:47:01.515625,7.51
17:47:01.531250,7.75
17:47:01.546875,8.45
17:47:01.562500,9.56
17:47:01.578125,10.82
17:47:01.593750,11.85
17:47:01.609375,12.36
17:47:01.625000,12.19
17:47:01.640625,11.52
17:47:01.656250,10.67
17:47:01.671875,10.02
17:47:01.687500,9.91
17:47:01.703125,10.43
17:47:01.718750,11.42
17:47:01.734375,12.51
17:47:01.750000,13.30
17:47:01.765625,13.50
17:47:01.781250,13.17
17:47:01.796875,12.66
17:47:01.812500,12.45
17:47:01.828125,12.92
17:47:01.843750,14.11
17:47:01.859375,15.69
17:47:01.875000,17.13
17:47:01.890625,17.91
17:47:01.906250,17.83
17:47:01.921875,17.06
17:47:01.937500,16.00
17:47:01.953125,15.13
17:47:01.968750,14.74
17:47:01.984375,14.93
17:47:02,15.53
17:47:02.015625,16.28
17:47:02.031250,16.91
17:47:02.046875,17.25
17:47:02.062500,17.23
17:47:02.078125,16.95
17:47:02.093750,16.60
17:47:02.109375,16.33
17:47:02.125000,16.22
17:47:02.140625,16.18
17:47:02.156250,15.96
17:47:02.171875,15.35
17:47:02.187500,14.29
17:47:02.203125,12.92
17:47:02.218750,11.54
17:47:02.234375,10.53
17:47:02.250000,10.05
17:47:02.265625,10.05
17:47:02.281250,10.23
17:47:02.296875,10.27
17:47:02.312500,9.90
17:47:02.328125,9.11
17:47:02.343750,8.13
17:47:02.359375,7.30
17:47:02.375000,6.98
17:47:02.390625,7.31
17:47:02.406250,8.20
17:47:02.421875,9.40
17:47:02.437500,10.53
17:47:02.453125,11.31
17:47:02.468750,11.58
17:47:02.484375,11.41
17:47:02.500000,10.92
17:47:02.515625,10.30
17:47:02.531250,9.63
17:47:02.546875,8.93
17:47:02.562500,8.18
17:47:02.578125,7.35
17:47:02.593750,6.46
17:47:02.609375,5.62
17:47:02.625000,4.94
17:47:02.640625,4.53
17:47:02.656250,4.42
17:47:02.671875,4.55
17:47:02.687500,4.74
17:47:02.703125,4.82
17:47:02.718750,4.59
17:47:02.734375,3.95
17:47:02.750000,2.90
17:47:02.765625,1.52
17:47:02.781250,-0.08
17:47:02.796875,-1.76
17:47:02.812500,-3.39
17:47:02.828125,-4.87
17:47:02.843750,-6.12
17:47:02.859375,-7.17
17:47:02.875000,-8.15
17:47:02.890625,-9.20
17:47:02.906250,-10.39
17:47:02.921875,-11.61
17:47:02.937500,-12.56
17:47:02.953125,-12.83
17:47:02.968750,-12.12
17:47:02.984375,-10.31
17:47:03,-7.66
17:47:03.015625,-4.59
17:47:03.031250,-1.61
17:47:03.046875,0.90
17:47:03.062500,2.77
17:47:03.078125,4.07
17:47:03.093750,4.95
17:47:03.109375,5.54
17:47:03.125000,5.90
17:47:03.140625,6.00
17:47:03.156250,5.78
17:47:03.171875,5.28
17:47:03.187500,4.65
17:47:03.203125,4.12
17:47:03.218750,3.92
17:47:03.234375,4.12
17:47:03.250000,4.55
17:47:03.265625,4.87
17:47:03.281250,4.66
17:47:03.296875,3.72
17:47:03.312500,2.14
17:47:03.328125,0.30
17:47:03.343750,-1.29
17:47:03.359375,-2.26
17:47:03.375000,-2.51
17:47:03.390625,-2.23
17:47:03.406250,-1.75
17:47:03.421875,-1.39
17:47:03.437500,-1.26
17:47:03.453125,-1.32
17:47:03.468750,-1.40
17:47:03.484375,-1.37
17:47:03.500000,-1.26
17:47:03.515625,-1.17
17:47:03.531250,-1.22
17:47:03.546875,-1.47
17:47:03.562500,-1.90
17:47:03.578125,-2.37
17:47:03.593750,-2.65
17:47:03.609375,-2.57
17:47:03.625000,-2.16
17:47:03.640625,-1.74
17:47:03.656250,-1.83
17:47:03.671875,-2.90
17:47:03.687500,-5.02
17:47:03.703125,-7.74
17:47:03.718750,-10.23
17:47:03.734375,-11.64
17:47:03.750000,-11.54
17:47:03.765625,-10.05
17:47:03.781250,-7.77
17:47:03.796875,-5.39
17:47:03.812500,-3.38
17:47:03.828125,-1.81
17:47:03.843750,-0.52
17:47:03.859375,0.66
17:47:03.875000,1.70
17:47:03.890625,2.35
17:47:03.906250,2.34
17:47:03.921875,1.66
17:47:03.937500,0.52
17:47:03.953125,-0.63
17:47:03.968750,-1.38
17:47:03.984375,-1.52
17:47:04,-1.16
17:47:04.015625,-0.64
17:47:04.031250,-0.31
17:47:04.046875,-0.31
17:47:04.062500,-0.45
17:47:04.078125,-0.36
17:47:04.093750,0.33
17:47:04.109375,1.80
17:47:04.125000,3.79
17:47:04.140625,5.80
17:47:04.156250,7.23
17:47:04.171875,7.68
17:47:04.187500,7.13
17:47:04.203125,5.92
17:47:04.218750,4.58
17:47:04.234375,3.58
17:47:04.250000,3.14
17:47:04.265625,3.14
17:47:04.281250,3.28
17:47:04.296875,3.20
17:47:04.312500,2.70
17:47:04.328125,1.84
17:47:04.343750,0.75
17:47:04.359375,-0.44
17:47:04.375000,-1.75
17:47:04.390625,-3.27
17:47:04.406250,-5.06
17:47:04.421875,-6.98
17:47:04.437500,-8.74
17:47:04.453125,-10.00
17:47:04.468750,-10.63
17:47:04.484375,-10.75
17:47:04.500000,-10.66
17:47:04.515625,-10.63
17:47:04.531250,-10.83
17:47:04.546875,-11.20
17:47:04.562500,-11.56
17:47:04.578125,-11.76
17:47:04.593750,-11.71
17:47:04.609375,-11.40
17:47:04.625000,-10.79
17:47:04.640625,-9.86
17:47:04.656250,-8.60
17:47:04.671875,-7.05
17:47:04.687500,-5.35
17:47:04.703125,-3.66
17:47:04.718750,-2.09
17:47:04.734375,-0.66
17:47:04.750000,0.68
17:47:04.765625,2.03
17:47:04.781250,3.33
17:47:04.796875,4.49
17:47:04.812500,5.31
17:47:04.828125,5.67
17:47:04.843750,5.54
17:47:04.859375,5.03
17:47:04.875000,4.31
17:47:04.890625,3.54
17:47:04.906250,2.84
17:47:04.921875,2.29
17:47:04.937500,1.95
17:47:04.953125,1.89
17:47:04.968750,2.12
17:47:04.984375,2.57
17:47:05,3.10
17:47:05.015625,3.50
17:47:05.031250,3.59
17:47:05.046875,3.31
17:47:05.062500,2.73
17:47:05.078125,2.03
17:47:05.093750,1.41
17:47:05.109375,0.95
17:47:05.125000,0.66
17:47:05.140625,0.44
17:47:05.156250,0.16
17:47:05.171875,-0.26
17:47:05.187500,-0.83
17:47:05.203125,-1.48
17:47:05.218750,-2.08
17:47:05.234375,-2.53
17:47:05.250000,-2.79
17:47:05.265625,-2.90
17:47:05.281250,-2.99
17:47:05.296875,-3.23
17:47:05.312500,-3.76
17:47:05.328125,-4.66
17:47:05.343750,-5.90
17:47:05.359375,-7.29
17:47:05.375000,-8.55
17:47:05.390625,-9.41
17:47:05.406250,-9.67
17:47:05.421875,-9.32
17:47:05.437500,-8.48
17:47:05.453125,-7.35
17:47:05.468750,-6.08
17:47:05.484375,-4.78
17:47:05.500000,-3.43
17:47:05.515625,-2.02
17:47:05.531250,-0.57
17:47:05.546875,0.85
17:47:05.562500,2.15
17:47:05.578125,3.25
17:47:05.593750,4.15
17:47:05.609375,4.91
17:47:05.625000,5.61
17:47:05.640625,6.27
17:47:05.656250,6.83
17:47:05.671875,7.16
17:47:05.687500,7.17
17:47:05.703125,6.83
17:47:05.718750,6.18
17:47:05.734375,5.33
17:47:05.750000,4.44
17:47:05.765625,3.66
17:47:05.781250,3.11
17:47:05.796875,2.89
17:47:05.812500,3.06
17:47:05.828125,3.61
17:47:05.843750,4.48
17:47:05.859375,5.50
17:47:05.875000,6.44
17:47:05.890625,7.05
17:47:05.906250,7.18
17:47:05.921875,6.79
17:47:05.937500,5.98
17:47:05.953125,4.97
17:47:05.968750,4.00
17:47:05.984375,3.18
17:47:06,2.55
17:47:06.015625,2.09
17:47:06.031250,1.78
17:47:06.046875,1.64
17:47:06.062500,1.72
17:47:06.078125,2.06
17:47:06.093750,2.60
17:47:06.109375,3.18
17:47:06.125000,3.62
17:47:06.140625,3.71
17:47:06.156250,3.39
17:47:06.171875,2.74
17:47:06.187500,1.92
17:47:06.203125,1.11
17:47:06.218750,0.43
17:47:06.234375,-0.17
17:47:06.250000,-0.85
17:47:06.265625,-1.82
17:47:06.281250,-3.23
17:47:06.296875,-5.06
17:47:06.312500,-7.05
17:47:06.328125,-8.77
17:47:06.343750,-9.67
17:47:06.359375,-9.37
17:47:06.375000,-7.76
17:47:06.390625,-5.06
17:47:06.406250,-1.73
17:47:06.421875,1.72
17:47:06.437500,4.85
17:47:06.453125,7.46
17:47:06.468750,9.54
17:47:06.484375,11.19
17:47:06.500000,12.51
17:47:06.515625,13.54
17:47:06.531250,14.26
17:47:06.546875,14.66
17:47:06.562500,14.79
17:47:06.578125,14.82
17:47:06.593750,14.93
17:47:06.609375,15.27
17:47:06.625000,15.87
17:47:06.640625,16.62
17:47:06.656250,17.35
17:47:06.671875,17.90
17:47:06.687500,18.24
17:47:06.703125,18.44
17:47:06.718750,18.61
17:47:06.734375,18.83
17:47:06.750000,19.06
17:47:06.765625,19.17
17:47:06.781250,19.02
17:47:06.796875,18.48
17:47:06.812500,17.54
17:47:06.828125,16.22
17:47:06.843750,14.63
17:47:06.859375,12.92
17:47:06.875000,11.22
17:47:06.890625,9.62
17:47:06.906250,8.14
17:47:06.921875,6.75
17:47:06.937500,5.33
17:47:06.953125,3.77
17:47:06.968750,1.96
17:47:06.984375,-0.10
17:47:07,-2.42
17:47:07.015625,-4.94
17:47:07.031250,-7.67
17:47:07.046875,-10.61
17:47:07.062500,-13.75
17:47:07.078125,-17.00
17:47:07.093750,-20.22
17:47:07.109375,-23.22
17:47:07.125000,-25.92
17:47:07.140625,-28.29
17:47:07.156250,-30.37
17:47:07.171875,-32.11
17:47:07.187500,-33.38
17:47:07.203125,-33.94
17:47:07.218750,-33.56
17:47:07.234375,-32.10
17:47:07.250000,-29.62
17:47:07.265625,-26.31
17:47:07.281250,-22.48
17:47:07.296875,-18.42
17:47:07.312500,-14.35
17:47:07.328125,-10.39
17:47:07.343750,-6.65
17:47:07.359375,-3.22
17:47:07.375000,-0.23
17:47:07.390625,2.22
17:47:07.406250,4.01
17:47:07.421875,5.14
17:47:07.437500,5.72
17:47:07.453125,5.96
17:47:07.468750,6.10
17:47:07.484375,6.29
17:47:07.500000,6.55
17:47:07.515625,6.78
17:47:07.531250,6.86
17:47:07.546875,6.77
17:47:07.562500,6.69
17:47:07.578125,6.82
17:47:07.593750,7.29
17:47:07.609375,8.01
17:47:07.625000,8.72
17:47:07.640625,9.16
17:47:07.656250,9.21
17:47:07.671875,8.93
17:47:07.687500,8.52
17:47:07.703125,8.11
17:47:07.718750,7.65
17:47:07.734375,6.95
17:47:07.750000,5.87
17:47:07.765625,4.43
17:47:07.781250,2.82
17:47:07.796875,1.36
17:47:07.812500,0.23
17:47:07.828125,-0.62
17:47:07.843750,-1.36
17:47:07.859375,-2.25
17:47:07.875000,-3.45
17:47:07.890625,-5.02
17:47:07.906250,-6.90
17:47:07.921875,-9.04
17:47:07.937500,-11.39
17:47:07.953125,-13.83
17:47:07.968750,-16.18
17:47:07.984375,-18.23
17:47:08,-19.78
17:47:08.015625,-20.84
17:47:08.031250,-21.56
17:47:08.046875,-22.20
17:47:08.062500,-22.87
17:47:08.078125,-23.42
17:47:08.093750,-23.46
17:47:08.109375,-22.52
17:47:08.125000,-20.33
17:47:08.140625,-16.98
17:47:08.156250,-12.92
17:47:08.171875,-8.73
17:47:08.187500,-4.89
17:47:08.203125,-1.65
17:47:08.218750,0.95
17:47:08.234375,2.94
17:47:08.250000,4.28
17:47:08.265625,4.93
17:47:08.281250,4.83
17:47:08.296875,4.06
17:47:08.312500,2.93
17:47:08.328125,1.77
17:47:08.343750,0.82
17:47:08.359375,0.15
17:47:08.375000,-0.34
17:47:08.390625,-0.89
17:47:08.406250,-1.64
17:47:08.421875,-2.66
17:47:08.437500,-3.86
17:47:08.453125,-5.09
17:47:08.468750,-6.19
17:47:08.484375,-6.96
17:47:08.500000,-7.23
17:47:08.515625,-6.93
17:47:08.531250,-6.14
17:47:08.546875,-5.15
17:47:08.562500,-4.40
17:47:08.578125,-4.36
17:47:08.593750,-5.24
17:47:08.609375,-6.96
17:47:08.625000,-9.01
17:47:08.640625,-10.68
17:47:08.656250,-11.32
17:47:08.671875,-10.84
17:47:08.687500,-9.73
17:47:08.703125,-9.09
17:47:08.718750,-10.00
17:47:08.734375,-12.95
17:47:08.750000,-17.37
17:47:08.765625,-21.61
17:47:08.781250,-23.59
17:47:08.796875,-21.66
17:47:08.812500,-15.36
17:47:08.828125,-5.78
17:47:08.843750,4.77
17:47:08.859375,13.58
17:47:08.875000,18.56
17:47:08.890625,18.92
17:47:08.906250,15.44
17:47:08.921875,10.10
17:47:08.937500,5.41
17:47:08.953125,3.56
17:47:08.968750,6.02
17:47:08.984375,13.35
17:47:09,25.15
17:47:09.015625,39.97
17:47:09.031250,55.09
17:47:09.046875,66.85
17:47:09.062500,71.35
17:47:09.078125,65.85
17:47:09.093750,50.08
17:47:09.109375,26.49
17:47:09.125000,-1.14
17:47:09.140625,-29.80
17:47:09.156250,-58.82
17:47:09.171875,-89.57
17:47:09.187500,-122.96
17:47:09.203125,-156.88
17:47:09.218750,-185.01
17:47:09.234375,-198.52
17:47:09.250000,-189.87
17:47:09.265625,-156.46
17:47:09.281250,-102.20
17:47:09.296875,-35.96
17:47:09.312500,32.09
17:47:09.328125,94.16
17:47:09.343750,146.24
17:47:09.359375,187.55
17:47:09.375000,218.87
17:47:09.390625,240.86
17:47:09.406250,254.00
17:47:09.421875,259.19
17:47:09.437500,258.23
17:47:09.453125,253.12
17:47:09.468750,245.33
17:47:09.484375,235.43
17:47:09.500000,223.52
17:47:09.515625,210.03
17:47:09.531250,196.07
17:47:09.546875,183.13
17:47:09.562500,171.99
17:47:09.578125,162.41
17:47:09.593750,153.14
17:47:09.609375,143.13
17:47:09.625000,132.37
17:47:09.640625,121.99
17:47:09.656250,113.10
17:47:09.671875,105.33
17:47:09.687500,96.76
17:47:09.703125,85.00
17:47:09.718750,69.32
17:47:09.734375,51.83
17:47:09.750000,37.02
17:47:09.765625,29.49
17:47:09.781250,31.67
17:47:09.796875,42.58
17:47:09.812500,58.49
17:47:09.828125,74.82
17:47:09.843750,87.41
17:47:09.859375,93.10
17:47:09.875000,89.28
17:47:09.890625,73.70
17:47:09.906250,45.19
17:47:09.921875,5.45
17:47:09.937500,-39.41
17:47:09.953125,-79.03
17:47:09.968750,-101.02
17:47:09.984375,-95.22
17:47:10,-57.81
17:47:10.015625,6.50
17:47:10.031250,85.37
17:47:10.046875,162.93
17:47:10.062500,224.81
17:47:10.078125,262.70
17:47:10.093750,275.87
17:47:10.109375,269.85
17:47:10.125000,252.97
17:47:10.140625,232.71
17:47:10.156250,213.45
17:47:10.171875,196.23
17:47:10.187500,180.17
17:47:10.203125,164.10
17:47:10.218750,147.71
17:47:10.234375,131.41
17:47:10.250000,115.57
17:47:10.265625,99.47
17:47:10.281250,81.42
17:47:10.296875,59.51
17:47:10.312500,32.75
17:47:10.328125,1.85
17:47:10.343750,-30.80
17:47:10.359375,-61.76
17:47:10.375000,-87.74
17:47:10.390625,-106.57
17:47:10.406250,-117.72
17:47:10.421875,-122.22
17:47:10.437500,-122.17
17:47:10.453125,-120.08
17:47:10.468750,-118.15
17:47:10.484375,-117.89
17:47:10.500000,-119.97
17:47:10.515625,-124.39
17:47:10.531250,-130.94
17:47:10.546875,-139.39
17:47:10.562500,-149.79
17:47:10.578125,-162.55
17:47:10.593750,-178.29
17:47:10.609375,-197.92
17:47:10.625000,-222.79
17:47:10.640625,-254.83
17:47:10.656250,-296.09
17:47:10.671875,-347.46
17:47:10.687500,-406.86
17:47:10.703125,-468.27
17:47:10.718750,-522.25
17:47:10.734375,-558.72
17:47:10.750000,-571.02
17:47:10.765625,-558.02
17:47:10.781250,-524.19
17:47:10.796875,-477.32
17:47:10.812500,-424.88
17:47:10.828125,-371.14
17:47:10.843750,-316.20
17:47:10.859375,-257.00
17:47:10.875000,-189.62
17:47:10.890625,-111.50
17:47:10.906250,-21.62
17:47:10.921875,79.24
17:47:10.937500,188.21
17:47:10.953125,299.61
17:47:10.968750,404.77
17:47:10.984375,493.47
17:47:11,556.74
17:47:11.015625,589.61
17:47:11.031250,591.21
17:47:11.046875,565.80
17:47:11.062500,520.75
17:47:11.078125,463.97
17:47:11.093750,401.72
17:47:11.109375,337.84
17:47:11.125000,274.50
17:47:11.140625,213.60
17:47:11.156250,156.60
17:47:11.171875,101.26
17:47:11.187500,45.55
17:47:11.203125,-10.88
17:47:11.218750,-65.85
17:47:11.234375,-115.77
17:47:11.250000,-157.38
17:47:11.265625,-188.73
17:47:11.281250,-208.52
17:47:11.296875,-217.83
17:47:11.312500,-225.69
17:47:11.328125,-239.89
17:47:11.343750,-263.40
17:47:11.359375,-293.23
17:47:11.375000,-323.77
17:47:11.390625,-350.90
17:47:11.406250,-373.45
17:47:11.421875,-391.15
17:47:11.437500,-406.56
17:47:11.453125,-432.96
17:47:11.468750,-479.64
17:47:11.484375,-547.16
17:47:11.500000,-626.64
17:47:11.515625,-705.88
17:47:11.531250,-776.36
17:47:11.546875,-835.46
17:47:11.562500,-882.53
17:47:11.578125,-921.47
17:47:11.593750,-969.32
17:47:11.609375,-1037.31
17:47:11.625000,-1125.03
17:47:11.640625,-1220.16
17:47:11.656250,-1306.84
17:47:11.671875,-1374.86
17:47:11.687500,-1422.37
17:47:11.703125,-1450.33
17:47:11.718750,-1373.37
17:47:11.734375,-1144.44
17:47:11.750000,-776.05
17:47:11.765625,-341.95
17:47:11.781250,71.80
17:47:11.796875,412.34
17:47:11.812500,665.27
17:47:11.828125,823.98
17:47:11.843750,918.42
17:47:11.859375,967.36
17:47:11.875000,967.33
17:47:11.890625,915.22
17:47:11.906250,816.92
17:47:11.921875,689.32
17:47:11.937500,556.98
17:47:11.953125,445.86
17:47:11.968750,373.71
17:47:11.984375,348.86
17:47:12,361.93
17:47:12.015625,384.36
17:47:12.031250,390.91
17:47:12.046875,370.76
17:47:12.062500,330.18
17:47:12.078125,284.41
17:47:12.093750,246.27
17:47:12.109375,218.90
17:47:12.125000,202.56
17:47:12.140625,191.51
17:47:12.156250,174.91
17:47:12.171875,147.66
17:47:12.187500,112.47
17:47:12.203125,78.26
17:47:12.218750,54.67
17:47:12.234375,46.89
17:47:12.250000,54.46
17:47:12.265625,72.80
17:47:12.281250,95.30
17:47:12.296875,114.86
17:47:12.312500,128.80
17:47:12.328125,139.07
17:47:12.343750,150.49
17:47:12.359375,167.35
17:47:12.375000,190.31
17:47:12.390625,215.86
17:47:12.406250,239.12
17:47:12.421875,255.14
17:47:12.437500,260.80
17:47:12.453125,257.12
17:47:12.468750,248.63
17:47:12.484375,241.38
17:47:12.500000,240.48
17:47:12.515625,248.13
17:47:12.531250,263.24
17:47:12.546875,282.77
17:47:12.562500,302.37
17:47:12.578125,317.84
17:47:12.593750,326.18
17:47:12.609375,326.20
17:47:12.625000,319.21
17:47:12.640625,309.33
17:47:12.656250,302.58
17:47:12.671875,304.82
17:47:12.687500,319.09
17:47:12.703125,343.68
17:47:12.718750,371.58
17:47:12.734375,392.76
17:47:12.750000,397.49
17:47:12.765625,379.52
17:47:12.781250,337.79
17:47:12.796875,276.06
17:47:12.812500,201.42
17:47:12.828125,122.20
17:47:12.843750,46.36
17:47:12.859375,-19.58
17:47:12.875000,-70.89
17:47:12.890625,-104.81
17:47:12.906250,-120.26
17:47:12.921875,-117.13
17:47:12.937500,-96.17
17:47:12.953125,-59.31
17:47:12.968750,-10.53
17:47:12.984375,43.48
17:47:13,93.15
17:47:13.015625,128.11
17:47:13.031250,140.36
17:47:13.046875,127.81
17:47:13.062500,95.38
17:47:13.078125,52.95
17:47:13.093750,11.01
17:47:13.109375,-23.72
17:47:13.125000,-50.22
17:47:13.140625,-71.27
17:47:13.156250,-89.16
17:47:13.171875,-102.23
17:47:13.187500,-104.46
17:47:13.203125,-88.92
17:47:13.218750,-53.33
17:47:13.234375,-3.57
17:47:13.250000,47.09
17:47:13.265625,83.23
17:47:13.281250,94.38
17:47:13.296875,79.96
17:47:13.312500,49.03
17:47:13.328125,15.41
17:47:13.343750,-9.59
17:47:13.359375,-22.16
17:47:13.375000,-26.23
17:47:13.390625,-29.60
17:47:13.406250,-39.12
17:47:13.421875,-56.77
17:47:13.437500,-79.19
17:47:13.453125,-100.44
17:47:13.468750,-115.71
17:47:13.484375,-123.72
17:47:13.500000,-127.08
17:47:13.515625,-130.27
17:47:13.531250,-136.67
17:47:13.546875,-147.22
17:47:13.562500,-159.92
17:47:13.578125,-170.65
17:47:13.593750,-175.16
17:47:13.609375,-170.87
17:47:13.625000,-158.27
17:47:13.640625,-140.52
17:47:13.656250,-121.30
17:47:13.671875,-101.81
17:47:13.687500,-80.93
17:47:13.703125,-56.58
17:47:13.718750,-28.11
17:47:13.734375,1.75
17:47:13.750000,27.93
17:47:13.765625,45.88
17:47:13.781250,54.88
17:47:13.796875,59.18
17:47:13.812500,66.31
17:47:13.828125,81.80
17:47:13.843750,105.90
17:47:13.859375,133.29
17:47:13.875000,156.17
17:47:13.890625,169.18
17:47:13.906250,171.99
17:47:13.921875,168.88
17:47:13.937500,159.11
17:47:13.953125,143.70
17:47:13.968750,124.81
17:47:13.984375,105.56
17:47:14,88.99
17:47:14.015625,76.66
17:47:14.031250,69.12
17:47:14.046875,66.11
17:47:14.062500,66.31
17:47:14.078125,67.31
17:47:14.093750,67.55
17:47:14.109375,63.57
17:47:14.125000,52.75
17:47:14.140625,34.39
17:47:14.156250,8.42
17:47:14.171875,-24.02
17:47:14.187500,-61.53
17:47:14.203125,-103.47
17:47:14.218750,-143.86
17:47:14.234375,-178.03
17:47:14.250000,-204.27
17:47:14.265625,-222.81
17:47:14.281250,-234.09
17:47:14.296875,-239.42
17:47:14.312500,-239.53
17:47:14.328125,-234.61
17:47:14.343750,-224.86
17:47:14.359375,-211.26
17:47:14.375000,-195.24
17:47:14.390625,-179.07
17:47:14.406250,-169.53
17:47:14.421875,-164.43
17:47:14.437500,-161.48
17:47:14.453125,-158.64
17:47:14.468750,-154.37
17:47:14.484375,-147.82
17:47:14.500000,-139.47
17:47:14.515625,-130.46
17:47:14.531250,-123.09
17:47:14.546875,-118.57
17:47:14.562500,-116.21
17:47:14.578125,-115.56
17:47:14.593750,-115.93
17:47:14.609375,-116.98
17:47:14.625000,-113.97
17:47:14.640625,-105.31
17:47:14.656250,-85.24
17:47:14.671875,-53.01
17:47:14.687500,-11.18
17:47:14.703125,35.57
17:47:14.718750,81.30
17:47:14.734375,121.58
17:47:14.750000,154.22
17:47:14.765625,178.81
17:47:14.781250,195.37
17:47:14.796875,204.66
17:47:14.812500,206.66
17:47:14.828125,202.49
17:47:14.843750,194.37
17:47:14.859375,184.07
17:47:14.875000,172.84
17:47:14.890625,161.13
17:47:14.906250,148.67
17:47:14.921875,134.45
17:47:14.937500,119.03
17:47:14.953125,100.67
17:47:14.968750,79.41
17:47:14.984375,56.66
17:47:15,33.91
17:47:15.015625,12.16
17:47:15.031250,-8.41
17:47:15.046875,-28.36
17:47:15.062500,-48.66
17:47:15.078125,-69.52
17:47:15.093750,-91.47
17:47:15.109375,-113.63
17:47:15.125000,-134.61
17:47:15.140625,-153.38
17:47:15.156250,-169.96
17:47:15.171875,-185.61
17:47:15.187500,-202.76
17:47:15.203125,-225.00
17:47:15.218750,-252.07
17:47:15.234375,-285.56
17:47:15.250000,-325.77
17:47:15.265625,-370.56
17:47:15.281250,-414.77
17:47:15.296875,-450.66
17:47:15.312500,-469.97
17:47:15.328125,-466.86
17:47:15.343750,-440.25
17:47:15.359375,-394.35
17:47:15.375000,-337.80
17:47:15.390625,-279.53
17:47:15.406250,-226.07
17:47:15.421875,-180.26
17:47:15.437500,-141.89
17:47:15.453125,-109.42
17:47:15.468750,-81.70
17:47:15.484375,-58.36
17:47:15.500000,-39.31
17:47:15.515625,-24.44
17:47:15.531250,-12.41
17:47:15.546875,-1.30
17:47:15.562500,10.45
17:47:15.578125,23.28
17:47:15.593750,36.43
17:47:15.609375,48.30
17:47:15.625000,57.34
17:47:15.640625,62.86
17:47:15.656250,64.89
17:47:15.671875,64.50
17:47:15.687500,63.04
17:47:15.703125,61.53
17:47:15.718750,60.22
17:47:15.734375,58.60
17:47:15.750000,55.74
17:47:15.765625,50.90
17:47:15.781250,43.89
17:47:15.796875,35.17
17:47:15.812500,25.73
17:47:15.828125,16.77
17:47:15.843750,9.14
17:47:15.859375,3.17
17:47:15.875000,-0.83
17:47:15.890625,-3.03
17:47:15.906250,-3.97
17:47:15.921875,-4.35
17:47:15.937500,-4.81
17:47:15.953125,-5.49
17:47:15.968750,-6.24
17:47:15.984375,-6.83
17:47:16,-7.24
17:47:16.015625,-7.00
17:47:16.031250,-5.81
17:47:16.046875,-3.81
17:47:16.062500,-1.39
17:47:16.078125,1.00
17:47:16.093750,3.18
17:47:16.109375,5.25
17:47:16.125000,7.45
17:47:16.140625,9.90
17:47:16.156250,14.12
17:47:16.171875,21.20
17:47:16.187500,31.29
17:47:16.203125,43.45
17:47:16.218750,56.34
17:47:16.234375,68.96
17:47:16.250000,80.86
17:47:16.265625,91.99
17:47:16.281250,102.20
17:47:16.296875,115.14
17:47:16.312500,133.59
17:47:16.328125,157.65
17:47:16.343750,184.50
17:47:16.359375,210.15
17:47:16.375000,231.67
17:47:16.390625,247.74
17:47:16.406250,258.30
17:47:16.421875,263.23
17:47:16.437500,270.66
17:47:16.453125,286.96
17:47:16.468750,313.16
17:47:16.484375,344.20
17:47:16.500000,372.73
17:47:16.515625,393.40
17:47:16.531250,404.09
17:47:16.546875,405.22
17:47:16.562500,396.89
17:47:16.578125,392.84
17:47:16.593750,403.96
17:47:16.609375,432.56
17:47:16.625000,471.41
17:47:16.640625,509.81
17:47:16.656250,540.53
17:47:16.671875,561.61
17:47:16.687500,575.31
17:47:16.703125,583.13
17:47:16.718750,604.53
17:47:16.734375,654.68
17:47:16.750000,736.87
17:47:16.765625,841.26
17:47:16.781250,952.88
17:47:16.796875,1060.62
17:47:16.812500,1159.83
17:47:16.828125,1251.32
17:47:16.843750,1240.38
17:47:16.859375,1073.29
17:47:16.875000,757.84
17:47:16.890625,365.76
17:47:16.906250,-17.71
17:47:16.921875,-340.32
17:47:16.937500,-588.82
17:47:16.953125,-772.76
17:47:16.968750,-891.58
17:47:16.984375,-973.04
17:47:17,-1018.98
17:47:17.015625,-1027.01
17:47:17.031250,-1000.77
17:47:17.046875,-953.36
17:47:17.062500,-900.33
17:47:17.078125,-851.10
17:47:17.093750,-815.81
17:47:17.109375,-794.81
17:47:17.125000,-788.25
17:47:17.140625,-780.23
17:47:17.156250,-758.28
17:47:17.171875,-719.39
17:47:17.187500,-670.79
17:47:17.203125,-623.51
17:47:17.218750,-585.42
17:47:17.234375,-559.22
17:47:17.250000,-542.60
17:47:17.265625,-534.29
17:47:17.281250,-522.73
17:47:17.296875,-499.03
17:47:17.312500,-460.47
17:47:17.328125,-411.18
17:47:17.343750,-358.08
17:47:17.359375,-306.44
17:47:17.375000,-258.68
17:47:17.390625,-214.17
17:47:17.406250,-173.42
17:47:17.421875,-132.04
17:47:17.437500,-87.38
17:47:17.453125,-39.86
17:47:17.468750,7.10
17:47:17.484375,49.46
17:47:17.500000,84.97
17:47:17.515625,113.57
17:47:17.531250,137.43
17:47:17.546875,158.04
17:47:17.562500,178.23
17:47:17.578125,199.36
17:47:17.593750,221.32
17:47:17.609375,242.64
17:47:17.625000,261.78
17:47:17.640625,278.41
17:47:17.656250,293.41
17:47:17.671875,308.86
17:47:17.687500,325.97
17:47:17.703125,344.76
17:47:17.718750,363.82
17:47:17.734375,382.03
17:47:17.750000,398.05
17:47:17.765625,411.07
17:47:17.781250,421.36
17:47:17.796875,430.22
17:47:17.812500,440.98
17:47:17.828125,457.23
17:47:17.843750,481.53
17:47:17.859375,514.60
17:47:17.875000,556.54
17:47:17.890625,603.17
17:47:17.906250,646.14
17:47:17.921875,675.49
17:47:17.937500,682.79
17:47:17.953125,666.47
17:47:17.968750,630.62
17:47:17.984375,582.40
17:47:18,529.25
17:47:18.015625,479.53
17:47:18.031250,436.11
17:47:18.046875,396.29
17:47:18.062500,354.72
17:47:18.078125,306.67
17:47:18.093750,254.83
17:47:18.109375,205.81
17:47:18.125000,166.65
17:47:18.140625,141.88
17:47:18.156250,135.45
17:47:18.171875,143.83
17:47:18.187500,157.11
17:47:18.203125,164.01
17:47:18.218750,156.31
17:47:18.234375,137.24
17:47:18.250000,115.45
17:47:18.265625,99.32
17:47:18.281250,64.46
17:47:18.296875,0.79
17:47:18.312500,-85.02
17:47:18.328125,-174.41
17:47:18.343750,-238.46
17:47:18.359375,-281.32
17:47:18.375000,-308.49
17:47:18.390625,-323.91
17:47:18.406250,-332.93
17:47:18.421875,-337.79
17:47:18.437500,-334.46
17:47:18.453125,-319.85
17:47:18.468750,-294.55
17:47:18.484375,-264.45
17:47:18.500000,-240.80
17:47:18.515625,-230.87
17:47:18.531250,-237.26
17:47:18.546875,-255.52
17:47:18.562500,-274.12
17:47:18.578125,-276.46
17:47:18.593750,-253.06
17:47:18.609375,-207.31
17:47:18.625000,-153.92
17:47:18.640625,-112.06
17:47:18.656250,-92.10
17:47:18.671875,-93.98
17:47:18.687500,-109.45
17:47:18.703125,-127.51
17:47:18.718750,-138.72
17:47:18.734375,-141.22
17:47:18.750000,-139.80
17:47:18.765625,-141.38
17:47:18.781250,-150.80
17:47:18.796875,-166.46
17:47:18.812500,-184.03
17:47:18.828125,-199.99
17:47:18.843750,-213.23
17:47:18.859375,-224.13
17:47:18.875000,-234.46
17:47:18.890625,-245.48
17:47:18.906250,-256.69
17:47:18.921875,-265.65
17:47:18.937500,-267.83
17:47:18.953125,-259.34
17:47:18.968750,-238.87
17:47:18.984375,-208.10
17:47:19,-171.23
17:47:19.015625,-134.40
17:47:19.031250,-104.24
17:47:19.046875,-86.31
17:47:19.062500,-83.95
17:47:19.078125,-97.11
17:47:19.093750,-122.77
17:47:19.109375,-155.41
17:47:19.125000,-187.72
17:47:19.140625,-211.46
17:47:19.156250,-219.02
17:47:19.171875,-204.92
17:47:19.187500,-167.30
17:47:19.203125,-108.66
17:47:19.218750,-35.37
17:47:19.234375,43.92
17:47:19.250000,120.60
17:47:19.265625,188.10
17:47:19.281250,242.89
17:47:19.296875,284.06
17:47:19.312500,311.76
17:47:19.328125,325.98
17:47:19.343750,325.95
17:47:19.359375,310.62
17:47:19.375000,279.70
17:47:19.390625,234.57
17:47:19.406250,179.08
17:47:19.421875,119.77
17:47:19.437500,65.66
17:47:19.453125,26.86
17:47:19.468750,11.66
17:47:19.484375,23.38
17:47:19.500000,58.17
17:47:19.515625,105.33
17:47:19.531250,150.81
17:47:19.546875,182.39
17:47:19.562500,193.92
17:47:19.578125,186.65
17:47:19.593750,166.88
17:47:19.609375,141.54
17:47:19.625000,114.40
17:47:19.640625,85.50
17:47:19.656250,53.07
17:47:19.671875,16.64
17:47:19.687500,-21.24
17:47:19.703125,-56.11
17:47:19.718750,-84.30
17:47:19.734375,-105.56
17:47:19.750000,-123.43
17:47:19.765625,-143.37
17:47:19.781250,-169.93
17:47:19.796875,-204.75
17:47:19.812500,-246.38
17:47:19.828125,-291.04
17:47:19.843750,-333.95
17:47:19.859375,-370.14
17:47:19.875000,-394.83
17:47:19.890625,-404.26
17:47:19.906250,-397.14
17:47:19.921875,-375.94
17:47:19.937500,-346.89
17:47:19.953125,-317.73
17:47:19.968750,-294.23
17:47:19.984375,-277.48
17:47:20,-263.57
17:47:20.015625,-246.25
17:47:20.031250,-220.53
17:47:20.046875,-185.26
17:47:20.062500,-143.38
17:47:20.078125,-100.17
17:47:20.093750,-60.70
17:47:20.109375,-28.10
17:47:20.125000,-3.24
17:47:20.140625,14.65
17:47:20.156250,26.90
17:47:20.171875,34.61
17:47:20.187500,38.24
17:47:20.203125,37.62
17:47:20.218750,32.26
17:47:20.234375,22.08
17:47:20.250000,8.05
17:47:20.265625,-7.53
17:47:20.281250,-21.59
17:47:20.296875,-31.50
17:47:20.312500,-36.37
17:47:20.328125,-37.12
17:47:20.343750,-35.50
17:47:20.359375,-32.65
17:47:20.375000,-28.29
17:47:20.390625,-21.05
17:47:20.406250,-9.76
17:47:20.421875,5.38
17:47:20.437500,22.55
17:47:20.453125,38.88
17:47:20.468750,51.49
17:47:20.484375,58.26
17:47:20.500000,58.40
17:47:20.515625,52.27
17:47:20.531250,41.13
17:47:20.546875,26.80
17:47:20.562500,11.31
17:47:20.578125,-3.34
17:47:20.593750,-15.55
17:47:20.609375,-24.40
17:47:20.625000,-29.74
17:47:20.640625,-32.17
17:47:20.656250,-32.65
17:47:20.671875,-32.21
17:47:20.687500,-31.53
17:47:20.703125,-30.79
17:47:20.718750,-29.81
17:47:20.734375,-28.18
17:47:20.750000,-25.63
17:47:20.765625,-22.07
17:47:20.781250,-17.75
17:47:20.796875,-13.02
17:47:20.812500,-8.26
17:47:20.828125,-3.85
17:47:20.843750,-0.10
17:47:20.859375,2.60
17:47:20.875000,3.78
17:47:20.890625,3.05
17:47:20.906250,0.58
17:47:20.921875,-2.44
17:47:20.937500,-4.05
17:47:20.953125,-2.31
17:47:20.968750,3.60
17:47:20.984375,12.63
17:47:21,22.00
17:47:21.015625,28.46
17:47:21.031250,29.77
17:47:21.046875,25.73
17:47:21.062500,18.13
17:47:21.078125,9.61
17:47:21.093750,2.30
17:47:21.109375,-3.01
17:47:21.125000,-6.65
17:47:21.140625,-9.27
17:47:21.156250,-10.99
17:47:21.171875,-11.19
17:47:21.187500,-9.02
17:47:21.203125,-4.17
17:47:21.218750,2.56
17:47:21.234375,9.62
17:47:21.250000,15.35
17:47:21.265625,18.84
17:47:21.281250,20.11
17:47:21.296875,20.13
17:47:21.312500,20.16
17:47:21.328125,21.01
17:47:21.343750,22.77
17:47:21.359375,24.80
17:47:21.375000,26.20
17:47:21.390625,26.32
17:47:21.406250,25.06
17:47:21.421875,22.91
17:47:21.437500,20.70
17:47:21.453125,19.15
17:47:21.468750,18.59
17:47:21.484375,18.88
17:47:21.500000,19.55
17:47:21.515625,20.04
17:47:21.531250,19.79
17:47:21.546875,18.38
17:47:21.562500,15.46
17:47:21.578125,10.85
17:47:21.593750,4.63
17:47:21.609375,-2.76
17:47:21.625000,-10.47
17:47:21.640625,-17.61
17:47:21.656250,-23.48
17:47:21.671875,-27.97
17:47:21.687500,-31.48
17:47:21.703125,-34.57
17:47:21.718750,-37.55
17:47:21.734375,-40.20
17:47:21.750000,-41.89
17:47:21.765625,-41.97
17:47:21.781250,-40.20
17:47:21.796875,-36.95
17:47:21.812500,-33.11
17:47:21.828125,-29.55
17:47:21.843750,-26.81
17:47:21.859375,-24.81
17:47:21.875000,-22.97
17:47:21.890625,-20.54
17:47:21.906250,-16.93
17:47:21.921875,-11.91
17:47:21.937500,-5.58
17:47:21.953125,1.57
17:47:21.968750,8.83
17:47:21.984375,15.28
17:47:22,20.04
17:47:22.015625,22.51
17:47:22.031250,22.70
17:47:22.046875,21.50
17:47:22.062500,20.41
17:47:22.078125,21.04
17:47:22.093750,24.34
17:47:22.109375,30.21
17:47:22.125000,37.46
17:47:22.140625,44.52
17:47:22.156250,50.17
17:47:22.171875,54.04
17:47:22.187500,56.72
17:47:22.203125,59.12
17:47:22.218750,61.87
17:47:22.234375,64.89
17:47:22.250000,67.68
17:47:22.265625,69.88
17:47:22.281250,71.79
17:47:22.296875,74.26
17:47:22.312500,78.07
17:47:22.328125,83.23
17:47:22.343750,88.88
17:47:22.359375,93.91
17:47:22.375000,98.11
17:47:22.390625,102.79
17:47:22.406250,110.51
17:47:22.421875,123.73
17:47:22.437500,143.33
17:47:22.453125,167.46
17:47:22.468750,192.07
17:47:22.484375,212.35
17:47:22.500000,224.98
17:47:22.515625,229.63
17:47:22.531250,229.13
17:47:22.546875,228.12
17:47:22.562500,230.83
17:47:22.578125,239.57
17:47:22.593750,254.62
17:47:22.609375,275.80
17:47:22.625000,303.96
17:47:22.640625,341.35
17:47:22.656250,389.89
17:47:22.671875,448.53
17:47:22.687500,511.53
17:47:22.703125,569.18
17:47:22.718750,611.24
17:47:22.734375,631.23
17:47:22.750000,629.24
17:47:22.765625,611.28
17:47:22.781250,585.83
17:47:22.796875,559.45
17:47:22.812500,534.22
17:47:22.828125,507.96
17:47:22.843750,476.89
17:47:22.859375,438.56
17:47:22.875000,393.10
17:47:22.890625,342.87
17:47:22.906250,290.73
17:47:22.921875,238.76
17:47:22.937500,187.89
17:47:22.953125,138.32
17:47:22.968750,90.55
17:47:22.984375,45.86
17:47:23,6.42
17:47:23.015625,-25.46
17:47:23.031250,-48.10
17:47:23.046875,-61.12
17:47:23.062500,-65.69
17:47:23.078125,-64.06
17:47:23.093750,-58.95
17:47:23.109375,-52.75
17:47:23.125000,-47.03
17:47:23.140625,-42.44
17:47:23.156250,-39.20
17:47:23.171875,-37.54
17:47:23.187500,-38.03
17:47:23.203125,-41.71
17:47:23.218750,-49.65
17:47:23.234375,-62.68
17:47:23.250000,-80.92
17:47:23.265625,-103.59
17:47:23.281250,-129.15
17:47:23.296875,-155.70
17:47:23.312500,-181.35
17:47:23.328125,-204.61
17:47:23.343750,-224.52
17:47:23.359375,-240.64
17:47:23.375000,-252.84
17:47:23.390625,-261.22
17:47:23.406250,-265.97
17:47:23.421875,-267.29
17:47:23.437500,-265.46
17:47:23.453125,-260.75
17:47:23.468750,-253.50
17:47:23.484375,-243.88
17:47:23.500000,-231.94
17:47:23.515625,-217.54
17:47:23.531250,-200.45
17:47:23.546875,-180.50
17:47:23.562500,-157.79
17:47:23.578125,-132.80
17:47:23.593750,-106.40
17:47:23.609375,-79.81
17:47:23.625000,-54.43
17:47:23.640625,-31.54
17:47:23.656250,-12.24
17:47:23.671875,2.79
17:47:23.687500,13.29
17:47:23.703125,19.30
17:47:23.718750,21.19
17:47:23.734375,19.48
17:47:23.750000,14.80
17:47:23.765625,7.85
17:47:23.781250,-0.62
17:47:23.796875,-9.81
17:47:23.812500,-18.92
17:47:23.828125,-27.32
17:47:23.843750,-34.61
17:47:23.859375,-40.74
17:47:23.875000,-46.04
17:47:23.890625,-51.04
17:47:23.906250,-56.33
17:47:23.921875,-62.21
17:47:23.937500,-68.64
17:47:23.953125,-75.17
17:47:23.968750,-81.24
17:47:23.984375,-86.48
17:47:24,-91.03
17:47:24.015625,-95.58
17:47:24.031250,-101.22
17:47:24.046875,-108.96
17:47:24.062500,-119.26
17:47:24.078125,-131.70
17:47:24.093750,-145.16
17:47:24.109375,-158.19
17:47:24.125000,-169.82
17:47:24.140625,-180.02
17:47:24.156250,-189.92
17:47:24.171875,-201.34
17:47:24.187500,-216.00
17:47:24.203125,-234.72
17:47:24.218750,-256.89
17:47:24.234375,-280.77
17:47:24.250000,-304.24
17:47:24.265625,-325.85
17:47:24.281250,-345.55
17:47:24.296875,-364.85
17:47:24.312500,-386.11
17:47:24.328125,-411.87
17:47:24.343750,-443.82
17:47:24.359375,-482.52
17:47:24.375000,-527.04
17:47:24.390625,-574.64
17:47:24.406250,-620.79
17:47:24.421875,-659.57
17:47:24.437500,-684.98
17:47:24.453125,-692.98
17:47:24.468750,-683.47
17:47:24.484375,-661.10
17:47:24.500000,-633.97
17:47:24.515625,-610.34
17:47:24.531250,-594.91
17:47:24.546875,-586.58
17:47:24.562500,-579.04
17:47:24.578125,-563.91
17:47:24.593750,-534.85
17:47:24.609375,-490.33
17:47:24.625000,-433.72
17:47:24.640625,-371.12
17:47:24.656250,-308.18
17:47:24.671875,-248.20
17:47:24.687500,-191.90
17:47:24.703125,-138.88
17:47:24.718750,-89.23
17:47:24.734375,-44.42
17:47:24.750000,-6.63
17:47:24.765625,22.51
17:47:24.781250,43.07
17:47:24.796875,56.86
17:47:24.812500,66.64
17:47:24.828125,74.55
17:47:24.843750,81.41
17:47:24.859375,86.47
17:47:24.875000,87.97
17:47:24.890625,84.53
17:47:24.906250,75.79
17:47:24.921875,62.87
17:47:24.937500,47.95
17:47:24.953125,33.40
17:47:24.968750,20.88
17:47:24.984375,10.82
17:47:25,2.43
17:47:25.015625,-5.78
17:47:25.031250,-15.28
17:47:25.046875,-26.91
17:47:25.062500,-40.76
17:47:25.078125,-56.39
17:47:25.093750,-73.15
17:47:25.109375,-90.69
17:47:25.125000,-109.00
17:47:25.140625,-128.35
17:47:25.156250,-148.92
17:47:25.171875,-170.45
17:47:25.187500,-192.18
17:47:25.203125,-212.95
17:47:25.218750,-231.55
17:47:25.234375,-247.00
17:47:25.250000,-258.81
17:47:25.265625,-266.88
17:47:25.281250,-271.31
17:47:25.296875,-272.23
17:47:25.312500,-269.53
17:47:25.328125,-263.05
17:47:25.343750,-252.74
17:47:25.359375,-238.97
17:47:25.375000,-222.63
17:47:25.390625,-204.91
17:47:25.406250,-186.79
17:47:25.421875,-168.53
17:47:25.437500,-149.40
17:47:25.453125,-127.72
17:47:25.468750,-101.58
17:47:25.484375,-69.74
17:47:25.500000,-32.41
17:47:25.515625,8.59
17:47:25.531250,50.31
17:47:25.546875,89.82
17:47:25.562500,125.27
17:47:25.578125,156.61
17:47:25.593750,185.48
17:47:25.609375,214.18
17:47:25.625000,244.08
17:47:25.640625,274.46
17:47:25.656250,302.48
17:47:25.671875,324.25
17:47:25.687500,336.92
17:47:25.703125,340.09
17:47:25.718750,336.39
17:47:25.734375,331.10
17:47:25.750000,330.09
17:47:25.765625,337.53
17:47:25.781250,354.71
17:47:25.796875,380.39
17:47:25.812500,411.67
17:47:25.828125,444.56
17:47:25.843750,474.26
17:47:25.859375,495.41
17:47:25.875000,503.97
17:47:25.890625,499.30
17:47:25.906250,485.53
17:47:25.921875,471.14
17:47:25.937500,465.99
17:47:25.953125,476.48
17:47:25.968750,500.93
17:47:25.984375,528.41
17:47:26,542.57
17:47:26.015625,529.48
17:47:26.031250,484.52
17:47:26.046875,414.48
17:47:26.062500,334.14
17:47:26.078125,259.34
17:47:26.093750,200.32
17:47:26.109375,158.55
17:47:26.125000,129.99
17:47:26.140625,105.59
17:47:26.156250,77.03
17:47:26.171875,43.00
17:47:26.187500,8.93
17:47:26.203125,-18.94
17:47:26.218750,-38.86
17:47:26.234375,-54.06
17:47:26.250000,-69.89
17:47:26.265625,-90.23
17:47:26.281250,-114.75
17:47:26.296875,-139.29
17:47:26.312500,-158.27
17:47:26.328125,-168.54
17:47:26.343750,-169.86
17:47:26.359375,-165.39
17:47:26.375000,-159.70
17:47:26.390625,-156.40
17:47:26.406250,-156.76
17:47:26.421875,-158.78
17:47:26.437500,-158.46
17:47:26.453125,-151.55
17:47:26.468750,-135.58
17:47:26.484375,-110.77
17:47:26.500000,-79.51
17:47:26.515625,-44.56
17:47:26.531250,-7.19
17:47:26.546875,27.57
17:47:26.562500,57.96
17:47:26.578125,83.77
17:47:26.593750,105.49
17:47:26.609375,123.09
17:47:26.625000,135.66
17:47:26.640625,141.61
17:47:26.656250,139.48
17:47:26.671875,128.61
17:47:26.687500,109.31
17:47:26.703125,83.63
17:47:26.718750,54.09
17:47:26.734375,23.15
17:47:26.750000,-7.34
17:47:26.765625,-36.37
17:47:26.781250,-63.65
17:47:26.796875,-89.17
17:47:26.812500,-112.78
17:47:26.828125,-134.10
17:47:26.843750,-151.84
17:47:26.859375,-164.70
17:47:26.875000,-171.51
17:47:26.890625,-172.21
17:47:26.906250,-167.28
17:47:26.921875,-157.85
17:47:26.937500,-145.34
17:47:26.953125,-130.92
17:47:26.968750,-115.31
17:47:26.984375,-98.29
17:47:27,-79.42
17:47:27.015625,-58.31
17:47:27.031250,-35.71
17:47:27.046875,-12.87
17:47:27.062500,8.51
17:47:27.078125,26.86
17:47:27.093750,41.40
17:47:27.109375,52.45
17:47:27.125000,61.46
17:47:27.140625,70.22
17:47:27.156250,80.51
17:47:27.171875,91.90
17:47:27.187500,103.40
17:47:27.203125,113.52
17:47:27.218750,121.15
17:47:27.234375,126.19
17:47:27.250000,129.84
17:47:27.265625,133.84
17:47:27.281250,139.79
17:47:27.296875,150.23
17:47:27.312500,164.37
17:47:27.328125,183.43
17:47:27.343750,208.77
17:47:27.359375,240.50
17:47:27.375000,275.37
17:47:27.390625,306.00
17:47:27.406250,322.22
17:47:27.421875,315.43
17:47:27.437500,286.47
17:47:27.453125,238.83
17:47:27.468750,186.60
17:47:27.484375,145.81
17:47:27.500000,127.94
17:47:27.515625,136.15
17:47:27.531250,166.07
17:47:27.546875,209.49
17:47:27.562500,258.77
17:47:27.578125,313.40
17:47:27.593750,363.65
17:47:27.609375,403.35
17:47:27.625000,423.90
17:47:27.640625,417.13
17:47:27.656250,380.19
17:47:27.671875,319.76
17:47:27.687500,250.75
17:47:27.703125,191.04
17:47:27.718750,160.89
17:47:27.734375,158.44
17:47:27.750000,179.25
17:47:27.765625,213.37
17:47:27.781250,251.51
17:47:27.796875,289.61
17:47:27.812500,330.67
17:47:27.828125,379.67
17:47:27.843750,398.42
17:47:27.859375,431.34
17:47:27.875000,459.92
17:47:27.890625,471.49
17:47:27.906250,456.92
17:47:27.921875,414.12
17:47:27.937500,348.42
17:47:27.953125,271.82
17:47:27.968750,196.31
17:47:27.984375,130.43
17:47:28,84.31
17:47:28.015625,51.48
17:47:28.031250,30.92
17:47:28.046875,21.62
17:47:28.062500,22.35
17:47:28.078125,30.88
17:47:28.093750,45.74
17:47:28.109375,62.91
17:47:28.125000,76.77
17:47:28.140625,86.97
17:47:28.156250,85.27
17:47:28.171875,72.50
17:47:28.187500,53.02
17:47:28.203125,32.76
17:47:28.218750,1.25
17:47:28.234375,-44.60
17:47:28.250000,-102.01
17:47:28.265625,-162.39
17:47:28.281250,-212.65
17:47:28.296875,-249.99
17:47:28.312500,-272.82
17:47:28.328125,-282.51
17:47:28.343750,-281.65
17:47:28.359375,-273.14
17:47:28.375000,-257.27
17:47:28.390625,-235.84
17:47:28.406250,-212.55
17:47:28.421875,-189.75
17:47:28.437500,-172.66
17:47:28.453125,-162.93
17:47:28.468750,-160.39
17:47:28.484375,-163.68
17:47:28.500000,-171.01
17:47:28.515625,-178.83
17:47:28.531250,-187.15
17:47:28.546875,-198.17
17:47:28.562500,-209.78
17:47:28.578125,-221.85
17:47:28.593750,-232.81
17:47:28.609375,-240.49
17:47:28.625000,-243.00
17:47:28.640625,-239.18
17:47:28.656250,-227.65
17:47:28.671875,-211.82
17:47:28.687500,-196.40
17:47:28.703125,-185.70
17:47:28.718750,-182.75
17:47:28.734375,-188.19
17:47:28.750000,-200.92
17:47:28.765625,-219.14
17:47:28.781250,-240.92
17:47:28.796875,-263.87
17:47:28.812500,-290.39
17:47:28.828125,-323.38
17:47:28.843750,-364.34
17:47:28.859375,-412.92
17:47:28.875000,-467.19
17:47:28.890625,-525.51
17:47:28.906250,-587.84
17:47:28.921875,-654.90
17:47:28.937500,-699.95
17:47:28.953125,-701.43
17:47:28.968750,-647.89
17:47:28.984375,-543.72
17:47:29,-405.82
17:47:29.015625,-254.83
17:47:29.031250,-109.32
17:47:29.046875,16.45
17:47:29.062500,114.44
17:47:29.078125,183.81
17:47:29.093750,225.94
17:47:29.109375,246.15
17:47:29.125000,251.71
17:47:29.140625,250.18
17:47:29.156250,247.46
17:47:29.171875,248.95
17:47:29.187500,258.13
17:47:29.203125,276.26
17:47:29.218750,301.26
17:47:29.234375,324.03
17:47:29.250000,333.36
17:47:29.265625,321.02
17:47:29.281250,286.22
17:47:29.296875,236.45
17:47:29.312500,184.58
17:47:29.328125,143.03
17:47:29.343750,119.13
17:47:29.359375,113.23
17:47:29.375000,119.62
17:47:29.390625,130.31
17:47:29.406250,139.48
17:47:29.421875,146.80
17:47:29.437500,154.57
17:47:29.453125,165.33
17:47:29.468750,179.30
17:47:29.484375,194.17
17:47:29.500000,207.21
17:47:29.515625,216.31
17:47:29.531250,221.91
17:47:29.546875,226.50
17:47:29.562500,233.49
17:47:29.578125,245.60
17:47:29.593750,264.53
17:47:29.609375,290.91
17:47:29.625000,324.61
17:47:29.640625,364.13
17:47:29.656250,406.28
17:47:29.671875,445.66
17:47:29.687500,475.11
17:47:29.703125,487.62
17:47:29.718750,478.43
17:47:29.734375,446.88
17:47:29.750000,396.64
17:47:29.765625,334.23
17:47:29.781250,266.76
17:47:29.796875,199.77
17:47:29.812500,136.35
17:47:29.828125,77.78
17:47:29.843750,24.80
17:47:29.859375,-21.79
17:47:29.875000,-61.32
17:47:29.890625,-94.04
17:47:29.906250,-121.48
17:47:29.921875,-145.97
17:47:29.937500,-169.36
17:47:29.953125,-192.10
17:47:29.968750,-212.92
17:47:29.984375,-229.89
17:47:30,-241.52
17:47:30.015625,-248.12
17:47:30.031250,-252.11
17:47:30.046875,-257.36
17:47:30.062500,-268.11
17:47:30.078125,-288.07
17:47:30.093750,-319.95
17:47:30.109375,-364.87
17:47:30.125000,-420.98
17:47:30.140625,-482.65
17:47:30.156250,-540.55
17:47:30.171875,-584.24
17:47:30.187500,-606.09
17:47:30.203125,-605.42
17:47:30.218750,-589.60
17:47:30.234375,-571.21
17:47:30.250000,-562.38
17:47:30.265625,-569.44
17:47:30.281250,-591.16
17:47:30.296875,-620.96
17:47:30.312500,-651.44
17:47:30.328125,-677.73
17:47:30.343750,-697.84
17:47:30.359375,-710.50
17:47:30.375000,-712.77
17:47:30.390625,-699.91
17:47:30.406250,-667.65
17:47:30.421875,-615.48
17:47:30.437500,-547.93
17:47:30.453125,-473.24
17:47:30.468750,-399.81
17:47:30.484375,-333.29
17:47:30.500000,-275.11
17:47:30.515625,-223.39
17:47:30.531250,-174.90
17:47:30.546875,-126.70
17:47:30.562500,-76.90
17:47:30.578125,-24.42
17:47:30.593750,31.25
17:47:30.609375,89.82
17:47:30.625000,150.40
17:47:30.640625,211.51
17:47:30.656250,271.57
17:47:30.671875,329.17
17:47:30.687500,383.80
17:47:30.703125,435.89
17:47:30.718750,486.67
17:47:30.734375,538.01
17:47:30.750000,592.03
17:47:30.765625,650.72
17:47:30.781250,714.87
17:47:30.796875,782.78
17:47:30.812500,849.21
17:47:30.828125,905.91
17:47:30.843750,943.67
17:47:30.859375,955.40
17:47:30.875000,938.84
17:47:30.890625,897.43
17:47:30.906250,838.80
17:47:30.921875,771.81
17:47:30.937500,703.40
17:47:30.953125,636.79
17:47:30.968750,572.30
17:47:30.984375,509.18
17:47:31,447.36
17:47:31.015625,387.93
17:47:31.031250,332.40
17:47:31.046875,281.56
17:47:31.062500,234.87
17:47:31.078125,190.85
17:47:31.093750,147.18
17:47:31.109375,102.65
17:47:31.125000,57.83
17:47:31.140625,14.99
17:47:31.156250,-23.08
17:47:31.171875,-54.39
17:47:31.187500,-78.53
17:47:31.203125,-96.57
17:47:31.218750,-110.43
17:47:31.234375,-123.79
17:47:31.250000,-139.33
17:47:31.265625,-157.81
17:47:31.281250,-177.95
17:47:31.296875,-197.44
17:47:31.312500,-214.46
17:47:31.328125,-228.55
17:47:31.343750,-240.51
17:47:31.359375,-251.78
17:47:31.375000,-266.64
17:47:31.390625,-288.27
17:47:31.406250,-317.43
17:47:31.421875,-352.12
17:47:31.437500,-388.65
17:47:31.453125,-423.52
17:47:31.468750,-454.76
17:47:31.484375,-481.89
17:47:31.500000,-505.32
17:47:31.515625,-529.47
17:47:31.531250,-557.81
17:47:31.546875,-591.13
17:47:31.562500,-626.88
17:47:31.578125,-660.37
17:47:31.593750,-687.05
17:47:31.609375,-704.10
17:47:31.625000,-710.56
17:47:31.640625,-682.80
17:47:31.656250,-606.53
17:47:31.671875,-480.93
17:47:31.687500,-321.78
17:47:31.703125,-154.10
17:47:31.718750,0.22
17:47:31.734375,129.15
17:47:31.750000,229.76
17:47:31.765625,304.44
17:47:31.781250,357.66
17:47:31.796875,390.29
17:47:31.812500,403.33
17:47:31.828125,399.36
17:47:31.843750,383.12
17:47:31.859375,360.65
17:47:31.875000,337.38
17:47:31.890625,316.83
17:47:31.906250,300.56
17:47:31.921875,288.88
17:47:31.937500,279.01
17:47:31.953125,267.45
17:47:31.968750,253.37
17:47:31.984375,238.16
17:47:32,224.43
17:47:32.015625,214.38
17:47:32.031250,208.65
17:47:32.046875,206.31
17:47:32.062500,205.56
17:47:32.078125,202.64
17:47:32.093750,194.54
17:47:32.109375,180.47
17:47:32.125000,161.26
17:47:32.140625,138.91
17:47:32.156250,115.61
17:47:32.171875,92.77
17:47:32.187500,70.96
17:47:32.203125,50.32
17:47:32.218750,30.13
17:47:32.234375,10.30
