16:26:54,-0.00
16:26:54.015625,-0.00
16:26:54.031250,-0.00
16:26:54.046875,-0.00
16:26:54.062500,-0.00
16:26:54.078125,-0.00
16:26:54.093750,-0.00
16:26:54.109375,-0.00
16:26:54.125000,-0.00
16:26:54.140625,-0.01
16:26:54.156250,-0.00
16:26:54.171875,0.00
16:26:54.187500,0.01
16:26:54.203125,0.01
16:26:54.218750,-0.00
16:26:54.234375,-0.03
16:26:54.250000,-0.05
16:26:54.265625,-0.05
16:26:54.281250,-0.00
16:26:54.296875,0.13
16:26:54.312500,0.36
16:26:54.328125,0.66
16:26:54.343750,1.01
16:26:54.359375,1.37
16:26:54.375000,1.72
16:26:54.390625,2.06
16:26:54.406250,2.40
16:26:54.421875,2.77
16:26:54.437500,3.24
16:26:54.453125,3.80
16:26:54.468750,4.42
16:26:54.484375,5.06
16:26:54.500000,5.66
16:26:54.515625,6.20
16:26:54.531250,6.68
16:26:54.546875,7.15
16:26:54.562500,7.64
16:26:54.578125,8.31
16:26:54.593750,9.14
16:26:54.609375,10.09
16:26:54.625000,11.04
16:26:54.640625,11.88
16:26:54.656250,12.56
16:26:54.671875,13.14
16:26:54.687500,13.76
16:26:54.703125,14.58
16:26:54.718750,15.96
16:26:54.734375,17.91
16:26:54.750000,20.32
16:26:54.765625,22.90
16:26:54.781250,25.38
16:26:54.796875,27.58
16:26:54.812500,29.57
16:26:54.828125,31.68
16:26:54.843750,34.20
16:26:54.859375,37.81
16:26:54.875000,42.54
16:26:54.890625,48.15
16:26:54.906250,54.10
16:26:54.921875,59.83
16:26:54.937500,64.97
16:26:54.953125,69.58
16:26:54.968750,74.14
16:26:54.984375,79.19
16:26:55,85.71
16:26:55.015625,93.76
16:26:55.031250,103.00
16:26:55.046875,112.62
16:26:55.062500,121.73
16:26:55.078125,129.77
16:26:55.093750,136.75
16:26:55.109375,144.29
16:26:55.125000,150.58
16:26:55.140625,157.77
16:26:55.156250,166.64
16:26:55.171875,177.95
16:26:55.187500,191.79
16:26:55.203125,206.97
16:26:55.218750,220.57
16:26:55.234375,228.25
16:26:55.250000,225.36
16:26:55.265625,208.37
16:26:55.281250,176.87
16:26:55.296875,132.76
16:26:55.312500,80.05
16:26:55.328125,23.07
16:26:55.343750,-34.94
16:26:55.359375,-92.44
16:26:55.375000,-149.16
16:26:55.390625,-205.23
16:26:55.406250,-260.49
16:26:55.421875,-313.74
16:26:55.437500,-363.87
16:26:55.453125,-409.82
16:26:55.468750,-450.88
16:26:55.484375,-486.46
16:26:55.500000,-515.68
16:26:55.515625,-537.14
16:26:55.531250,-549.10
16:26:55.546875,-549.88
16:26:55.562500,-538.16
16:26:55.578125,-513.95
16:26:55.593750,-478.37
16:26:55.609375,-433.51
16:26:55.625000,-382.02
16:26:55.640625,-326.53
16:26:55.656250,-269.29
16:26:55.671875,-212.01
16:26:55.687500,-156.00
16:26:55.703125,-102.18
16:26:55.718750,-51.52
16:26:55.734375,-4.96
16:26:55.750000,36.61
16:26:55.765625,72.56
16:26:55.781250,102.60
16:26:55.796875,126.87
16:26:55.812500,145.88
16:26:55.828125,160.33
16:26:55.843750,170.96
16:26:55.859375,178.36
16:26:55.875000,182.94
16:26:55.890625,184.99
16:26:55.906250,184.73
16:26:55.921875,182.44
16:26:55.937500,178.46
16:26:55.953125,173.21
16:26:55.968750,167.09
16:26:55.984375,160.45
16:26:56,153.55
16:26:56.015625,146.51
16:26:56.031250,139.43
16:26:56.046875,132.33
16:26:56.062500,125.26
16:26:56.078125,118.29
16:26:56.093750,111.48
16:26:56.109375,104.91
16:26:56.125000,98.63
16:26:56.140625,92.68
16:26:56.156250,87.08
16:26:56.171875,81.83
16:26:56.187500,76.95
16:26:56.203125,72.44
16:26:56.218750,68.32
16:26:56.234375,64.59
16:26:56.250000,61.25
16:26:56.265625,58.32
16:26:56.281250,55.79
16:26:56.296875,53.66
16:26:56.312500,51.92
16:26:56.328125,50.54
16:26:56.343750,49.48
16:26:56.359375,48.70
16:26:56.375000,48.08
16:26:56.390625,47.53
16:26:56.406250,46.87
16:26:56.421875,45.94
16:26:56.437500,44.57
16:26:56.453125,42.62
16:26:56.468750,39.96
16:26:56.484375,36.54
16:26:56.500000,32.36
16:26:56.515625,27.44
16:26:56.531250,21.92
16:26:56.546875,15.97
16:26:56.562500,9.80
16:26:56.578125,3.65
16:26:56.593750,-2.25
16:26:56.609375,-7.69
16:26:56.625000,-12.50
16:26:56.640625,-16.57
16:26:56.656250,-19.88
16:26:56.671875,-22.45
16:26:56.687500,-24.33
16:26:56.703125,-25.65
16:26:56.718750,-26.55
16:26:56.734375,-27.16
16:26:56.750000,-27.62
16:26:56.765625,-28.03
16:26:56.781250,-28.44
16:26:56.796875,-28.81
16:26:56.812500,-29.07
16:26:56.828125,-29.15
16:26:56.843750,-28.98
16:26:56.859375,-28.43
16:26:56.875000,-27.42
16:26:56.890625,-25.84
16:26:56.906250,-23.67
16:26:56.921875,-20.89
16:26:56.937500,-17.53
16:26:56.953125,-13.61
16:26:56.968750,-9.23
16:26:56.984375,-4.46
16:26:57,0.69
16:26:57.015625,6.16
16:26:57.031250,11.93
16:26:57.046875,17.98
16:26:57.062500,24.29
16:26:57.078125,30.79
16:26:57.093750,37.40
16:26:57.109375,43.86
16:26:57.125000,49.94
16:26:57.140625,55.41
16:26:57.156250,60.08
16:26:57.171875,63.84
16:26:57.187500,66.66
16:26:57.203125,68.70
16:26:57.218750,70.25
16:26:57.234375,71.70
16:26:57.250000,73.26
16:26:57.265625,75.12
16:26:57.281250,77.40
16:26:57.296875,80.09
16:26:57.312500,83.18
16:26:57.328125,86.65
16:26:57.343750,90.56
16:26:57.359375,95.05
16:26:57.375000,100.31
16:26:57.390625,106.27
16:26:57.406250,112.87
16:26:57.421875,119.94
16:26:57.437500,127.19
16:26:57.453125,134.31
16:26:57.468750,140.98
16:26:57.484375,146.91
16:26:57.500000,151.83
16:26:57.515625,157.06
16:26:57.531250,162.97
16:26:57.546875,169.35
16:26:57.562500,175.43
16:26:57.578125,180.07
16:26:57.593750,182.02
16:26:57.609375,180.33
16:26:57.625000,174.71
16:26:57.640625,165.58
16:26:57.656250,153.94
16:26:57.671875,140.67
16:26:57.687500,126.42
16:26:57.703125,111.29
16:26:57.718750,94.92
16:26:57.734375,76.83
16:26:57.750000,57.01
16:26:57.765625,36.39
16:26:57.781250,16.77
16:26:57.796875,0.41
16:26:57.812500,-11.09
16:26:57.828125,-17.40
16:26:57.843750,-19.84
16:26:57.859375,-21.17
16:26:57.875000,-24.67
16:26:57.890625,-32.85
16:26:57.906250,-46.53
16:26:57.921875,-64.60
16:26:57.937500,-84.62
16:26:57.953125,-104.10
16:26:57.968750,-121.58
16:26:57.984375,-137.30
16:26:58,-153.20
16:26:58.015625,-172.29
16:26:58.031250,-197.78
16:26:58.046875,-231.83
16:26:58.062500,-274.33
16:26:58.078125,-321.87
16:26:58.093750,-367.33
16:26:58.109375,-400.72
16:26:58.125000,-411.87
16:26:58.140625,-394.10
16:26:58.156250,-347.56
16:26:58.171875,-280.66
16:26:58.187500,-207.86
16:26:58.203125,-144.98
16:26:58.218750,-103.70
16:26:58.234375,-87.97
16:26:58.250000,-93.64
16:26:58.265625,-111.21
16:26:58.281250,-130.24
16:26:58.296875,-143.25
16:26:58.312500,-147.51
16:26:58.328125,-144.44
16:26:58.343750,-137.47
16:26:58.359375,-129.57
16:26:58.375000,-121.61
16:26:58.390625,-112.30
16:26:58.406250,-99.30
16:26:58.421875,-81.04
16:26:58.437500,-58.22
16:26:58.453125,-34.22
16:26:58.468750,-14.32
16:26:58.484375,-4.14
16:26:58.500000,-7.70
16:26:58.515625,-26.10
16:26:58.531250,-56.98
16:26:58.546875,-95.13
16:26:58.562500,-133.69
16:26:58.578125,-165.97
16:26:58.593750,-186.91
16:26:58.609375,-194.14
16:26:58.625000,-188.22
16:26:58.640625,-171.65
16:26:58.656250,-147.22
16:26:58.671875,-116.60
16:26:58.687500,-79.48
16:26:58.703125,-34.06
16:26:58.718750,21.47
16:26:58.734375,87.08
16:26:58.750000,159.31
16:26:58.765625,231.24
16:26:58.781250,293.78
16:26:58.796875,338.11
16:26:58.812500,358.31
16:26:58.828125,353.03
16:26:58.843750,325.73
16:26:58.859375,283.49
16:26:58.875000,234.83
16:26:58.890625,187.48
16:26:58.906250,146.35
16:26:58.921875,112.73
16:26:58.937500,84.55
16:26:58.953125,58.22
16:26:58.968750,31.35
16:26:58.984375,4.87
16:26:59,-16.34
16:26:59.015625,-25.70
16:26:59.031250,-18.86
16:26:59.046875,2.67
16:26:59.062500,30.45
16:26:59.078125,51.55
16:26:59.093750,53.78
16:26:59.109375,31.23
16:26:59.125000,-12.88
16:26:59.140625,-67.27
16:26:59.156250,-116.96
16:26:59.171875,-148.66
16:26:59.187500,-155.02
16:26:59.203125,-136.14
16:26:59.218750,-98.54
16:26:59.234375,-52.25
16:26:59.250000,-7.04
16:26:59.265625,30.69
16:26:59.281250,59.38
16:26:59.296875,81.40
16:26:59.312500,100.11
16:26:59.328125,116.51
16:26:59.343750,127.55
16:26:59.359375,127.08
16:26:59.375000,109.02
16:26:59.390625,71.04
16:26:59.406250,16.78
16:26:59.421875,-44.64
16:26:59.437500,-101.21
16:26:59.453125,-141.84
16:26:59.468750,-159.60
16:26:59.484375,-153.82
16:26:59.500000,-130.00
16:26:59.515625,-98.05
16:26:59.531250,-69.07
16:26:59.546875,-51.50
16:26:59.562500,-47.97
16:26:59.578125,-54.62
16:26:59.593750,-63.54
16:26:59.609375,-67.42
16:26:59.625000,-64.24
16:26:59.640625,-59.21
16:26:59.656250,-62.58
16:26:59.671875,-84.01
16:26:59.687500,-126.63
16:26:59.703125,-184.04
16:26:59.718750,-241.98
16:26:59.734375,-283.93
16:26:59.750000,-297.85
16:26:59.765625,-281.09
16:26:59.781250,-241.13
16:26:59.796875,-192.29
16:26:59.812500,-150.09
16:26:59.828125,-125.83
16:26:59.843750,-123.43
16:26:59.859375,-139.10
16:26:59.875000,-163.92
16:26:59.890625,-187.40
16:26:59.906250,-201.13
16:26:59.921875,-200.77
16:26:59.937500,-186.62
16:26:59.953125,-162.92
16:26:59.968750,-136.47
16:26:59.984375,-114.98
16:27:00,-104.93
16:27:00.015625,-109.65
16:27:00.031250,-127.96
16:27:00.046875,-154.19
16:27:00.062500,-179.72
16:27:00.078125,-195.97
16:27:00.093750,-197.42
16:27:00.109375,-183.66
16:27:00.125000,-158.91
16:27:00.140625,-129.67
16:27:00.156250,-101.74
16:27:00.171875,-77.82
16:27:00.187500,-57.25
16:27:00.203125,-37.48
16:27:00.218750,-16.32
16:27:00.234375,6.76
16:27:00.250000,30.52
16:27:00.265625,52.81
16:27:00.281250,71.98
16:27:00.296875,87.58
16:27:00.312500,100.83
16:27:00.328125,114.15
16:27:00.343750,130.69
16:27:00.359375,153.37
16:27:00.375000,183.50
16:27:00.390625,219.17
16:27:00.406250,254.19
16:27:00.421875,278.97
16:27:00.437500,283.59
16:27:00.453125,262.29
16:27:00.468750,217.25
16:27:00.484375,159.00
16:27:00.500000,103.23
16:27:00.515625,64.91
16:27:00.531250,52.86
16:27:00.546875,66.96
16:27:00.562500,99.17
16:27:00.578125,137.33
16:27:00.593750,169.95
16:27:00.609375,189.95
16:27:00.625000,196.29
16:27:00.640625,193.36
16:27:00.656250,188.66
16:27:00.671875,189.42
16:27:00.687500,199.29
16:27:00.703125,216.41
16:27:00.718750,233.86
16:27:00.734375,242.94
16:27:00.750000,237.67
16:27:00.765625,218.10
16:27:00.781250,190.68
16:27:00.796875,164.93
16:27:00.812500,149.07
16:27:00.828125,146.34
16:27:00.843750,154.33
16:27:00.859375,167.10
16:27:00.875000,178.28
16:27:00.890625,183.45
16:27:00.906250,180.75
16:27:00.921875,170.43
16:27:00.937500,154.05
16:27:00.953125,134.25
16:27:00.968750,114.43
16:27:00.984375,98.04
16:27:01,87.09
16:27:01.015625,80.54
16:27:01.031250,73.84
16:27:01.046875,60.59
16:27:01.062500,35.88
16:27:01.078125,-0.72
16:27:01.093750,-43.94
16:27:01.109375,-84.57
16:27:01.125000,-113.35
16:27:01.140625,-124.99
16:27:01.156250,-120.26
16:27:01.171875,-105.33
16:27:01.187500,-89.07
16:27:01.203125,-79.47
16:27:01.218750,-81.16
16:27:01.234375,-94.14
16:27:01.250000,-114.15
16:27:01.265625,-134.02
16:27:01.281250,-145.67
16:27:01.296875,-142.94
16:27:01.312500,-124.14
16:27:01.328125,-93.33
16:27:01.343750,-59.61
16:27:01.359375,-33.76
16:27:01.375000,-23.75
16:27:01.390625,-31.13
16:27:01.406250,-50.39
16:27:01.421875,-71.66
16:27:01.437500,-85.19
16:27:01.453125,-85.22
16:27:01.468750,-71.30
16:27:01.484375,-46.98
16:27:01.500000,-17.30
16:27:01.515625,13.39
16:27:01.531250,41.86
16:27:01.546875,65.63
16:27:01.562500,82.77
16:27:01.578125,92.27
16:27:01.593750,95.06
16:27:01.609375,94.20
16:27:01.625000,93.61
16:27:01.640625,95.75
16:27:01.656250,99.77
16:27:01.671875,101.34
16:27:01.687500,94.99
16:27:01.703125,77.61
16:27:01.718750,51.34
16:27:01.734375,23.77
16:27:01.750000,4.89
16:27:01.765625,2.29
16:27:01.781250,17.02
16:27:01.796875,42.57
16:27:01.812500,67.49
16:27:01.828125,80.68
16:27:01.843750,76.37
16:27:01.859375,56.48
16:27:01.875000,29.35
16:27:01.890625,5.80
16:27:01.906250,-5.59
16:27:01.921875,-1.61
16:27:01.937500,15.03
16:27:01.953125,37.24
16:27:01.968750,56.46
16:27:01.984375,65.30
16:27:02,59.62
16:27:02.015625,39.60
16:27:02.031250,9.82
16:27:02.046875,-22.08
16:27:02.062500,-47.75
16:27:02.078125,-61.08
16:27:02.093750,-60.50
16:27:02.109375,-49.32
16:27:02.125000,-34.04
16:27:02.140625,-21.18
16:27:02.156250,-14.29
16:27:02.171875,-12.58
16:27:02.187500,-11.94
16:27:02.203125,-7.51
16:27:02.218750,3.36
16:27:02.234375,19.21
16:27:02.250000,34.59
16:27:02.265625,42.02
16:27:02.281250,35.13
16:27:02.296875,11.68
16:27:02.312500,-24.71
16:27:02.328125,-65.06
16:27:02.343750,-98.10
16:27:02.359375,-114.81
16:27:02.375000,-112.35
16:27:02.390625,-95.35
16:27:02.406250,-73.95
16:27:02.421875,-59.00
16:27:02.437500,-56.93
16:27:02.453125,-66.81
16:27:02.468750,-81.04
16:27:02.484375,-89.21
16:27:02.500000,-83.21
16:27:02.515625,-61.18
16:27:02.531250,-28.36
16:27:02.546875,4.80
16:27:02.562500,26.68
16:27:02.578125,28.81
16:27:02.593750,9.00
16:27:02.609375,-27.54
16:27:02.625000,-69.69
16:27:02.640625,-103.93
16:27:02.656250,-119.31
16:27:02.671875,-111.43
16:27:02.687500,-84.10
16:27:02.703125,-47.62
16:27:02.718750,-14.34
16:27:02.734375,6.26
16:27:02.750000,11.06
16:27:02.765625,3.75
16:27:02.781250,-7.30
16:27:02.796875,-13.05
16:27:02.812500,-7.38
16:27:02.828125,10.70
16:27:02.843750,36.77
16:27:02.859375,62.47
16:27:02.875000,78.04
16:27:02.890625,75.64
16:27:02.906250,52.22
16:27:02.921875,11.26
16:27:02.937500,-37.94
16:27:02.953125,-83.09
16:27:02.968750,-113.31
16:27:02.984375,-122.87
16:27:03,-112.99
16:27:03.015625,-90.60
16:27:03.031250,-65.09
16:27:03.046875,-44.65
16:27:03.062500,-33.48
16:27:03.078125,-30.96
16:27:03.093750,-32.51
16:27:03.109375,-31.87
16:27:03.125000,-23.91
16:27:03.140625,-6.76
16:27:03.156250,16.79
16:27:03.171875,39.75
16:27:03.187500,53.07
16:27:03.203125,48.98
16:27:03.218750,24.17
16:27:03.234375,-18.04
16:27:03.250000,-68.18
16:27:03.265625,-113.54
16:27:03.281250,-142.41
16:27:03.296875,-148.14
16:27:03.312500,-131.30
16:27:03.328125,-99.31
16:27:03.343750,-63.45
16:27:03.359375,-34.72
16:27:03.375000,-19.87
16:27:03.390625,-19.04
16:27:03.406250,-26.30
16:27:03.421875,-32.25
16:27:03.437500,-28.36
16:27:03.453125,-10.44
16:27:03.468750,19.52
16:27:03.484375,54.27
16:27:03.500000,84.34
16:27:03.515625,101.79
16:27:03.531250,102.92
16:27:03.546875,89.29
16:27:03.562500,66.70
16:27:03.578125,42.85
16:27:03.593750,24.77
16:27:03.609375,16.45
16:27:03.625000,17.67
16:27:03.640625,23.96
16:27:03.656250,28.12
16:27:03.671875,22.89
16:27:03.687500,4.12
16:27:03.703125,-26.96
16:27:03.718750,-63.59
16:27:03.734375,-95.65
16:27:03.750000,-113.57
16:27:03.765625,-112.14
16:27:03.781250,-92.59
16:27:03.796875,-61.88
16:27:03.812500,-29.49
16:27:03.828125,-3.27
16:27:03.843750,13.87
16:27:03.859375,24.39
16:27:03.875000,33.60
16:27:03.890625,45.69
16:27:03.906250,59.87
16:27:03.921875,69.71
16:27:03.937500,65.78
16:27:03.953125,40.88
16:27:03.968750,-5.09
16:27:03.984375,-63.33
16:27:04,-118.76
16:27:04.015625,-156.07
16:27:04.031250,-166.50
16:27:04.046875,-151.44
16:27:04.062500,-121.32
16:27:04.078125,-90.51
16:27:04.093750,-70.92
16:27:04.109375,-67.87
16:27:04.125000,-79.41
16:27:04.140625,-99.22
16:27:04.156250,-120.44
16:27:04.171875,-138.75
16:27:04.187500,-152.98
16:27:04.203125,-163.76
16:27:04.218750,-171.86
16:27:04.234375,-177.07
16:27:04.250000,-178.40
16:27:04.265625,-174.81
16:27:04.281250,-165.72
16:27:04.296875,-150.65
16:27:04.312500,-128.55
16:27:04.328125,-97.67
16:27:04.343750,-56.71
16:27:04.359375,-6.87
16:27:04.375000,46.48
16:27:04.390625,93.98
16:27:04.406250,124.59
16:27:04.421875,129.84
16:27:04.437500,107.83
16:27:04.453125,64.95
16:27:04.468750,14.14
16:27:04.484375,-29.73
16:27:04.500000,-55.50
16:27:04.515625,-59.79
16:27:04.531250,-47.56
16:27:04.546875,-28.97
16:27:04.562500,-14.15
16:27:04.578125,-8.48
16:27:04.593750,-10.51
16:27:04.609375,-13.75
16:27:04.625000,-10.37
16:27:04.640625,4.63
16:27:04.656250,31.61
16:27:04.671875,66.43
16:27:04.687500,102.31
16:27:04.703125,132.19
16:27:04.718750,150.42
16:27:04.734375,154.20
16:27:04.750000,144.38
16:27:04.765625,125.86
16:27:04.781250,106.45
16:27:04.796875,94.18
16:27:04.812500,93.63
16:27:04.828125,103.15
16:27:04.843750,114.89
16:27:04.859375,118.44
16:27:04.875000,106.47
16:27:04.890625,79.28
16:27:04.906250,45.28
16:27:04.921875,17.39
16:27:04.937500,7.02
16:27:04.953125,18.96
16:27:04.968750,49.46
16:27:04.984375,88.25
16:27:05,123.21
16:27:05.015625,145.32
16:27:05.031250,151.73
16:27:05.046875,146.70
16:27:05.062500,139.33
16:27:05.078125,139.86
16:27:05.093750,155.15
16:27:05.109375,185.42
16:27:05.125000,223.44
16:27:05.140625,256.83
16:27:05.156250,272.95
16:27:05.171875,263.81
16:27:05.187500,229.37
16:27:05.203125,177.34
16:27:05.218750,119.82
16:27:05.234375,68.86
16:27:05.250000,32.98
16:27:05.265625,16.02
16:27:05.281250,18.05
16:27:05.296875,37.22
16:27:05.312500,70.77
16:27:05.328125,114.91
16:27:05.343750,163.86
16:27:05.359375,209.20
16:27:05.375000,240.77
16:27:05.390625,249.26
16:27:05.406250,229.21
16:27:05.421875,181.06
16:27:05.437500,110.89
16:27:05.453125,28.51
16:27:05.468750,-55.56
16:27:05.484375,-132.24
16:27:05.500000,-194.94
16:27:05.515625,-239.79
16:27:05.531250,-265.76
16:27:05.546875,-274.98
16:27:05.562500,-273.13
16:27:05.578125,-268.73
16:27:05.593750,-270.89
16:27:05.609375,-286.13
16:27:05.625000,-315.48
16:27:05.640625,-353.85
16:27:05.656250,-391.80
16:27:05.671875,-419.49
16:27:05.687500,-430.34
16:27:05.703125,-422.90
16:27:05.718750,-400.13
16:27:05.734375,-366.99
16:27:05.750000,-327.88
16:27:05.765625,-285.36
16:27:05.781250,-240.47
16:27:05.796875,-193.80
16:27:05.812500,-146.70
16:27:05.828125,-101.69
16:27:05.843750,-61.86
16:27:05.859375,-29.40
16:27:05.875000,-4.61
16:27:05.890625,14.81
16:27:05.906250,33.00
16:27:05.921875,54.63
16:27:05.937500,82.93
16:27:05.953125,118.21
16:27:05.968750,157.11
16:27:05.984375,193.84
16:27:06,222.48
16:27:06.015625,239.60
16:27:06.031250,245.91
16:27:06.046875,245.82
16:27:06.062500,245.42
16:27:06.078125,249.69
16:27:06.093750,260.50
16:27:06.109375,276.33
16:27:06.125000,293.10
16:27:06.140625,306.17
16:27:06.156250,311.43
16:27:06.171875,306.27
16:27:06.187500,289.78
16:27:06.203125,262.71
16:27:06.218750,227.41
16:27:06.234375,187.46
16:27:06.250000,147.09
16:27:06.265625,110.30
16:27:06.281250,80.16
16:27:06.296875,58.38
16:27:06.312500,45.26
16:27:06.328125,39.40
16:27:06.343750,37.69
16:27:06.359375,35.43
16:27:06.375000,27.29
16:27:06.390625,9.34
16:27:06.406250,-19.01
16:27:06.421875,-53.88
16:27:06.437500,-88.00
16:27:06.453125,-113.46
16:27:06.468750,-125.06
16:27:06.484375,-122.21
16:27:06.500000,-108.33
16:27:06.515625,-88.17
16:27:06.531250,-64.74
16:27:06.546875,-38.12
16:27:06.562500,-6.87
16:27:06.578125,28.88
16:27:06.593750,64.81
16:27:06.609375,92.62
16:27:06.625000,103.05
16:27:06.640625,91.04
16:27:06.656250,59.06
16:27:06.671875,17.29
16:27:06.687500,-20.65
16:27:06.703125,-43.83
16:27:06.718750,-48.92
16:27:06.734375,-41.26
16:27:06.750000,-31.18
16:27:06.765625,-28.02
16:27:06.781250,-34.80
16:27:06.796875,-46.93
16:27:06.812500,-55.13
16:27:06.828125,-51.23
16:27:06.843750,-33.18
16:27:06.859375,-6.70
16:27:06.875000,17.32
16:27:06.890625,28.17
16:27:06.906250,20.54
16:27:06.921875,-2.87
16:27:06.937500,-32.71
16:27:06.953125,-57.23
16:27:06.968750,-67.43
16:27:06.984375,-60.71
16:27:07,-41.34
16:27:07.015625,-18.10
16:27:07.031250,0.07
16:27:07.046875,8.18
16:27:07.062500,7.14
16:27:07.078125,2.95
16:27:07.093750,3.33
16:27:07.109375,13.59
16:27:07.125000,33.59
16:27:07.140625,57.41
16:27:07.156250,75.85
16:27:07.171875,80.59
16:27:07.187500,68.00
16:27:07.203125,40.65
16:27:07.218750,6.06
16:27:07.234375,-26.66
16:27:07.250000,-50.39
16:27:07.265625,-62.16
16:27:07.281250,-62.99
16:27:07.296875,-56.14
16:27:07.312500,-44.55
16:27:07.328125,-29.16
16:27:07.343750,-8.59
16:27:07.359375,19.76
16:27:07.375000,58.04
16:27:07.390625,106.15
16:27:07.406250,160.80
16:27:07.421875,215.58
16:27:07.437500,262.24
16:27:07.453125,292.69
16:27:07.468750,301.28
16:27:07.484375,286.61
16:27:07.500000,252.32
16:27:07.515625,206.37
16:27:07.531250,158.85
16:27:07.546875,119.06
16:27:07.562500,92.68
16:27:07.578125,80.28
16:27:07.593750,77.58
16:27:07.609375,77.58
16:27:07.625000,73.64
16:27:07.640625,62.47
16:27:07.656250,45.37
16:27:07.671875,27.37
16:27:07.687500,14.30
16:27:07.703125,9.53
16:27:07.718750,11.90
16:27:07.734375,16.14
16:27:07.750000,15.49
16:27:07.765625,5.32
16:27:07.781250,-14.35
16:27:07.796875,-38.67
16:27:07.812500,-60.95
16:27:07.828125,-75.76
16:27:07.843750,-81.93
16:27:07.859375,-82.84
16:27:07.875000,-84.05
16:27:07.890625,-89.88
16:27:07.906250,-100.84
16:27:07.921875,-113.64
16:27:07.937500,-123.65
16:27:07.953125,-128.60
16:27:07.968750,-129.92
16:27:07.984375,-132.11
16:27:08,-139.28
16:27:08.015625,-151.64
16:27:08.031250,-164.06
16:27:08.046875,-167.58
16:27:08.062500,-153.17
16:27:08.078125,-115.29
16:27:08.093750,-54.95
16:27:08.109375,21.31
16:27:08.125000,103.10
16:27:08.140625,178.85
16:27:08.156250,238.30
16:27:08.171875,274.19
16:27:08.187500,283.37
16:27:08.203125,267.20
16:27:08.218750,231.68
16:27:08.234375,183.45
16:27:08.250000,130.02
16:27:08.265625,76.67
16:27:08.281250,25.17
16:27:08.296875,-25.95
16:27:08.312500,-79.77
16:27:08.328125,-138.31
16:27:08.343750,-200.52
16:27:08.359375,-259.80
16:27:08.375000,-310.07
16:27:08.390625,-343.18
16:27:08.406250,-353.26
16:27:08.421875,-338.52
16:27:08.437500,-301.19
16:27:08.453125,-246.67
16:27:08.468750,-181.91
16:27:08.484375,-114.67
16:27:08.500000,-50.66
16:27:08.515625,-1.40
16:27:08.531250,24.54
16:27:08.546875,20.97
16:27:08.562500,-13.23
16:27:08.578125,-72.30
16:27:08.593750,-144.06
16:27:08.609375,-212.75
16:27:08.625000,-263.17
16:27:08.640625,-281.46
16:27:08.656250,-267.42
16:27:08.671875,-224.03
16:27:08.687500,-158.94
16:27:08.703125,-81.36
16:27:08.718750,0.70
16:27:08.734375,82.13
16:27:08.750000,160.62
16:27:08.765625,213.43
16:27:08.781250,264.48
16:27:08.796875,307.28
16:27:08.812500,338.83
16:27:08.828125,358.12
16:27:08.843750,367.87
16:27:08.859375,374.12
16:27:08.875000,383.42
16:27:08.890625,399.05
16:27:08.906250,418.69
16:27:08.921875,438.78
16:27:08.937500,448.20
16:27:08.953125,443.33
16:27:08.968750,426.59
16:27:08.984375,404.54
16:27:09,383.08
16:27:09.015625,362.99
16:27:09.031250,338.93
16:27:09.046875,302.70
16:27:09.062500,251.49
16:27:09.078125,184.53
16:27:09.093750,111.78
16:27:09.109375,47.37
16:27:09.125000,3.55
16:27:09.140625,-15.08
16:27:09.156250,-14.00
16:27:09.171875,-6.56
16:27:09.187500,-8.44
16:27:09.203125,-29.27
16:27:09.218750,-72.34
16:27:09.234375,-128.26
16:27:09.250000,-179.90
16:27:09.265625,-209.62
16:27:09.281250,-207.09
16:27:09.296875,-174.32
16:27:09.312500,-125.19
16:27:09.328125,-79.77
16:27:09.343750,-55.00
16:27:09.359375,-60.08
16:27:09.375000,-91.39
16:27:09.390625,-136.13
16:27:09.406250,-178.56
16:27:09.421875,-206.77
16:27:09.437500,-216.87
16:27:09.453125,-212.84
16:27:09.468750,-203.02
16:27:09.484375,-194.72
16:27:09.500000,-191.08
16:27:09.515625,-188.89
16:27:09.531250,-180.64
16:27:09.546875,-158.39
16:27:09.562500,-118.27
16:27:09.578125,-63.36
16:27:09.593750,-3.63
16:27:09.609375,47.25
16:27:09.625000,77.03
16:27:09.640625,79.79
16:27:09.656250,58.01
16:27:09.671875,21.40
16:27:09.687500,-17.24
16:27:09.703125,-46.98
16:27:09.718750,-62.42
16:27:09.734375,-64.61
16:27:09.750000,-59.50
16:27:09.765625,-54.54
16:27:09.781250,-55.15
16:27:09.796875,-62.53
16:27:09.812500,-73.26
16:27:09.828125,-80.83
16:27:09.843750,-78.30
16:27:09.859375,-61.34
16:27:09.875000,-30.28
16:27:09.890625,9.42
16:27:09.906250,48.83
16:27:09.921875,78.61
16:27:09.937500,92.24
16:27:09.953125,88.07
16:27:09.968750,69.29
16:27:09.984375,41.94
16:27:10,11.86
16:27:10.015625,-17.67
16:27:10.031250,-46.74
16:27:10.046875,-77.44
16:27:10.062500,-111.23
16:27:10.078125,-146.46
16:27:10.093750,-177.66
16:27:10.109375,-196.97
16:27:10.125000,-197.29
16:27:10.140625,-175.61
16:27:10.156250,-134.86
16:27:10.171875,-83.49
16:27:10.187500,-32.58
16:27:10.203125,7.94
16:27:10.218750,32.68
16:27:10.234375,42.18
16:27:10.250000,41.53
16:27:10.265625,37.21
16:27:10.281250,33.52
16:27:10.296875,30.33
16:27:10.312500,23.30
16:27:10.328125,6.84
16:27:10.343750,-21.81
16:27:10.359375,-59.43
16:27:10.375000,-96.47
16:27:10.390625,-119.95
16:27:10.406250,-118.67
16:27:10.421875,-88.21
16:27:10.437500,-33.56
16:27:10.453125,32.06
16:27:10.468750,91.62
16:27:10.484375,130.20
16:27:10.500000,140.25
16:27:10.515625,124.22
16:27:10.531250,93.35
16:27:10.546875,62.95
16:27:10.562500,46.15
16:27:10.578125,48.41
16:27:10.593750,65.60
16:27:10.609375,86.56
16:27:10.625000,99.12
16:27:10.640625,96.56
16:27:10.656250,81.32
16:27:10.671875,63.62
16:27:10.687500,55.92
16:27:10.703125,65.90
16:27:10.718750,92.05
16:27:10.734375,124.14
16:27:10.750000,148.10
16:27:10.765625,152.23
16:27:10.781250,132.17
16:27:10.796875,91.91
16:27:10.812500,41.12
16:27:10.828125,-9.25
16:27:10.843750,-50.98
16:27:10.859375,-80.77
16:27:10.875000,-99.98
16:27:10.890625,-112.66
16:27:10.906250,-123.09
16:27:10.921875,-133.30
16:27:10.937500,-142.06
16:27:10.953125,-145.30
16:27:10.968750,-138.08
16:27:10.984375,-117.16
16:27:11,-83.32
16:27:11.015625,-41.92
16:27:11.031250,-1.35
16:27:11.046875,29.30
16:27:11.062500,43.73
16:27:11.078125,39.79
16:27:11.093750,19.66
16:27:11.109375,-11.64
16:27:11.125000,-47.89
16:27:11.140625,-83.05
16:27:11.156250,-112.11
16:27:11.171875,-131.28
16:27:11.187500,-139.59
16:27:11.203125,-138.14
16:27:11.218750,-130.48
16:27:11.234375,-121.69
16:27:11.250000,-116.47
16:27:11.265625,-117.07
16:27:11.281250,-121.91
16:27:11.296875,-126.08
16:27:11.312500,-122.89
16:27:11.328125,-109.32
16:27:11.343750,-86.38
16:27:11.359375,-60.41
16:27:11.375000,-40.84
16:27:11.390625,-36.04
16:27:11.406250,-49.27
16:27:11.421875,-76.75
16:27:11.437500,-109.15
16:27:11.453125,-134.73
16:27:11.468750,-147.67
16:27:11.484375,-147.18
16:27:11.500000,-137.96
16:27:11.515625,-126.34
16:27:11.531250,-116.06
16:27:11.546875,-106.08
16:27:11.562500,-91.76
16:27:11.578125,-68.20
16:27:11.593750,-32.22
16:27:11.609375,11.91
16:27:11.625000,58.84
16:27:11.640625,103.97
16:27:11.656250,146.41
16:27:11.671875,189.63
16:27:11.687500,239.49
16:27:11.703125,300.62
16:27:11.718750,363.38
16:27:11.734375,433.17
16:27:11.750000,497.82
16:27:11.765625,545.56
16:27:11.781250,567.70
16:27:11.796875,561.58
16:27:11.812500,531.11
16:27:11.828125,484.61
16:27:11.843750,430.93
16:27:11.859375,375.95
16:27:11.875000,322.64
16:27:11.890625,267.86
16:27:11.906250,210.02
16:27:11.921875,150.21
16:27:11.937500,92.68
16:27:11.953125,42.84
16:27:11.968750,4.07
16:27:11.984375,-24.56
16:27:12,-48.12
16:27:12.015625,-72.31
16:27:12.031250,-103.62
16:27:12.046875,-143.24
16:27:12.062500,-187.43
16:27:12.078125,-228.51
16:27:12.093750,-257.23
16:27:12.109375,-265.34
16:27:12.125000,-247.75
16:27:12.140625,-204.06
16:27:12.156250,-138.47
16:27:12.171875,-61.38
16:27:12.187500,14.56
16:27:12.203125,76.52
16:27:12.218750,114.54
16:27:12.234375,123.95
16:27:12.250000,106.34
16:27:12.265625,68.48
16:27:12.281250,20.06
16:27:12.296875,-28.96
16:27:12.312500,-71.85
16:27:12.328125,-104.89
16:27:12.343750,-127.20
16:27:12.359375,-139.38
16:27:12.375000,-142.49
16:27:12.390625,-137.88
16:27:12.406250,-128.34
16:27:12.421875,-119.10
16:27:12.437500,-117.29
16:27:12.453125,-129.75
16:27:12.468750,-158.92
16:27:12.484375,-199.75
16:27:12.500000,-239.83
16:27:12.515625,-263.60
16:27:12.531250,-259.25
16:27:12.546875,-224.68
16:27:12.562500,-168.88
16:27:12.578125,-107.60
16:27:12.593750,-55.65
16:27:12.609375,-20.27
16:27:12.625000,0.86
16:27:12.640625,15.96
16:27:12.656250,32.40
16:27:12.671875,51.71
16:27:12.687500,69.23
16:27:12.703125,78.18
16:27:12.718750,75.14
16:27:12.734375,63.20
16:27:12.750000,50.52
16:27:12.765625,45.78
16:27:12.781250,53.47
16:27:12.796875,72.15
16:27:12.812500,96.19
16:27:12.828125,120.11
16:27:12.843750,141.84
16:27:12.859375,163.33
16:27:12.875000,188.15
16:27:12.890625,217.92
16:27:12.906250,249.97
16:27:12.921875,277.88
16:27:12.937500,294.50
16:27:12.953125,295.63
16:27:12.968750,282.24
16:27:12.984375,259.82
16:27:13,235.32
16:27:13.015625,213.78
16:27:13.031250,196.25
16:27:13.046875,180.29
16:27:13.062500,162.31
16:27:13.078125,140.14
16:27:13.093750,114.23
16:27:13.109375,86.85
16:27:13.125000,60.35
16:27:13.140625,35.67
16:27:13.156250,12.05
16:27:13.171875,-11.83
16:27:13.187500,-36.60
16:27:13.203125,-61.29
16:27:13.218750,-83.78
16:27:13.234375,-102.12
16:27:13.250000,-115.75
16:27:13.265625,-126.04
16:27:13.281250,-135.81
16:27:13.296875,-147.77
16:27:13.312500,-163.37
16:27:13.328125,-181.75
16:27:13.343750,-200.32
16:27:13.359375,-215.89
16:27:13.375000,-226.25
16:27:13.390625,-231.37
16:27:13.406250,-233.43
16:27:13.421875,-236.22
16:27:13.437500,-243.85
16:27:13.453125,-259.73
16:27:13.468750,-285.73
16:27:13.484375,-321.45
16:27:13.500000,-363.55
16:27:13.515625,-405.83
16:27:13.531250,-440.27
16:27:13.546875,-459.34
16:27:13.562500,-458.84
16:27:13.578125,-439.43
16:27:13.593750,-406.36
16:27:13.609375,-366.85
16:27:13.625000,-326.49
16:27:13.640625,-286.64
16:27:13.656250,-244.48
16:27:13.671875,-195.68
16:27:13.687500,-138.50
16:27:13.703125,-76.78
16:27:13.718750,-19.82
16:27:13.734375,20.44
16:27:13.750000,33.81
16:27:13.765625,15.18
16:27:13.781250,-34.11
16:27:13.796875,-107.11
16:27:13.812500,-193.31
16:27:13.828125,-280.89
16:27:13.843750,-358.82
16:27:13.859375,-418.32
16:27:13.875000,-454.15
16:27:13.890625,-465.25
16:27:13.906250,-454.57
16:27:13.921875,-428.06
16:27:13.937500,-392.77
16:27:13.953125,-354.92
16:27:13.968750,-318.68
16:27:13.984375,-285.98
16:27:14,-257.11
16:27:14.015625,-231.63
16:27:14.031250,-208.71
16:27:14.046875,-187.21
16:27:14.062500,-165.62
16:27:14.078125,-142.38
16:27:14.093750,-116.36
16:27:14.109375,-87.53
16:27:14.125000,-57.00
16:27:14.140625,-26.51
16:27:14.156250,2.04
16:27:14.171875,27.59
16:27:14.187500,50.18
16:27:14.203125,70.99
16:27:14.218750,91.92
16:27:14.234375,114.97
16:27:14.250000,141.56
16:27:14.265625,172.12
16:27:14.281250,205.97
16:27:14.296875,241.59
16:27:14.312500,277.35
16:27:14.328125,312.01
16:27:14.343750,345.09
16:27:14.359375,377.01
16:27:14.375000,408.71
16:27:14.390625,441.38
16:27:14.406250,476.39
16:27:14.421875,515.31
16:27:14.437500,559.67
16:27:14.453125,610.07
16:27:14.468750,664.92
16:27:14.484375,719.39
16:27:14.500000,765.72
16:27:14.515625,795.18
16:27:14.531250,801.05
16:27:14.546875,781.27
16:27:14.562500,739.27
16:27:14.578125,682.70
16:27:14.593750,620.53
16:27:14.609375,560.18
16:27:14.625000,505.83
16:27:14.640625,458.41
16:27:14.656250,416.87
16:27:14.671875,379.58
16:27:14.687500,345.21
16:27:14.703125,312.76
16:27:14.718750,281.45
16:27:14.734375,250.55
16:27:14.750000,219.34
16:27:14.765625,187.68
16:27:14.781250,155.99
16:27:14.796875,125.21
16:27:14.812500,96.60
16:27:14.828125,70.99
16:27:14.843750,48.03
16:27:14.859375,26.09
16:27:14.875000,3.10
16:27:14.890625,-21.96
16:27:14.906250,-47.48
16:27:14.921875,-69.22
16:27:14.937500,-81.85
16:27:14.953125,-82.03
16:27:14.968750,-70.49
16:27:14.984375,-52.66
16:27:15,-36.58
16:27:15.015625,-29.54
16:27:15.031250,-35.34
16:27:15.046875,-53.43
16:27:15.062500,-80.23
16:27:15.078125,-110.92
16:27:15.093750,-140.92
16:27:15.109375,-166.36
16:27:15.125000,-184.15
16:27:15.140625,-192.47
16:27:15.156250,-191.66
16:27:15.171875,-184.94
16:27:15.187500,-177.78
16:27:15.203125,-176.01
16:27:15.218750,-183.42
16:27:15.234375,-200.05
16:27:15.250000,-223.04
16:27:15.265625,-248.33
16:27:15.281250,-273.06
16:27:15.296875,-297.03
16:27:15.312500,-322.66
16:27:15.328125,-353.74
16:27:15.343750,-393.60
16:27:15.359375,-443.18
16:27:15.375000,-499.73
16:27:15.390625,-556.62
16:27:15.406250,-604.58
16:27:15.421875,-634.31
16:27:15.437500,-639.68
16:27:15.453125,-620.22
16:27:15.468750,-580.85
16:27:15.484375,-529.88
16:27:15.500000,-475.30
16:27:15.515625,-421.89
16:27:15.531250,-370.44
16:27:15.546875,-318.89
16:27:15.562500,-264.81
16:27:15.578125,-207.38
16:27:15.593750,-147.88
16:27:15.609375,-88.93
16:27:15.625000,-33.14
16:27:15.640625,18.23
16:27:15.656250,65.53
16:27:15.671875,110.32
16:27:15.687500,154.76
16:27:15.703125,201.26
16:27:15.718750,251.91
16:27:15.734375,308.28
16:27:15.750000,370.44
16:27:15.765625,436.02
16:27:15.781250,499.82
16:27:15.796875,554.39
16:27:15.812500,591.85
16:27:15.828125,606.51
16:27:15.843750,596.88
16:27:15.859375,566.25
16:27:15.875000,521.45
16:27:15.890625,469.86
16:27:15.906250,417.62
16:27:15.921875,368.50
16:27:15.937500,324.28
16:27:15.953125,285.94
16:27:15.968750,254.56
16:27:15.984375,231.13
16:27:16,215.96
16:27:16.015625,208.12
16:27:16.031250,204.17
16:27:16.046875,200.33
16:27:16.062500,193.86
16:27:16.078125,183.89
16:27:16.093750,171.31
16:27:16.109375,157.91
16:27:16.125000,144.85
16:27:16.140625,131.89
16:27:16.156250,117.49
16:27:16.171875,96.65
16:27:16.187500,64.94
16:27:16.203125,20.00
16:27:16.218750,-37.35
16:27:16.234375,-103.18
16:27:16.250000,-171.88
16:27:16.265625,-238.17
16:27:16.281250,-298.53
16:27:16.296875,-351.55
16:27:16.312500,-401.99
16:27:16.328125,-455.26
16:27:16.343750,-515.46
16:27:16.359375,-583.72
16:27:16.375000,-657.68
16:27:16.390625,-732.90
16:27:16.406250,-805.02
16:27:16.421875,-871.13
16:27:16.437500,-930.15
16:27:16.453125,-988.09
16:27:16.468750,-1051.02
16:27:16.484375,-1122.95
16:27:16.500000,-1203.91
16:27:16.515625,-1289.28
16:27:16.531250,-1371.59
16:27:16.546875,-1443.33
16:27:16.562500,-1498.87
16:27:16.578125,-1498.65
16:27:16.593750,-1414.71
16:27:16.609375,-1233.40
16:27:16.625000,-963.77
16:27:16.640625,-636.91
16:27:16.656250,-293.88
16:27:16.671875,28.91
16:27:16.687500,308.56
16:27:16.703125,536.45
16:27:16.718750,714.19
16:27:16.734375,843.02
16:27:16.750000,926.17
16:27:16.765625,968.08
16:27:16.781250,974.90
16:27:16.796875,955.59
16:27:16.812500,920.45
16:27:16.828125,879.10
16:27:16.843750,839.02
16:27:16.859375,804.88
16:27:16.875000,773.88
16:27:16.890625,741.17
16:27:16.906250,702.82
16:27:16.921875,654.58
16:27:16.937500,595.92
16:27:16.953125,529.45
16:27:16.968750,459.01
16:27:16.984375,387.90
16:27:17,318.19
16:27:17.015625,248.53
16:27:17.031250,179.93
16:27:17.046875,116.11
16:27:17.062500,62.31
16:27:17.078125,24.62
16:27:17.093750,6.66
16:27:17.109375,7.56
16:27:17.125000,22.55
16:27:17.140625,45.27
16:27:17.156250,69.11
16:27:17.171875,88.97
16:27:17.187500,103.56
16:27:17.203125,111.38
16:27:17.218750,110.82
16:27:17.234375,100.57
16:27:17.250000,81.25
16:27:17.265625,56.84
16:27:17.281250,34.19
16:27:17.296875,20.91
16:27:17.312500,22.14
16:27:17.328125,38.06
16:27:17.343750,63.36
16:27:17.359375,90.20
16:27:17.375000,110.76
16:27:17.390625,119.79
16:27:17.406250,115.80
16:27:17.421875,102.00
16:27:17.437500,83.17
16:27:17.453125,64.91
16:27:17.468750,52.34
16:27:17.484375,48.02
16:27:17.500000,51.43
16:27:17.515625,58.85
16:27:17.531250,64.10
16:27:17.546875,61.66
16:27:17.562500,48.92
16:27:17.578125,27.29
16:27:17.593750,1.03
16:27:17.609375,-25.19
16:27:17.625000,-48.53
16:27:17.640625,-68.36
16:27:17.656250,-85.38
16:27:17.671875,-100.07
16:27:17.687500,-111.84
16:27:17.703125,-119.37
16:27:17.718750,-121.83
16:27:17.734375,-119.77
16:27:17.750000,-115.15
16:27:17.765625,-110.52
16:27:17.781250,-108.01
16:27:17.796875,-108.33
16:27:17.812500,-110.69
16:27:17.828125,-113.16
16:27:17.843750,-114.25
16:27:17.859375,-112.49
16:27:17.875000,-107.76
16:27:17.890625,-101.10
16:27:17.906250,-94.07
16:27:17.921875,-87.93
16:27:17.937500,-83.14
16:27:17.953125,-79.30
16:27:17.968750,-75.45
16:27:17.984375,-70.44
16:27:18,-63.74
16:27:18.015625,-55.75
16:27:18.031250,-47.55
16:27:18.046875,-40.49
16:27:18.062500,-35.73
16:27:18.078125,-33.83
16:27:18.093750,-34.73
16:27:18.109375,-37.81
16:27:18.125000,-41.91
16:27:18.140625,-46.01
16:27:18.156250,-49.60
16:27:18.171875,-52.64
16:27:18.187500,-55.37
16:27:18.203125,-58.13
16:27:18.218750,-61.05
16:27:18.234375,-64.03
16:27:18.250000,-66.72
16:27:18.265625,-68.27
16:27:18.281250,-68.07
16:27:18.296875,-66.02
16:27:18.312500,-62.43
16:27:18.328125,-57.84
16:27:18.343750,-52.65
16:27:18.359375,-46.68
16:27:18.375000,-38.87
16:27:18.390625,-30.53
16:27:18.406250,-21.40
16:27:18.421875,-11.00
16:27:18.437500,0.71
16:27:18.453125,13.21
16:27:18.468750,25.45
16:27:18.484375,36.34
16:27:18.500000,45.23
16:27:18.515625,52.34
16:27:18.531250,58.67
16:27:18.546875,66.11
16:27:18.562500,76.25
16:27:18.578125,89.71
16:27:18.593750,105.92
16:27:18.609375,123.59
16:27:18.625000,141.10
16:27:18.640625,157.36
16:27:18.656250,172.18
16:27:18.671875,186.22
16:27:18.687500,201.13
16:27:18.703125,218.99
16:27:18.718750,242.14
16:27:18.734375,272.62
16:27:18.750000,311.15
16:27:18.765625,355.74
16:27:18.781250,400.77
16:27:18.796875,437.48
16:27:18.812500,456.49
16:27:18.828125,451.18
16:27:18.843750,420.35
16:27:18.859375,368.60
16:27:18.875000,304.31
16:27:18.890625,236.10
16:27:18.906250,169.81
16:27:18.921875,107.40
16:27:18.937500,48.02
16:27:18.953125,-9.93
16:27:18.968750,-66.85
16:27:18.984375,-120.71
16:27:19,-168.20
16:27:19.015625,-205.47
16:27:19.031250,-228.79
16:27:19.046875,-235.07
16:27:19.062500,-222.44
16:27:19.078125,-191.10
16:27:19.093750,-144.01
16:27:19.109375,-86.71
16:27:19.125000,-26.05
16:27:19.140625,30.12
16:27:19.156250,74.91
16:27:19.171875,103.79
16:27:19.187500,115.75
16:27:19.203125,113.50
16:27:19.218750,102.96
16:27:19.234375,91.82
16:27:19.250000,87.33
16:27:19.265625,94.95
16:27:19.281250,115.08
16:27:19.296875,142.93
16:27:19.312500,170.47
16:27:19.328125,189.57
16:27:19.343750,195.21
16:27:19.359375,187.17
16:27:19.375000,169.53
16:27:19.390625,141.62
16:27:19.406250,105.83
16:27:19.421875,65.26
16:27:19.437500,23.60
16:27:19.453125,-15.34
16:27:19.468750,-48.14
16:27:19.484375,-72.17
16:27:19.500000,-86.47
16:27:19.515625,-92.48
16:27:19.531250,-93.62
16:27:19.546875,-93.18
16:27:19.562500,-93.86
16:27:19.578125,-96.22
16:27:19.593750,-98.79
16:27:19.609375,-99.26
16:27:19.625000,-95.76
16:27:19.640625,-88.20
16:27:19.656250,-78.71
16:27:19.671875,-70.87
16:27:19.687500,-66.97
16:27:19.703125,-70.27
16:27:19.718750,-82.69
16:27:19.734375,-104.33
16:27:19.750000,-133.26
16:27:19.765625,-165.36
16:27:19.781250,-194.81
16:27:19.796875,-215.77
16:27:19.812500,-222.36
16:27:19.828125,-212.80
16:27:19.843750,-190.98
16:27:19.859375,-164.28
16:27:19.875000,-140.29
16:27:19.890625,-123.61
16:27:19.906250,-114.54
16:27:19.921875,-110.28
16:27:19.937500,-107.72
16:27:19.953125,-105.34
16:27:19.968750,-103.73
16:27:19.984375,-104.23
16:27:20,-106.62
16:27:20.015625,-108.48
16:27:20.031250,-106.11
16:27:20.046875,-96.98
16:27:20.062500,-80.50
16:27:20.078125,-59.15
16:27:20.093750,-37.08
16:27:20.109375,-18.21
16:27:20.125000,-4.22
16:27:20.140625,6.48
16:27:20.156250,17.42
16:27:20.171875,32.23
16:27:20.187500,52.82
16:27:20.203125,78.42
16:27:20.218750,105.65
16:27:20.234375,129.85
16:27:20.250000,146.29
16:27:20.265625,151.31
16:27:20.281250,143.49
16:27:20.296875,124.39
16:27:20.312500,99.11
16:27:20.328125,75.50
16:27:20.343750,61.37
16:27:20.359375,60.72
16:27:20.375000,70.94
16:27:20.390625,82.63
16:27:20.406250,82.80
16:27:20.421875,60.99
16:27:20.437500,14.35
16:27:20.453125,-50.83
16:27:20.468750,-119.28
16:27:20.484375,-172.62
16:27:20.500000,-196.59
16:27:20.515625,-186.11
16:27:20.531250,-145.98
16:27:20.546875,-88.25
16:27:20.562500,-27.61
16:27:20.578125,22.69
16:27:20.593750,53.70
16:27:20.609375,62.13
16:27:20.625000,49.82
16:27:20.640625,22.76
16:27:20.656250,-10.60
16:27:20.671875,-41.61
16:27:20.687500,-64.00
16:27:20.703125,-75.66
16:27:20.718750,-79.12
16:27:20.734375,-79.78
16:27:20.750000,-82.72
16:27:20.765625,-90.17
16:27:20.781250,-100.13
16:27:20.796875,-107.39
16:27:20.812500,-105.98
16:27:20.828125,-92.23
16:27:20.843750,-66.81
16:27:20.859375,-35.13
16:27:20.875000,-5.93
16:27:20.890625,11.66
16:27:20.906250,10.84
16:27:20.921875,-10.23
16:27:20.937500,-48.04
16:27:20.953125,-94.57
16:27:20.968750,-140.13
16:27:20.984375,-176.11
16:27:21,-196.94
16:27:21.015625,-200.87
16:27:21.031250,-189.10
16:27:21.046875,-164.76
16:27:21.062500,-132.16
16:27:21.078125,-96.42
16:27:21.093750,-62.93
16:27:21.109375,-36.07
16:27:21.125000,-17.41
16:27:21.140625,-4.86
16:27:21.156250,5.87
16:27:21.171875,18.00
16:27:21.187500,30.66
16:27:21.203125,38.48
16:27:21.218750,34.42
16:27:21.234375,14.69
16:27:21.250000,-17.77
16:27:21.265625,-53.84
16:27:21.281250,-82.29
16:27:21.296875,-95.58
16:27:21.312500,-93.23
16:27:21.328125,-81.12
16:27:21.343750,-67.42
16:27:21.359375,-58.09
16:27:21.375000,-54.56
16:27:21.390625,-54.80
16:27:21.406250,-56.18
16:27:21.421875,-57.07
16:27:21.437500,-58.24
16:27:21.453125,-61.42
16:27:21.468750,-67.46
16:27:21.484375,-75.33
16:27:21.500000,-82.37
16:27:21.515625,-85.31
16:27:21.531250,-82.02
16:27:21.546875,-72.33
16:27:21.562500,-56.93
16:27:21.578125,-37.82
16:27:21.593750,-17.33
16:27:21.609375,2.74
16:27:21.625000,21.65
16:27:21.640625,39.90
16:27:21.656250,58.94
16:27:21.671875,80.38
16:27:21.687500,105.19
16:27:21.703125,135.10
16:27:21.718750,170.62
16:27:21.734375,210.98
16:27:21.750000,254.54
16:27:21.765625,299.28
16:27:21.781250,343.56
16:27:21.796875,386.63
16:27:21.812500,428.48
16:27:21.828125,469.64
16:27:21.843750,513.60
16:27:21.859375,564.16
16:27:21.875000,624.47
16:27:21.890625,695.40
16:27:21.906250,774.18
16:27:21.921875,854.07
16:27:21.937500,925.67
16:27:21.953125,979.81
16:27:21.968750,994.43
16:27:21.984375,956.33
16:27:22,862.82
16:27:22.015625,723.24
16:27:22.031250,555.86
16:27:22.046875,381.19
16:27:22.062500,215.58
16:27:22.078125,68.32
16:27:22.093750,-56.87
16:27:22.109375,-159.32
16:27:22.125000,-237.19
16:27:22.140625,-289.85
16:27:22.156250,-318.81
16:27:22.171875,-328.24
16:27:22.187500,-324.02
16:27:22.203125,-312.00
16:27:22.218750,-296.78
16:27:22.234375,-280.71
16:27:22.250000,-264.43
16:27:22.265625,-246.20
16:27:22.281250,-224.82
16:27:22.296875,-200.09
16:27:22.312500,-174.01
16:27:22.328125,-149.64
16:27:22.343750,-129.91
16:27:22.359375,-117.00
16:27:22.375000,-111.35
16:27:22.390625,-112.15
16:27:22.406250,-116.81
16:27:22.421875,-122.79
16:27:22.437500,-128.19
16:27:22.453125,-131.95
16:27:22.468750,-133.48
16:27:22.484375,-132.27
16:27:22.500000,-128.14
16:27:22.515625,-120.67
16:27:22.531250,-109.76
16:27:22.546875,-95.54
16:27:22.562500,-79.13
16:27:22.578125,-62.57
16:27:22.593750,-48.40
16:27:22.609375,-39.23
16:27:22.625000,-33.81
16:27:22.640625,-31.92
16:27:22.656250,-33.31
16:27:22.671875,-37.94
16:27:22.687500,-46.02
16:27:22.703125,-57.92
16:27:22.718750,-73.99
16:27:22.734375,-93.99
16:27:22.750000,-116.81
16:27:22.765625,-140.59
16:27:22.781250,-163.84
16:27:22.796875,-185.30
16:27:22.812500,-204.48
16:27:22.828125,-221.68
16:27:22.843750,-237.77
16:27:22.859375,-253.89
16:27:22.875000,-271.30
16:27:22.890625,-291.28
16:27:22.906250,-314.84
16:27:22.921875,-342.10
16:27:22.937500,-370.75
16:27:22.953125,-395.67
16:27:22.968750,-409.91
16:27:22.984375,-407.00
16:27:23,-383.38
16:27:23.015625,-339.75
16:27:23.031250,-280.87
16:27:23.046875,-213.63
16:27:23.062500,-144.93
16:27:23.078125,-79.71
16:27:23.093750,-21.12
16:27:23.109375,28.70
16:27:23.125000,67.89
16:27:23.140625,94.82
16:27:23.156250,108.66
16:27:23.171875,110.35
16:27:23.187500,103.00
16:27:23.203125,91.07
16:27:23.218750,79.11
16:27:23.234375,70.05
16:27:23.250000,63.94
16:27:23.265625,57.87
16:27:23.281250,47.42
16:27:23.296875,28.99
16:27:23.312500,2.05
16:27:23.328125,-30.13
16:27:23.343750,-62.10
16:27:23.359375,-88.87
16:27:23.375000,-108.35
16:27:23.390625,-121.99
16:27:23.406250,-133.61
16:27:23.421875,-147.07
16:27:23.437500,-164.25
16:27:23.453125,-184.11
16:27:23.468750,-203.06
16:27:23.484375,-216.65
16:27:23.500000,-220.98
16:27:23.515625,-213.70
16:27:23.531250,-194.71
16:27:23.546875,-166.52
16:27:23.562500,-133.69
16:27:23.578125,-101.42
16:27:23.593750,-73.85
16:27:23.609375,-52.76
16:27:23.625000,-37.31
16:27:23.640625,-25.25
16:27:23.656250,-15.00
16:27:23.671875,-6.97
16:27:23.687500,-3.20
16:27:23.703125,-5.98
16:27:23.718750,-15.90
16:27:23.734375,-30.84
16:27:23.750000,-46.38
16:27:23.765625,-57.28
16:27:23.781250,-58.66
16:27:23.796875,-47.25
16:27:23.812500,-22.04
16:27:23.828125,15.29
16:27:23.843750,59.81
16:27:23.859375,103.26
16:27:23.875000,135.16
16:27:23.890625,145.47
16:27:23.906250,128.41
16:27:23.921875,85.56
16:27:23.937500,26.39
16:27:23.953125,-34.56
16:27:23.968750,-82.95
16:27:23.984375,-109.80
16:27:24,-114.07
16:27:24.015625,-101.60
16:27:24.031250,-81.22
16:27:24.046875,-60.57
16:27:24.062500,-43.81
16:27:24.078125,-31.89
16:27:24.093750,-24.68
16:27:24.109375,-22.74
16:27:24.125000,-27.78
16:27:24.140625,-41.35
16:27:24.156250,-63.13
16:27:24.171875,-89.98
16:27:24.187500,-116.51
16:27:24.203125,-137.27
16:27:24.218750,-148.86
16:27:24.234375,-151.26
16:27:24.250000,-147.38
16:27:24.265625,-141.48
16:27:24.281250,-136.91
16:27:24.296875,-134.40
16:27:24.312500,-131.79
16:27:24.328125,-125.11
16:27:24.343750,-110.63
16:27:24.359375,-86.90
16:27:24.375000,-55.63
16:27:24.390625,-21.26
16:27:24.406250,10.93
16:27:24.421875,37.09
16:27:24.437500,56.32
16:27:24.453125,70.98
16:27:24.468750,85.29
16:27:24.484375,103.40
16:27:24.500000,127.84
16:27:24.515625,159.10
16:27:24.531250,196.23
16:27:24.546875,237.53
16:27:24.562500,280.44
16:27:24.578125,320.60
16:27:24.593750,351.75
16:27:24.609375,367.39
16:27:24.625000,363.85
16:27:24.640625,343.08
16:27:24.656250,312.76
16:27:24.671875,283.15
16:27:24.687500,261.93
16:27:24.703125,250.01
16:27:24.718750,241.26
16:27:24.734375,226.43
16:27:24.750000,199.04
16:27:24.765625,159.68
16:27:24.781250,116.08
16:27:24.796875,79.16
16:27:24.812500,57.46
16:27:24.828125,53.75
16:27:24.843750,65.14
16:27:24.859375,86.14
16:27:24.875000,111.84
16:27:24.890625,139.24
16:27:24.906250,166.21
16:27:24.921875,189.63
16:27:24.937500,204.64
16:27:24.953125,206.04
16:27:24.968750,191.24
16:27:24.984375,162.67
16:27:25,127.83
16:27:25.015625,96.75
16:27:25.031250,78.04
16:27:25.046875,75.87
16:27:25.062500,89.39
16:27:25.078125,114.16
16:27:25.093750,144.25
16:27:25.109375,174.16
16:27:25.125000,199.22
16:27:25.140625,215.46
16:27:25.156250,219.58
16:27:25.171875,209.42
16:27:25.187500,184.29
16:27:25.203125,144.86
16:27:25.218750,92.72
16:27:25.234375,30.36
16:27:25.250000,-37.96
16:27:25.265625,-105.25
16:27:25.281250,-161.43
16:27:25.296875,-195.02
16:27:25.312500,-197.15
16:27:25.328125,-165.58
16:27:25.343750,-107.13
16:27:25.359375,-36.59
16:27:25.375000,27.20
16:27:25.390625,67.27
16:27:25.406250,73.83
16:27:25.421875,47.06
16:27:25.437500,-3.13
16:27:25.453125,-60.20
16:27:25.468750,-105.93
16:27:25.484375,-125.56
16:27:25.500000,-112.12
16:27:25.515625,-68.47
16:27:25.531250,-6.18
16:27:25.546875,58.14
16:27:25.562500,107.94
16:27:25.578125,131.32
16:27:25.593750,123.13
16:27:25.609375,85.44
16:27:25.625000,25.98
16:27:25.640625,-43.72
16:27:25.656250,-110.37
16:27:25.671875,-160.66
16:27:25.687500,-183.34
16:27:25.703125,-171.53
16:27:25.718750,-125.23
16:27:25.734375,-52.76
16:27:25.750000,30.68
16:27:25.765625,106.87
16:27:25.781250,160.18
16:27:25.796875,182.16
16:27:25.812500,173.29
16:27:25.828125,141.53
16:27:25.843750,98.64
16:27:25.859375,56.83
16:27:25.875000,26.43
16:27:25.890625,15.19
16:27:25.906250,28.12
16:27:25.921875,66.72
16:27:25.937500,127.74
16:27:25.953125,202.46
16:27:25.968750,277.70
16:27:25.984375,339.19
16:27:26,376.21
16:27:26.015625,384.90
16:27:26.031250,369.01
16:27:26.046875,337.23
16:27:26.062500,298.92
16:27:26.078125,260.86
16:27:26.093750,225.69
16:27:26.109375,192.78
16:27:26.125000,160.15
16:27:26.140625,126.65
16:27:26.156250,93.27
16:27:26.171875,62.85
16:27:26.187500,38.74
16:27:26.203125,23.14
16:27:26.218750,15.85
16:27:26.234375,13.96
16:27:26.250000,12.99
16:27:26.265625,8.57
16:27:26.281250,-1.73
16:27:26.296875,-17.61
16:27:26.312500,-36.78
16:27:26.328125,-56.68
16:27:26.343750,-76.29
16:27:26.359375,-96.64
16:27:26.375000,-119.67
16:27:26.390625,-146.43
16:27:26.406250,-175.47
16:27:26.421875,-202.50
16:27:26.437500,-221.66
16:27:26.453125,-227.39
16:27:26.468750,-215.94
16:27:26.484375,-186.10
16:27:26.500000,-139.28
16:27:26.515625,-79.75
16:27:26.531250,-14.38
16:27:26.546875,47.91
16:27:26.562500,97.73
16:27:26.578125,127.78
16:27:26.593750,134.96
16:27:26.609375,121.56
16:27:26.625000,94.25
16:27:26.640625,61.12
16:27:26.656250,28.66
16:27:26.671875,-0.30
16:27:26.687500,-26.72
16:27:26.703125,-53.65
16:27:26.718750,-83.83
16:27:26.734375,-117.95
16:27:26.750000,-153.83
16:27:26.765625,-187.07
16:27:26.781250,-212.66
16:27:26.796875,-226.70
16:27:26.812500,-227.70
16:27:26.828125,-217.44
16:27:26.843750,-200.60
16:27:26.859375,-183.65
16:27:26.875000,-173.33
16:27:26.890625,-175.22
16:27:26.906250,-192.45
16:27:26.921875,-224.87
16:27:26.937500,-268.55
16:27:26.953125,-316.25
16:27:26.968750,-358.98
16:27:26.984375,-388.46
16:27:27,-399.55
16:27:27.015625,-391.62
16:27:27.031250,-368.06
16:27:27.046875,-334.06
16:27:27.062500,-293.76
16:27:27.078125,-248.63
16:27:27.093750,-198.53
16:27:27.109375,-144.57
16:27:27.125000,-91.69
16:27:27.140625,-49.09
16:27:27.156250,-26.44
16:27:27.171875,-28.49
16:27:27.187500,-51.15
16:27:27.203125,-82.11
16:27:27.218750,-106.23
16:27:27.234375,-112.49
16:27:27.250000,-98.44
16:27:27.265625,-69.76
16:27:27.281250,-36.00
16:27:27.296875,-4.79
16:27:27.312500,20.93
16:27:27.328125,42.02
16:27:27.343750,60.10
16:27:27.359375,75.27
16:27:27.375000,86.12
16:27:27.390625,92.57
16:27:27.406250,98.52
16:27:27.421875,111.45
16:27:27.437500,139.16
16:27:27.453125,184.95
16:27:27.468750,244.73
16:27:27.484375,307.65
16:27:27.500000,360.08
16:27:27.515625,390.64
16:27:27.531250,394.03
16:27:27.546875,372.01
16:27:27.562500,331.76
16:27:27.578125,282.81
16:27:27.593750,233.66
16:27:27.609375,189.92
16:27:27.625000,153.76
16:27:27.640625,124.76
16:27:27.656250,101.11
16:27:27.671875,80.50
16:27:27.687500,60.69
16:27:27.703125,38.97
16:27:27.718750,12.76
16:27:27.734375,-19.77
16:27:27.750000,-58.01
16:27:27.765625,-97.68
16:27:27.781250,-130.92
16:27:27.796875,-149.29
16:27:27.812500,-147.80
16:27:27.828125,-127.63
16:27:27.843750,-97.10
16:27:27.859375,-68.00
16:27:27.875000,-50.59
16:27:27.890625,-49.38
16:27:27.906250,-62.32
16:27:27.921875,-82.34
16:27:27.937500,-103.38
16:27:27.953125,-123.42
16:27:27.968750,-144.34
16:27:27.984375,-170.18
16:27:28,-202.12
16:27:28.015625,-235.67
16:27:28.031250,-261.75
16:27:28.046875,-271.08
16:27:28.062500,-258.01
16:27:28.078125,-226.08
16:27:28.093750,-186.14
16:27:28.109375,-151.14
16:27:28.125000,-132.05
16:27:28.140625,-133.33
16:27:28.156250,-152.08
16:27:28.171875,-181.01
16:27:28.187500,-212.62
16:27:28.203125,-241.14
16:27:28.218750,-266.43
16:27:28.234375,-291.38
16:27:28.250000,-308.33
16:27:28.265625,-308.44
16:27:28.281250,-283.45
16:27:28.296875,-229.62
16:27:28.312500,-150.41
16:27:28.328125,-65.69
16:27:28.343750,15.20
16:27:28.359375,85.75
16:27:28.375000,140.13
16:27:28.390625,173.36
16:27:28.406250,183.23
16:27:28.421875,168.82
16:27:28.437500,133.14
16:27:28.453125,83.98
16:27:28.468750,32.93
16:27:28.484375,-5.14
16:27:28.500000,-19.26
16:27:28.515625,-5.11
16:27:28.531250,33.11
16:27:28.546875,81.83
16:27:28.562500,122.44
16:27:28.578125,138.29
16:27:28.593750,121.58
16:27:28.609375,76.68
16:27:28.625000,19.85
16:27:28.640625,-29.54
16:27:28.656250,-55.98
16:27:28.671875,-53.13
16:27:28.687500,-26.13
16:27:28.703125,11.50
16:27:28.718750,44.21
16:27:28.734375,60.74
16:27:28.750000,57.77
16:27:28.765625,41.10
16:27:28.781250,20.49
16:27:28.796875,5.19
16:27:28.812500,0.48
16:27:28.828125,6.04
16:27:28.843750,17.60
16:27:28.859375,29.93
16:27:28.875000,39.36
16:27:28.890625,43.56
16:27:28.906250,42.17
16:27:28.921875,35.29
16:27:28.937500,22.48
16:27:28.953125,2.83
16:27:28.968750,-24.14
16:27:28.984375,-56.13
16:27:29,-88.84
16:27:29.015625,-115.76
16:27:29.031250,-130.37
16:27:29.046875,-127.79
16:27:29.062500,-106.50
16:27:29.078125,-68.17
16:27:29.093750,-16.50
16:27:29.109375,43.31
16:27:29.125000,105.74
16:27:29.140625,165.59
16:27:29.156250,218.41
16:27:29.171875,260.77
16:27:29.187500,290.85
16:27:29.203125,308.43
16:27:29.218750,314.50
16:27:29.234375,310.83
16:27:29.250000,299.37
16:27:29.265625,281.88
16:27:29.281250,259.66
16:27:29.296875,233.80
16:27:29.312500,205.47
16:27:29.328125,176.30
16:27:29.343750,148.40
16:27:29.359375,123.91
16:27:29.375000,104.23
16:27:29.390625,89.83
16:27:29.406250,80.42
16:27:29.421875,75.24
16:27:29.437500,73.17
16:27:29.453125,72.01
16:27:29.468750,67.82
16:27:29.484375,54.95
16:27:29.500000,28.16
16:27:29.515625,-14.01
16:27:29.531250,-66.44
16:27:29.546875,-117.56
16:27:29.562500,-153.30
16:27:29.578125,-163.19
16:27:29.593750,-145.35
16:27:29.609375,-107.43
16:27:29.625000,-62.85
16:27:29.640625,-24.49
16:27:29.656250,0.61
16:27:29.671875,12.68
16:27:29.687500,16.68
16:27:29.703125,18.00
16:27:29.718750,19.36
16:27:29.734375,20.36
16:27:29.750000,19.51
16:27:29.765625,16.30
16:27:29.781250,11.97
16:27:29.796875,8.74
16:27:29.812500,8.45
16:27:29.828125,11.18
16:27:29.843750,15.74
16:27:29.859375,20.95
16:27:29.875000,26.05
16:27:29.890625,30.96
16:27:29.906250,35.12
16:27:29.921875,36.69
16:27:29.937500,32.94
16:27:29.953125,21.51
16:27:29.968750,1.50
16:27:29.984375,-25.67
16:27:30,-56.47
16:27:30.015625,-85.74
16:27:30.031250,-107.79
16:27:30.046875,-117.23
16:27:30.062500,-110.18
16:27:30.078125,-85.81
16:27:30.093750,-47.04
16:27:30.109375,-0.72
16:27:30.125000,43.57
16:27:30.140625,76.28
16:27:30.156250,91.39
16:27:30.171875,88.65
16:27:30.187500,73.38
16:27:30.203125,54.00
16:27:30.218750,37.53
16:27:30.234375,27.89
16:27:30.250000,24.82
16:27:30.265625,25.05
16:27:30.281250,24.04
16:27:30.296875,18.32
16:27:30.312500,7.16
16:27:30.328125,-7.47
16:27:30.343750,-21.80
16:27:30.359375,-32.17
16:27:30.375000,-36.80
16:27:30.390625,-36.51
16:27:30.406250,-34.19
16:27:30.421875,-33.24
16:27:30.437500,-35.71
16:27:30.453125,-41.54
16:27:30.468750,-49.01
16:27:30.484375,-55.94
16:27:30.500000,-61.10
16:27:30.515625,-64.48
16:27:30.531250,-67.19
16:27:30.546875,-70.08
16:27:30.562500,-72.85
16:27:30.578125,-74.11
16:27:30.593750,-72.43
16:27:30.609375,-67.24
16:27:30.625000,-59.41
16:27:30.640625,-50.91
16:27:30.656250,-43.77
16:27:30.671875,-39.34
16:27:30.687500,-36.81
16:27:30.703125,-35.49
16:27:30.718750,-33.78
16:27:30.734375,-30.11
16:27:30.750000,-23.81
16:27:30.765625,-15.32
16:27:30.781250,-5.91
16:27:30.796875,2.89
16:27:30.812500,9.97
16:27:30.828125,14.98
16:27:30.843750,18.21
16:27:30.859375,20.55
16:27:30.875000,22.89
16:27:30.890625,25.71
16:27:30.906250,28.96
16:27:30.921875,32.29
16:27:30.937500,35.23
16:27:30.953125,37.59
16:27:30.968750,39.51
16:27:30.984375,41.35
16:27:31,43.62
16:27:31.015625,46.76
16:27:31.031250,50.83
16:27:31.046875,55.47
16:27:31.062500,60.07
16:27:31.078125,63.79
16:27:31.093750,65.96
16:27:31.109375,66.05
16:27:31.125000,63.68
16:27:31.140625,58.78
16:27:31.156250,51.54
16:27:31.171875,42.23
16:27:31.187500,31.32
16:27:31.203125,19.68
16:27:31.218750,7.90
16:27:31.234375,-3.33
16:27:31.250000,-13.38
16:27:31.265625,-21.79
16:27:31.281250,-28.26
16:27:31.296875,-32.67
16:27:31.312500,-35.19
16:27:31.328125,-36.12
16:27:31.343750,-35.80
16:27:31.359375,-34.64
16:27:31.375000,-33.00
16:27:31.390625,-31.14
16:27:31.406250,-29.24
16:27:31.421875,-27.70
16:27:31.437500,-26.28
16:27:31.453125,-24.95
16:27:31.468750,-23.70
16:27:31.484375,-22.47
16:27:31.500000,-21.31
16:27:31.515625,-20.23
16:27:31.531250,-19.28
16:27:31.546875,-18.44
16:27:31.562500,-17.71
16:27:31.578125,-16.99
16:27:31.593750,-16.26
16:27:31.609375,-15.45
16:27:31.625000,-14.60
16:27:31.640625,-13.82
16:27:31.656250,-13.20
16:27:31.671875,-12.81
16:27:31.687500,-12.71
16:27:31.703125,-12.92
16:27:31.718750,-13.36
16:27:31.734375,-13.95
16:27:31.750000,-14.52
16:27:31.765625,-14.93
16:27:31.781250,-15.12
16:27:31.796875,-14.93
16:27:31.812500,-14.18
16:27:31.828125,-13.05
16:27:31.843750,-11.12
16:27:31.859375,-8.14
16:27:31.875000,-4.13
16:27:31.890625,0.62
16:27:31.906250,5.47
16:27:31.921875,9.60
16:27:31.937500,12.16
16:27:31.953125,12.46
16:27:31.968750,11.01
16:27:31.984375,7.57
16:27:32,2.57
16:27:32.015625,-3.13
16:27:32.031250,-8.84
16:27:32.046875,-14.23
16:27:32.062500,-19.40
16:27:32.078125,-24.67
16:27:32.093750,-30.42
16:27:32.109375,-37.05
16:27:32.125000,-43.84
16:27:32.140625,-49.99
16:27:32.156250,-54.67
16:27:32.171875,-57.66
16:27:32.187500,-59.48
16:27:32.203125,-61.24
16:27:32.218750,-64.15
16:27:32.234375,-69.11
16:27:32.250000,-76.00
16:27:32.265625,-83.56
16:27:32.281250,-90.31
16:27:32.296875,-94.01
16:27:32.312500,-93.20
16:27:32.328125,-87.70
16:27:32.343750,-78.36
16:27:32.359375,-66.66
16:27:32.375000,-54.29
16:27:32.390625,-42.98
16:27:32.406250,-34.49
16:27:32.421875,-30.12
16:27:32.437500,-29.80
16:27:32.453125,-31.66
16:27:32.468750,-32.06
16:27:32.484375,-27.02
16:27:32.500000,-14.16
16:27:32.515625,5.47
16:27:32.531250,27.35
16:27:32.546875,45.43
16:27:32.562500,54.00
16:27:32.578125,51.36
16:27:32.593750,39.93
16:27:32.609375,24.65
16:27:32.625000,10.38
16:27:32.640625,-0.18
16:27:32.656250,-6.83
16:27:32.671875,-10.55
16:27:32.687500,-12.27
16:27:32.703125,-11.99
16:27:32.718750,-8.92
16:27:32.734375,-2.61
16:27:32.750000,6.31
16:27:32.765625,16.14
16:27:32.781250,24.98
16:27:32.796875,31.18
16:27:32.812500,34.31
16:27:32.828125,35.04
16:27:32.843750,34.79
16:27:32.859375,35.11
16:27:32.875000,36.85
16:27:32.890625,39.90
16:27:32.906250,43.25
16:27:32.921875,45.79
16:27:32.937500,46.55
16:27:32.953125,45.18
16:27:32.968750,41.88
16:27:32.984375,37.25
16:27:33,31.80
16:27:33.015625,25.67
16:27:33.031250,18.52
16:27:33.046875,9.64
16:27:33.062500,-1.35
16:27:33.078125,-14.60
16:27:33.093750,-29.68
16:27:33.109375,-45.72
16:27:33.125000,-61.62
16:27:33.140625,-76.32
16:27:33.156250,-89.13
16:27:33.171875,-99.80
16:27:33.187500,-108.54
16:27:33.203125,-115.43
16:27:33.218750,-120.69
16:27:33.234375,-124.49
16:27:33.250000,-126.90
16:27:33.265625,-127.93
16:27:33.281250,-127.61
16:27:33.296875,-126.10
16:27:33.312500,-123.78
16:27:33.328125,-121.23
16:27:33.343750,-118.56
16:27:33.359375,-115.91
16:27:33.375000,-113.34
16:27:33.390625,-110.67
16:27:33.406250,-107.52
16:27:33.421875,-103.28
16:27:33.437500,-97.12
16:27:33.453125,-87.95
16:27:33.468750,-78.00
16:27:33.484375,-67.98
16:27:33.500000,-58.13
16:27:33.515625,-48.30
16:27:33.531250,-37.98
16:27:33.546875,-26.56
16:27:33.562500,-13.56
16:27:33.578125,1.07
16:27:33.593750,16.79
16:27:33.609375,32.47
16:27:33.625000,47.38
16:27:33.640625,60.88
16:27:33.656250,72.97
16:27:33.671875,84.39
16:27:33.687500,96.54
16:27:33.703125,110.61
16:27:33.718750,127.08
16:27:33.734375,145.44
16:27:33.750000,164.03
16:27:33.765625,181.50
16:27:33.781250,197.25
16:27:33.796875,212.30
16:27:33.812500,228.94
16:27:33.828125,249.71
16:27:33.843750,276.02
16:27:33.859375,307.21
16:27:33.875000,340.25
16:27:33.890625,370.22
16:27:33.906250,391.63
16:27:33.921875,399.38
16:27:33.937500,390.22
16:27:33.953125,363.92
16:27:33.968750,323.58
16:27:33.984375,275.08
16:27:34,225.41
16:27:34.015625,180.27
16:27:34.031250,142.42
16:27:34.046875,111.26
16:27:34.062500,83.24
16:27:34.078125,53.60
16:27:34.093750,18.45
16:27:34.109375,-23.58
16:27:34.125000,-70.26
16:27:34.140625,-115.66
16:27:34.156250,-151.35
16:27:34.171875,-169.04
16:27:34.187500,-164.20
16:27:34.203125,-139.49
16:27:34.218750,-104.76
16:27:34.234375,-73.51
16:27:34.250000,-57.03
16:27:34.265625,-59.01
16:27:34.281250,-74.10
16:27:34.296875,-90.93
16:27:34.312500,-97.79
16:27:34.328125,-87.76
16:27:34.343750,-60.70
16:27:34.359375,-21.69
16:27:34.375000,22.09
16:27:34.390625,63.94
16:27:34.406250,98.54
16:27:34.421875,121.48
16:27:34.437500,128.90
16:27:34.453125,117.70
16:27:34.468750,86.30
16:27:34.484375,35.85
16:27:34.500000,-28.67
16:27:34.515625,-98.76
16:27:34.531250,-163.30
16:27:34.546875,-210.38
16:27:34.562500,-230.42
16:27:34.578125,-219.19
16:27:34.593750,-179.35
16:27:34.609375,-119.52
16:27:34.625000,-51.03
16:27:34.640625,16.04
16:27:34.656250,75.16
16:27:34.671875,123.46
16:27:34.687500,159.86
16:27:34.703125,183.07
16:27:34.718750,191.43
16:27:34.734375,183.80
16:27:34.750000,161.00
16:27:34.765625,125.63
16:27:34.781250,80.93
16:27:34.796875,29.58
16:27:34.812500,-26.10
16:27:34.828125,-82.49
16:27:34.843750,-132.88
16:27:34.859375,-167.71
16:27:34.875000,-177.37
16:27:34.890625,-157.02
16:27:34.906250,-110.53
16:27:34.921875,-50.93
16:27:34.937500,3.38
16:27:34.953125,35.15
16:27:34.968750,34.13
16:27:34.984375,-0.13
16:27:35,-58.95
16:27:35.015625,-128.62
16:27:35.031250,-194.95
16:27:35.046875,-246.68
16:27:35.062500,-277.21
16:27:35.078125,-284.40
16:27:35.093750,-269.65
16:27:35.109375,-236.80
16:27:35.125000,-191.02
16:27:35.140625,-137.44
16:27:35.156250,-80.16
16:27:35.171875,-21.93
16:27:35.187500,35.26
16:27:35.203125,88.73
16:27:35.218750,134.12
16:27:35.234375,165.73
16:27:35.250000,178.57
16:27:35.265625,170.42
16:27:35.281250,142.83
16:27:35.296875,100.36
16:27:35.312500,48.78
16:27:35.328125,-6.30
16:27:35.343750,-60.02
16:27:35.359375,-107.66
16:27:35.375000,-144.04
16:27:35.390625,-163.88
16:27:35.406250,-163.44
16:27:35.421875,-142.02
16:27:35.437500,-102.73
16:27:35.453125,-51.32
16:27:35.468750,5.31
16:27:35.484375,60.38
16:27:35.500000,107.72
16:27:35.515625,141.66
16:27:35.531250,157.55
16:27:35.546875,152.35
16:27:35.562500,125.91
16:27:35.578125,82.02
16:27:35.593750,28.39
16:27:35.609375,-24.89
16:27:35.625000,-67.82
16:27:35.640625,-93.09
16:27:35.656250,-97.47
16:27:35.671875,-81.16
16:27:35.687500,-47.33
16:27:35.703125,-0.72
16:27:35.718750,53.52
16:27:35.734375,110.13
16:27:35.750000,163.50
16:27:35.765625,207.29
16:27:35.781250,234.76
16:27:35.796875,240.13
16:27:35.812500,221.69
16:27:35.828125,182.00
16:27:35.843750,127.61
16:27:35.859375,67.59
16:27:35.875000,11.72
16:27:35.890625,-31.18
16:27:35.906250,-54.86
16:27:35.921875,-56.77
16:27:35.937500,-38.24
16:27:35.953125,-1.83
16:27:35.968750,48.36
16:27:35.984375,107.27
16:27:36,168.99
16:27:36.015625,226.85
16:27:36.031250,273.83
16:27:36.046875,303.31
16:27:36.062500,310.71
16:27:36.078125,285.73
16:27:36.093750,227.57
16:27:36.109375,146.04
16:27:36.125000,59.06
16:27:36.140625,-15.84
16:27:36.156250,-69.33
16:27:36.171875,-101.96
16:27:36.187500,-119.88
16:27:36.203125,-129.71
16:27:36.218750,-135.53
16:27:36.234375,-137.11
16:27:36.250000,-133.37
16:27:36.265625,-124.37
16:27:36.281250,-112.06
16:27:36.296875,-99.34
16:27:36.312500,-88.46
16:27:36.328125,-80.18
16:27:36.343750,-73.81
16:27:36.359375,-68.49
16:27:36.375000,-62.60
16:27:36.390625,-55.69
16:27:36.406250,-48.65
16:27:36.421875,-43.07
16:27:36.437500,-41.25
16:27:36.453125,-44.20
16:27:36.468750,-51.20
16:27:36.484375,-60.05
16:27:36.500000,-68.43
16:27:36.515625,-73.16
16:27:36.531250,-72.37
16:27:36.546875,-65.55
16:27:36.562500,-53.53
16:27:36.578125,-37.75
16:27:36.593750,-19.45
16:27:36.609375,0.43
16:27:36.625000,21.19
16:27:36.640625,41.24
16:27:36.656250,59.12
16:27:36.671875,72.28
16:27:36.687500,78.40
16:27:36.703125,75.87
16:27:36.718750,64.27
16:27:36.734375,44.73
16:27:36.750000,19.52
16:27:36.765625,-8.14
16:27:36.781250,-35.76
16:27:36.796875,-61.78
16:27:36.812500,-86.32
16:27:36.828125,-109.53
16:27:36.843750,-131.08
16:27:36.859375,-149.96
16:27:36.875000,-164.33
16:27:36.890625,-174.94
16:27:36.906250,-179.61
16:27:36.921875,-178.04
16:27:36.937500,-171.46
16:27:36.953125,-162.69
16:27:36.968750,-154.25
16:27:36.984375,-148.31
16:27:37,-146.64
16:27:37.015625,-150.07
16:27:37.031250,-157.86
16:27:37.046875,-167.20
16:27:37.062500,-173.96
16:27:37.078125,-169.31
16:27:37.093750,-150.44
16:27:37.109375,-118.70
16:27:37.125000,-79.75
16:27:37.140625,-41.67
16:27:37.156250,-12.68
16:27:37.171875,5.88
16:27:37.187500,16.36
16:27:37.203125,22.90
16:27:37.218750,29.60
16:27:37.234375,37.94
16:27:37.250000,47.47
16:27:37.265625,56.66
16:27:37.281250,64.33
16:27:37.296875,71.13
16:27:37.312500,79.05
16:27:37.328125,89.76
16:27:37.343750,103.41
16:27:37.359375,118.65
16:27:37.375000,132.67
16:27:37.390625,143.14
16:27:37.406250,149.42
16:27:37.421875,150.91
16:27:37.437500,149.62
16:27:37.453125,149.01
16:27:37.468750,152.70
16:27:37.484375,163.71
16:27:37.500000,183.86
16:27:37.515625,212.30
16:27:37.531250,245.43
16:27:37.546875,276.97
16:27:37.562500,299.07
16:27:37.578125,304.63
16:27:37.593750,289.29
16:27:37.609375,252.65
16:27:37.625000,198.94
16:27:37.640625,136.35
16:27:37.656250,75.06
16:27:37.671875,25.45
16:27:37.687500,-4.15
16:27:37.703125,-8.99
16:27:37.718750,11.76
16:27:37.734375,55.08
16:27:37.750000,114.67
16:27:37.765625,181.84
16:27:37.781250,246.36
16:27:37.796875,297.50
16:27:37.812500,325.81
16:27:37.828125,325.23
16:27:37.843750,294.90
16:27:37.859375,240.16
16:27:37.875000,171.18
16:27:37.890625,99.64
16:27:37.906250,35.32
16:27:37.921875,-16.52
16:27:37.937500,-55.51
16:27:37.953125,-84.61
16:27:37.968750,-107.65
16:27:37.984375,-128.30
16:27:38,-149.54
16:27:38.015625,-173.69
16:27:38.031250,-201.77
16:27:38.046875,-232.18
16:27:38.062500,-259.71
16:27:38.078125,-276.37
16:27:38.093750,-274.31
16:27:38.109375,-249.33
16:27:38.125000,-203.48
16:27:38.140625,-144.59
16:27:38.156250,-83.17
16:27:38.171875,-28.40
16:27:38.187500,14.50
16:27:38.203125,44.36
16:27:38.218750,62.24
16:27:38.234375,69.58
16:27:38.250000,67.78
16:27:38.265625,59.34
16:27:38.281250,49.13
16:27:38.296875,43.63
16:27:38.312500,48.32
16:27:38.328125,64.65
16:27:38.343750,89.09
16:27:38.359375,114.93
16:27:38.375000,135.81
16:27:38.390625,148.56
16:27:38.406250,153.70
16:27:38.421875,153.58
16:27:38.437500,149.75
16:27:38.453125,141.39
16:27:38.468750,126.52
16:27:38.484375,104.13
16:27:38.500000,75.70
16:27:38.515625,45.09
16:27:38.531250,16.46
16:27:38.546875,-8.03
16:27:38.562500,-29.29
16:27:38.578125,-50.30
16:27:38.593750,-74.26
16:27:38.609375,-102.43
16:27:38.625000,-133.79
16:27:38.640625,-166.02
16:27:38.656250,-196.71
16:27:38.671875,-224.69
16:27:38.687500,-250.26
16:27:38.703125,-274.89
16:27:38.718750,-300.33
16:27:38.734375,-328.31
16:27:38.750000,-360.33
16:27:38.765625,-397.44
16:27:38.781250,-439.81
16:27:38.796875,-485.60
16:27:38.812500,-530.41
16:27:38.828125,-567.48
16:27:38.843750,-589.40
16:27:38.859375,-590.46
16:27:38.875000,-569.02
16:27:38.890625,-528.09
16:27:38.906250,-474.21
16:27:38.921875,-415.11
16:27:38.937500,-357.22
16:27:38.953125,-304.45
16:27:38.968750,-258.15
16:27:38.984375,-217.99
16:27:39,-182.89
16:27:39.015625,-151.37
16:27:39.031250,-121.53
16:27:39.046875,-91.15
16:27:39.062500,-58.03
16:27:39.078125,-20.99
16:27:39.093750,19.41
16:27:39.109375,60.81
16:27:39.125000,99.90
16:27:39.140625,133.88
16:27:39.156250,162.47
16:27:39.171875,188.66
16:27:39.187500,217.90
16:27:39.203125,255.28
16:27:39.218750,302.37
16:27:39.234375,354.57
16:27:39.250000,401.71
16:27:39.265625,431.38
16:27:39.281250,433.70
16:27:39.296875,405.12
16:27:39.312500,349.57
16:27:39.328125,276.58
16:27:39.343750,198.03
16:27:39.359375,125.34
16:27:39.375000,67.61
16:27:39.390625,30.87
16:27:39.406250,16.79
16:27:39.421875,22.20
16:27:39.437500,39.23
16:27:39.453125,57.55
16:27:39.468750,68.10
16:27:39.484375,67.12
16:27:39.500000,57.49
16:27:39.515625,47.03
16:27:39.531250,44.13
16:27:39.546875,52.48
16:27:39.562500,69.34
16:27:39.578125,86.53
16:27:39.593750,94.68
16:27:39.609375,87.65
16:27:39.625000,65.16
16:27:39.640625,32.07
16:27:39.656250,-3.97
16:27:39.671875,-35.56
16:27:39.687500,-57.50
16:27:39.703125,-67.01
16:27:39.718750,-63.69
16:27:39.734375,-49.04
16:27:39.750000,-26.29
16:27:39.765625,-0.22
16:27:39.781250,23.68
16:27:39.796875,40.11
16:27:39.812500,45.27
16:27:39.828125,37.14
16:27:39.843750,15.78
16:27:39.859375,-17.27
16:27:39.875000,-58.91
16:27:39.890625,-103.76
16:27:39.906250,-144.61
16:27:39.921875,-173.21
16:27:39.937500,-182.72
16:27:39.953125,-170.33
16:27:39.968750,-138.40
16:27:39.984375,-92.56
16:27:40,-38.90
16:27:40.015625,19.12
16:27:40.031250,81.29
16:27:40.046875,147.69
16:27:40.062500,215.82
16:27:40.078125,279.13
16:27:40.093750,328.60
16:27:40.109375,356.75
16:27:40.125000,361.65
16:27:40.140625,347.56
16:27:40.156250,323.03
16:27:40.171875,296.63
16:27:40.187500,273.26
16:27:40.203125,253.32
16:27:40.218750,233.94
16:27:40.234375,211.86
16:27:40.250000,185.75
16:27:40.265625,156.55
16:27:40.281250,126.18
16:27:40.296875,95.89
16:27:40.312500,64.93
16:27:40.328125,30.35
16:27:40.343750,-11.95
16:27:40.359375,-65.53
16:27:40.375000,-131.30
16:27:40.390625,-205.65
16:27:40.406250,-280.30
16:27:40.421875,-343.94
16:27:40.437500,-385.73
16:27:40.453125,-399.18
16:27:40.468750,-384.72
16:27:40.484375,-349.07
16:27:40.500000,-302.35
16:27:40.515625,-253.64
16:27:40.531250,-207.77
16:27:40.546875,-164.66
16:27:40.562500,-121.00
16:27:40.578125,-72.89
16:27:40.593750,-17.90
16:27:40.609375,44.26
16:27:40.625000,111.80
16:27:40.640625,181.10
16:27:40.656250,246.82
16:27:40.671875,302.30
16:27:40.687500,340.80
16:27:40.703125,357.66
16:27:40.718750,352.12
16:27:40.734375,327.68
16:27:40.750000,290.83
16:27:40.765625,248.46
16:27:40.781250,205.61
16:27:40.796875,164.65
16:27:40.812500,126.08
16:27:40.828125,90.00
16:27:40.843750,56.99
16:27:40.859375,27.83
16:27:40.875000,2.57
16:27:40.890625,-20.36
16:27:40.906250,-43.82
16:27:40.921875,-70.92
16:27:40.937500,-103.48
16:27:40.953125,-141.64
16:27:40.968750,-184.18
16:27:40.984375,-229.09
16:27:41,-274.00
16:27:41.015625,-315.79
16:27:41.031250,-350.34
16:27:41.046875,-372.88
16:27:41.062500,-379.30
16:27:41.078125,-368.17
16:27:41.093750,-341.68
16:27:41.109375,-305.06
16:27:41.125000,-264.49
16:27:41.140625,-224.44
16:27:41.156250,-185.75
16:27:41.171875,-145.74
16:27:41.187500,-100.15
16:27:41.203125,-46.34
16:27:41.218750,14.14
16:27:41.234375,74.85
16:27:41.250000,126.12
16:27:41.265625,158.19
16:27:41.281250,164.77
16:27:41.296875,144.88
16:27:41.312500,102.60
16:27:41.328125,45.26
16:27:41.343750,-19.10
16:27:41.359375,-83.15
16:27:41.375000,-140.60
16:27:41.390625,-185.67
16:27:41.406250,-213.22
16:27:41.421875,-219.90
16:27:41.437500,-205.64
16:27:41.453125,-174.51
16:27:41.468750,-133.30
16:27:41.484375,-88.67
16:27:41.500000,-43.89
16:27:41.515625,2.02
16:27:41.531250,52.04
16:27:41.546875,107.08
16:27:41.562500,163.00
16:27:41.578125,210.12
16:27:41.593750,236.52
16:27:41.609375,233.34
16:27:41.625000,199.43
16:27:41.640625,143.07
16:27:41.656250,79.73
16:27:41.671875,27.19
16:27:41.687500,-0.13
16:27:41.703125,4.56
16:27:41.718750,38.92
16:27:41.734375,92.97
16:27:41.750000,152.77
16:27:41.765625,204.58
16:27:41.781250,238.49
16:27:41.796875,250.24
16:27:41.812500,240.87
16:27:41.828125,215.12
16:27:41.843750,178.94
16:27:41.859375,137.61
16:27:41.875000,94.37
16:27:41.890625,50.64
16:27:41.906250,6.66
16:27:41.921875,-36.85
16:27:41.937500,-77.77
16:27:41.953125,-111.90
16:27:41.968750,-133.49
16:27:41.984375,-137.35
16:27:42,-121.52
16:27:42.015625,-89.45
16:27:42.031250,-49.99
16:27:42.046875,-15.18
16:27:42.062500,4.54
16:27:42.078125,3.53
16:27:42.093750,-17.57
16:27:42.109375,-53.82
16:27:42.125000,-99.74
16:27:42.140625,-152.42
16:27:42.156250,-211.51
16:27:42.171875,-276.43
16:27:42.187500,-343.30
16:27:42.203125,-402.25
16:27:42.218750,-441.48
16:27:42.234375,-451.89
16:27:42.250000,-431.99
16:27:42.265625,-389.30
16:27:42.281250,-337.43
16:27:42.296875,-289.69
16:27:42.312500,-253.54
16:27:42.328125,-229.09
16:27:42.343750,-209.43
16:27:42.359375,-187.66
16:27:42.375000,-160.70
16:27:42.390625,-130.74
16:27:42.406250,-103.24
16:27:42.421875,-83.05
16:27:42.437500,-71.20
16:27:42.453125,-64.47
16:27:42.468750,-58.15
16:27:42.484375,-46.44
16:27:42.500000,-27.67
16:27:42.515625,-3.69
16:27:42.531250,22.03
16:27:42.546875,46.95
16:27:42.562500,70.93
16:27:42.578125,95.37
16:27:42.593750,126.08
16:27:42.609375,152.70
16:27:42.625000,169.91
16:27:42.640625,170.69
16:27:42.656250,151.72
16:27:42.671875,116.61
16:27:42.687500,75.50
16:27:42.703125,41.55
16:27:42.718750,25.15
16:27:42.734375,29.90
16:27:42.750000,51.40
16:27:42.765625,83.45
16:27:42.781250,119.56
16:27:42.796875,157.01
16:27:42.812500,195.91
16:27:42.828125,235.98
16:27:42.843750,273.39
16:27:42.859375,300.22
16:27:42.875000,307.11
16:27:42.890625,286.67
16:27:42.906250,238.92
16:27:42.921875,169.75
16:27:42.937500,90.42
16:27:42.953125,13.89
16:27:42.968750,-48.31
16:27:42.984375,-88.65
16:27:43,-104.83
16:27:43.015625,-99.25
16:27:43.031250,-77.67
16:27:43.046875,-45.28
16:27:43.062500,-6.18
16:27:43.078125,37.46
16:27:43.093750,83.93
16:27:43.109375,129.64
16:27:43.125000,167.46
16:27:43.140625,187.36
16:27:43.156250,179.94
16:27:43.171875,141.07
16:27:43.187500,75.79
16:27:43.203125,-2.43
16:27:43.218750,-75.52
16:27:43.234375,-126.99
16:27:43.250000,-147.10
16:27:43.265625,-134.72
16:27:43.281250,-95.87
16:27:43.296875,-40.08
16:27:43.312500,22.68
16:27:43.328125,83.54
16:27:43.343750,134.16
16:27:43.359375,166.21
16:27:43.375000,172.16
16:27:43.390625,147.95
16:27:43.406250,95.95
16:27:43.421875,26.20
16:27:43.437500,-45.31
16:27:43.453125,-101.78
16:27:43.468750,-131.50
16:27:43.484375,-131.78
16:27:43.500000,-108.93
16:27:43.515625,-74.26
16:27:43.531250,-38.47
16:27:43.546875,-7.11
16:27:43.562500,20.71
16:27:43.578125,49.73
16:27:43.593750,84.08
16:27:43.609375,123.17
16:27:43.625000,160.38
16:27:43.640625,185.44
16:27:43.656250,189.18
16:27:43.671875,168.05
16:27:43.687500,126.12
16:27:43.703125,73.54
16:27:43.718750,22.64
16:27:43.734375,-16.23
16:27:43.750000,-37.23
16:27:43.765625,-39.42
16:27:43.781250,-25.20
16:27:43.796875,1.19
16:27:43.812500,35.03
16:27:43.828125,71.44
16:27:43.843750,105.81
16:27:43.859375,134.25
16:27:43.875000,154.10
16:27:43.890625,164.23
16:27:43.906250,164.63
16:27:43.921875,155.73
16:27:43.937500,137.91
16:27:43.953125,111.62
16:27:43.968750,78.11
16:27:43.984375,40.05
16:27:44,1.64
16:27:44.015625,-32.08
16:27:44.031250,-56.26
16:27:44.046875,-67.31
16:27:44.062500,-63.71
16:27:44.078125,-46.52
16:27:44.093750,-19.26
16:27:44.109375,12.68
16:27:44.125000,43.20
16:27:44.140625,66.95
16:27:44.156250,80.87
16:27:44.171875,84.68
16:27:44.187500,80.74
16:27:44.203125,73.01
16:27:44.218750,65.28
16:27:44.234375,59.82
16:27:44.250000,56.60
16:27:44.265625,53.31
16:27:44.281250,46.53
16:27:44.296875,33.23
16:27:44.312500,12.59
16:27:44.328125,-13.08
16:27:44.343750,-38.50
16:27:44.359375,-57.12
16:27:44.375000,-63.47
16:27:44.390625,-55.30
16:27:44.406250,-34.86
16:27:44.421875,-8.14
16:27:44.437500,17.07
16:27:44.453125,33.54
16:27:44.468750,36.63
16:27:44.484375,25.21
16:27:44.500000,1.56
16:27:44.515625,-29.40
16:27:44.531250,-61.34
16:27:44.546875,-88.03
16:27:44.562500,-104.68
16:27:44.578125,-108.96
16:27:44.593750,-101.42
16:27:44.609375,-85.16
16:27:44.625000,-64.85
16:27:44.640625,-45.80
16:27:44.656250,-32.66
16:27:44.671875,-28.49
16:27:44.687500,-33.97
16:27:44.703125,-46.90
16:27:44.718750,-62.60
16:27:44.734375,-75.34
16:27:44.750000,-80.15
16:27:44.765625,-74.60
16:27:44.781250,-59.71
16:27:44.796875,-39.25
16:27:44.812500,-18.15
16:27:44.828125,-0.75
16:27:44.843750,10.34
16:27:44.859375,14.57
16:27:44.875000,12.94
16:27:44.890625,7.60
16:27:44.906250,1.23
16:27:44.921875,-3.70
16:27:44.937500,-5.66
16:27:44.953125,-4.78
16:27:44.968750,-2.96
16:27:44.984375,-3.01
16:27:45,-6.99
16:27:45.015625,-14.97
16:27:45.031250,-24.58
16:27:45.046875,-31.96
16:27:45.062500,-33.70
16:27:45.078125,-28.39
16:27:45.093750,-17.17
16:27:45.109375,-3.26
16:27:45.125000,9.34
16:27:45.140625,16.96
16:27:45.156250,17.14
16:27:45.171875,8.97
16:27:45.187500,-6.54
16:27:45.203125,-26.66
16:27:45.218750,-47.32
16:27:45.234375,-64.39
16:27:45.250000,-74.88
16:27:45.265625,-77.75
16:27:45.281250,-73.76
16:27:45.296875,-64.49
16:27:45.312500,-50.98
16:27:45.328125,-33.30
16:27:45.343750,-11.36
16:27:45.359375,13.82
16:27:45.375000,39.18
16:27:45.390625,60.27
16:27:45.406250,73.02
16:27:45.421875,75.90
16:27:45.437500,70.89
16:27:45.453125,62.70
16:27:45.468750,56.67
16:27:45.484375,56.37
16:27:45.500000,62.40
16:27:45.515625,72.44
16:27:45.531250,82.19
16:27:45.546875,86.88
16:27:45.562500,82.58
16:27:45.578125,67.23
16:27:45.593750,41.43
16:27:45.609375,8.48
16:27:45.625000,-26.22
16:27:45.640625,-56.56
16:27:45.656250,-77.19
16:27:45.671875,-84.92
16:27:45.687500,-79.32
16:27:45.703125,-62.59
16:27:45.718750,-38.96
16:27:45.734375,-13.94
16:27:45.750000,6.87
16:27:45.765625,18.81
16:27:45.781250,19.52
16:27:45.796875,9.76
16:27:45.812500,-6.43
16:27:45.828125,-22.79
16:27:45.843750,-33.13
16:27:45.859375,-33.81
16:27:45.875000,-25.27
16:27:45.890625,-11.86
16:27:45.906250,0.11
16:27:45.921875,5.42
16:27:45.937500,2.40
16:27:45.953125,-6.26
16:27:45.968750,-14.81
16:27:45.984375,-17.11
16:27:46,-9.35
16:27:46.015625,8.55
16:27:46.031250,33.47
16:27:46.046875,60.67
16:27:46.062500,85.74
16:27:46.078125,105.63
16:27:46.093750,118.57
16:27:46.109375,123.65
16:27:46.125000,120.52
16:27:46.140625,109.79
16:27:46.156250,93.25
16:27:46.171875,74.05
16:27:46.187500,56.20
16:27:46.203125,43.53
16:27:46.218750,38.64
16:27:46.234375,42.12
16:27:46.250000,52.33
16:27:46.265625,65.73
16:27:46.281250,78.18
16:27:46.296875,86.18
16:27:46.312500,88.18
16:27:46.328125,84.96
16:27:46.343750,79.07
16:27:46.359375,73.55
16:27:46.375000,70.67
16:27:46.390625,71.40
16:27:46.406250,75.34
16:27:46.421875,81.56
16:27:46.437500,89.10
16:27:46.453125,97.01
16:27:46.468750,104.02
16:27:46.484375,108.04
16:27:46.500000,106.47
16:27:46.515625,97.09
16:27:46.531250,79.50
16:27:46.546875,55.89
16:27:46.562500,30.43
16:27:46.578125,7.42
16:27:46.593750,-10.94
16:27:46.609375,-25.60
16:27:46.625000,-39.60
16:27:46.640625,-55.54
16:27:46.656250,-73.06
16:27:46.671875,-88.09
16:27:46.687500,-94.39
16:27:46.703125,-87.14
16:27:46.718750,-66.17
16:27:46.734375,-37.11
16:27:46.750000,-9.22
16:27:46.765625,8.47
16:27:46.781250,10.67
16:27:46.796875,-2.64
16:27:46.812500,-27.64
16:27:46.828125,-59.44
16:27:46.843750,-94.44
16:27:46.859375,-130.82
16:27:46.875000,-167.63
16:27:46.890625,-202.77
16:27:46.906250,-232.22
16:27:46.921875,-250.57
16:27:46.937500,-252.97
16:27:46.953125,-237.16
16:27:46.968750,-204.37
16:27:46.984375,-158.72
16:27:47,-105.49
16:27:47.015625,-49.16
16:27:47.031250,7.29
16:27:47.046875,61.84
16:27:47.062500,112.04
16:27:47.078125,154.01
16:27:47.093750,182.62
16:27:47.109375,193.23
16:27:47.125000,184.21
16:27:47.140625,158.48
16:27:47.156250,123.29
16:27:47.171875,87.93
16:27:47.187500,60.20
16:27:47.203125,43.64
16:27:47.218750,36.56
16:27:47.234375,33.21
16:27:47.250000,26.55
16:27:47.265625,10.98
16:27:47.281250,-16.40
16:27:47.296875,-55.49
16:27:47.312500,-104.03
16:27:47.328125,-158.06
16:27:47.343750,-211.98
16:27:47.359375,-258.56
16:27:47.375000,-290.08
16:27:47.390625,-300.47
16:27:47.406250,-287.67
16:27:47.421875,-254.99
16:27:47.437500,-209.97
16:27:47.453125,-161.08
16:27:47.468750,-113.89
16:27:47.484375,-68.96
16:27:47.500000,-22.96
16:27:47.515625,27.60
16:27:47.531250,82.20
16:27:47.546875,134.32
16:27:47.562500,173.32
16:27:47.578125,188.75
16:27:47.593750,174.86
16:27:47.609375,132.85
16:27:47.625000,70.45
16:27:47.640625,-0.64
16:27:47.656250,-67.91
16:27:47.671875,-120.38
16:27:47.687500,-150.58
16:27:47.703125,-156.07
16:27:47.718750,-140.49
16:27:47.734375,-112.99
16:27:47.750000,-85.45
16:27:47.765625,-68.09
16:27:47.781250,-65.65
16:27:47.796875,-76.26
16:27:47.812500,-93.52
16:27:47.828125,-110.37
16:27:47.843750,-122.54
16:27:47.859375,-128.93
16:27:47.875000,-129.72
16:27:47.890625,-123.88
16:27:47.906250,-108.37
16:27:47.921875,-79.58
16:27:47.937500,-36.00
16:27:47.953125,19.98
16:27:47.968750,82.14
16:27:47.984375,142.18
16:27:48,191.87
16:27:48.015625,224.48
16:27:48.031250,235.64
16:27:48.046875,223.76
16:27:48.062500,190.79
16:27:48.078125,142.52
16:27:48.093750,87.79
16:27:48.109375,35.63
16:27:48.125000,-7.72
16:27:48.140625,-40.63
16:27:48.156250,-65.67
16:27:48.171875,-86.88
16:27:48.187500,-106.23
16:27:48.203125,-121.88
16:27:48.218750,-128.98
16:27:48.234375,-122.58
16:27:48.250000,-100.48
16:27:48.265625,-64.32
16:27:48.281250,-18.43
16:27:48.296875,32.10
16:27:48.312500,82.69
16:27:48.328125,129.47
16:27:48.343750,167.97
16:27:48.359375,192.75
16:27:48.375000,198.28
16:27:48.390625,180.99
16:27:48.406250,140.97
16:27:48.421875,82.04
16:27:48.437500,10.43
16:27:48.453125,-66.85
16:27:48.468750,-142.70
16:27:48.484375,-209.88
16:27:48.500000,-260.71
16:27:48.515625,-288.49
16:27:48.531250,-289.50
16:27:48.546875,-265.37
16:27:48.562500,-223.17
16:27:48.578125,-173.01
16:27:48.593750,-123.95
16:27:48.609375,-80.42
16:27:48.625000,-41.56
16:27:48.640625,-3.52
16:27:48.656250,36.85
16:27:48.671875,79.05
16:27:48.687500,118.42
16:27:48.703125,148.17
16:27:48.718750,162.32
16:27:48.734375,158.28
16:27:48.750000,137.87
16:27:48.765625,106.82
16:27:48.781250,73.26
16:27:48.796875,45.76
16:27:48.812500,31.10
16:27:48.828125,33.16
16:27:48.843750,52.64
16:27:48.859375,87.56
16:27:48.875000,134.12
16:27:48.890625,187.29
16:27:48.906250,240.83
16:27:48.921875,287.18
16:27:48.937500,318.17
16:27:48.953125,326.67
16:27:48.968750,308.88
16:27:48.984375,266.41
16:27:49,206.39
16:27:49.015625,138.75
16:27:49.031250,72.53
16:27:49.046875,12.67
16:27:49.062500,-40.57
16:27:49.078125,-89.18
16:27:49.093750,-134.00
16:27:49.109375,-172.67
16:27:49.125000,-200.03
16:27:49.140625,-210.86
16:27:49.156250,-203.13
16:27:49.171875,-179.31
16:27:49.187500,-144.89
16:27:49.203125,-105.42
16:27:49.218750,-63.95
16:27:49.234375,-20.77
16:27:49.250000,24.51
16:27:49.265625,70.15
16:27:49.281250,111.14
16:27:49.296875,140.63
16:27:49.312500,153.38
16:27:49.328125,148.75
16:27:49.343750,131.40
16:27:49.359375,108.62
16:27:49.375000,86.30
16:27:49.390625,65.34
16:27:49.406250,41.78
16:27:49.421875,9.81
16:27:49.437500,-33.30
16:27:49.453125,-83.72
16:27:49.468750,-130.89
16:27:49.484375,-161.11
16:27:49.500000,-163.36
16:27:49.515625,-134.29
16:27:49.531250,-80.45
16:27:49.546875,-16.29
16:27:49.562500,40.88
16:27:49.578125,76.76
16:27:49.593750,84.30
16:27:49.609375,64.13
16:27:49.625000,22.52
16:27:49.640625,-32.02
16:27:49.656250,-91.09
16:27:49.671875,-147.25
16:27:49.687500,-193.86
16:27:49.703125,-224.99
16:27:49.718750,-236.26
16:27:49.734375,-226.29
16:27:49.750000,-197.56
16:27:49.765625,-155.66
16:27:49.781250,-107.10
16:27:49.796875,-57.06
16:27:49.812500,-8.47
16:27:49.828125,36.92
16:27:49.843750,76.66
16:27:49.859375,106.69
16:27:49.875000,122.33
16:27:49.890625,120.03
16:27:49.906250,99.12
16:27:49.921875,62.05
16:27:49.937500,13.55
16:27:49.953125,-40.75
16:27:49.968750,-94.95
16:27:49.984375,-143.01
16:27:50,-179.17
16:27:50.015625,-198.47
16:27:50.031250,-197.89
16:27:50.046875,-177.17
16:27:50.062500,-138.99
16:27:50.078125,-88.58
16:27:50.093750,-33.13
16:27:50.109375,18.89
16:27:50.125000,58.51
16:27:50.140625,77.51
16:27:50.156250,70.17
16:27:50.171875,35.29
16:27:50.187500,-23.01
16:27:50.203125,-95.74
16:27:50.218750,-171.16
16:27:50.234375,-237.71
16:27:50.250000,-286.68
16:27:50.265625,-313.72
16:27:50.281250,-318.88
16:27:50.296875,-305.94
16:27:50.312500,-280.71
16:27:50.328125,-249.37
16:27:50.343750,-217.06
16:27:50.359375,-187.06
16:27:50.375000,-160.88
16:27:50.390625,-138.78
16:27:50.406250,-120.47
16:27:50.421875,-105.29
16:27:50.437500,-91.72
16:27:50.453125,-77.30
16:27:50.468750,-58.93
16:27:50.484375,-33.96
16:27:50.500000,-1.52
16:27:50.515625,36.76
16:27:50.531250,77.39
16:27:50.546875,116.06
16:27:50.562500,149.40
16:27:50.578125,176.04
16:27:50.593750,196.59
16:27:50.609375,213.13
16:27:50.625000,228.32
16:27:50.640625,244.94
16:27:50.656250,265.24
16:27:50.671875,290.25
16:27:50.687500,318.65
16:27:50.703125,346.04
16:27:50.718750,365.43
16:27:50.734375,369.24
16:27:50.750000,352.33
16:27:50.765625,314.43
16:27:50.781250,260.55
16:27:50.796875,198.50
16:27:50.812500,135.03
16:27:50.828125,72.79
16:27:50.843750,10.47
16:27:50.859375,-54.32
16:27:50.875000,-121.10
16:27:50.890625,-184.33
16:27:50.906250,-234.87
16:27:50.921875,-264.05
16:27:50.937500,-267.84
16:27:50.953125,-248.54
16:27:50.968750,-213.11
16:27:50.984375,-169.80
16:27:51,-125.66
16:27:51.015625,-86.32
16:27:51.031250,-57.22
16:27:51.046875,-44.81
16:27:51.062500,-55.31
16:27:51.078125,-91.36
16:27:51.093750,-148.83
16:27:51.109375,-216.09
16:27:51.125000,-277.24
16:27:51.140625,-317.95
16:27:51.156250,-330.75
16:27:51.171875,-317.18
16:27:51.187500,-285.88
16:27:51.203125,-248.20
16:27:51.218750,-213.49
16:27:51.234375,-186.59
16:27:51.250000,-167.96
16:27:51.265625,-155.44
16:27:51.281250,-146.22
16:27:51.296875,-137.91
16:27:51.312500,-128.80
16:27:51.328125,-117.65
16:27:51.343750,-103.48
16:27:51.359375,-85.65
16:27:51.375000,-64.11
16:27:51.390625,-39.44
16:27:51.406250,-12.57
16:27:51.421875,15.40
16:27:51.437500,43.49
16:27:51.453125,70.76
16:27:51.468750,96.13
16:27:51.484375,118.49
16:27:51.500000,136.71
16:27:51.515625,150.06
16:27:51.531250,158.63
16:27:51.546875,163.45
16:27:51.562500,166.63
16:27:51.578125,171.12
16:27:51.593750,180.61
16:27:51.609375,198.70
16:27:51.625000,227.58
16:27:51.640625,266.43
16:27:51.656250,310.36
16:27:51.671875,350.61
16:27:51.687500,376.03
16:27:51.703125,377.06
16:27:51.718750,349.32
16:27:51.734375,296.28
16:27:51.750000,229.07
16:27:51.765625,163.22
16:27:51.781250,113.56
16:27:51.796875,89.44
16:27:51.812500,92.34
16:27:51.828125,116.29
16:27:51.843750,152.09
16:27:51.859375,191.57
16:27:51.875000,230.63
16:27:51.890625,268.95
16:27:51.906250,307.50
16:27:51.921875,345.36
16:27:51.937500,378.13
16:27:51.953125,399.61
16:27:51.968750,403.15
16:27:51.984375,386.20
16:27:52,350.40
16:27:52.015625,300.23
16:27:52.031250,241.01
16:27:52.046875,177.89
16:27:52.062500,116.44
16:27:52.078125,63.63
16:27:52.093750,29.35
16:27:52.109375,20.88
16:27:52.125000,42.87
16:27:52.140625,92.59
16:27:52.156250,159.04
16:27:52.171875,225.74
16:27:52.187500,276.22
16:27:52.203125,299.61
16:27:52.218750,293.87
16:27:52.234375,267.48
16:27:52.250000,228.49
16:27:52.265625,187.03
16:27:52.281250,148.86
16:27:52.296875,114.38
16:27:52.312500,79.88
16:27:52.328125,40.93
16:27:52.343750,-4.12
16:27:52.359375,-52.23
16:27:52.375000,-91.69
16:27:52.390625,-117.11
16:27:52.406250,-119.97
16:27:52.421875,-96.34
16:27:52.437500,-48.56
16:27:52.453125,15.03
16:27:52.468750,82.62
16:27:52.484375,142.32
16:27:52.500000,185.91
16:27:52.515625,216.11
16:27:52.531250,228.44
16:27:52.546875,227.13
16:27:52.562500,216.04
16:27:52.578125,197.03
16:27:52.593750,169.63
16:27:52.609375,133.11
16:27:52.625000,88.90
16:27:52.640625,14.52
16:27:52.656250,-44.16
16:27:52.671875,-84.07
16:27:52.687500,-96.82
16:27:52.703125,-79.95
16:27:52.718750,-38.32
16:27:52.734375,16.87
16:27:52.750000,71.66
16:27:52.765625,113.62
16:27:52.781250,135.64
16:27:52.796875,144.45
16:27:52.812500,136.97
16:27:52.828125,119.82
16:27:52.843750,97.79
16:27:52.859375,72.01
16:27:52.875000,40.02
16:27:52.890625,-1.47
16:27:52.906250,-53.03
16:27:52.921875,-127.16
16:27:52.937500,-188.05
16:27:52.953125,-230.03
16:27:52.968750,-242.29
16:27:52.984375,-220.69
16:27:53,-170.05
16:27:53.015625,-103.28
16:27:53.031250,-37.23
16:27:53.046875,12.93
16:27:53.062500,38.49
16:27:53.078125,44.13
16:27:53.093750,31.33
16:27:53.109375,9.70
16:27:53.125000,-12.88
16:27:53.140625,-33.02
16:27:53.156250,-51.79
16:27:53.171875,-72.66
16:27:53.187500,-98.83
16:27:53.203125,-131.23
16:27:53.218750,-164.74
16:27:53.234375,-198.54
16:27:53.250000,-226.87
16:27:53.265625,-243.83
16:27:53.281250,-244.43
16:27:53.296875,-226.14
16:27:53.312500,-190.44
16:27:53.328125,-143.33
16:27:53.343750,-94.52
16:27:53.359375,-52.62
16:27:53.375000,-27.28
16:27:53.390625,-21.36
16:27:53.406250,-32.69
16:27:53.421875,-56.19
16:27:53.437500,-87.01
16:27:53.453125,-122.73
16:27:53.468750,-163.24
16:27:53.484375,-208.58
16:27:53.500000,-255.56
16:27:53.515625,-298.63
16:27:53.531250,-329.09
16:27:53.546875,-339.11
16:27:53.562500,-325.03
16:27:53.578125,-288.87
16:27:53.593750,-236.85
16:27:53.609375,-176.49
16:27:53.625000,-114.30
16:27:53.640625,-54.58
16:27:53.656250,-1.26
16:27:53.671875,41.59
16:27:53.687500,69.19
16:27:53.703125,77.26
16:27:53.718750,63.85
16:27:53.734375,30.35
16:27:53.750000,-18.66
16:27:53.765625,-76.52
16:27:53.781250,-135.68
16:27:53.796875,-188.47
16:27:53.812500,-227.57
16:27:53.828125,-247.03
16:27:53.843750,-243.85
16:27:53.859375,-218.81
16:27:53.875000,-176.08
16:27:53.890625,-121.62
16:27:53.906250,-61.41
16:27:53.921875,-0.53
16:27:53.937500,56.17
16:27:53.953125,103.03
16:27:53.968750,133.73
16:27:53.984375,142.83
16:27:54,127.90
16:27:54.015625,90.91
16:27:54.031250,37.70
16:27:54.046875,-23.79
16:27:54.062500,-85.42
16:27:54.078125,-139.92
16:27:54.093750,-181.02
16:27:54.109375,-203.66
16:27:54.125000,-205.13
16:27:54.140625,-186.01
16:27:54.156250,-150.43
16:27:54.171875,-104.62
16:27:54.187500,-54.46
16:27:54.203125,-3.55
16:27:54.218750,46.65
16:27:54.234375,94.83
16:27:54.250000,137.63
16:27:54.265625,169.16
16:27:54.281250,182.52
16:27:54.296875,172.61
16:27:54.312500,138.67
16:27:54.328125,85.43
16:27:54.343750,22.02
16:27:54.359375,-40.13
16:27:54.375000,-89.95
16:27:54.390625,-119.15
16:27:54.406250,-124.00
16:27:54.421875,-105.42
16:27:54.437500,-67.96
16:27:54.453125,-17.88
16:27:54.468750,38.56
16:27:54.484375,95.65
16:27:54.500000,148.07
16:27:54.515625,190.30
16:27:54.531250,216.79
16:27:54.546875,223.42
16:27:54.562500,209.28
16:27:54.578125,177.32
16:27:54.593750,133.08
16:27:54.609375,82.52
16:27:54.625000,30.13
16:27:54.640625,-21.04
16:27:54.656250,-67.95
16:27:54.671875,-106.09
16:27:54.687500,-129.85
16:27:54.703125,-134.11
16:27:54.718750,-116.57
16:27:54.734375,-79.13
16:27:54.750000,-27.49
16:27:54.765625,30.45
16:27:54.781250,86.43
16:27:54.796875,133.02
16:27:54.812500,164.30
16:27:54.828125,176.56
16:27:54.843750,168.48
16:27:54.859375,141.30
16:27:54.875000,98.45
16:27:54.890625,44.94
16:27:54.906250,-13.12
16:27:54.921875,-68.76
16:27:54.937500,-114.47
16:27:54.953125,-142.94
16:27:54.968750,-148.53
16:27:54.984375,-129.11
16:27:55,-87.11
16:27:55.015625,-29.34
16:27:55.031250,34.56
16:27:55.046875,94.39
16:27:55.062500,141.62
16:27:55.078125,170.72
16:27:55.093750,179.59
16:27:55.109375,169.42
16:27:55.125000,143.52
16:27:55.140625,106.08
16:27:55.156250,60.67
16:27:55.171875,10.09
16:27:55.187500,-42.88
16:27:55.203125,-94.11
16:27:55.218750,-137.15
16:27:55.234375,-163.82
16:27:55.250000,-166.76
16:27:55.265625,-142.56
16:27:55.281250,-94.17
16:27:55.296875,-31.24
16:27:55.312500,32.54
16:27:55.328125,83.49
16:27:55.343750,112.05
16:27:55.359375,115.14
16:27:55.375000,96.08
16:27:55.390625,61.76
16:27:55.406250,18.89
16:27:55.421875,-28.36
16:27:55.437500,-78.91
16:27:55.453125,-132.25
16:27:55.468750,-185.63
16:27:55.484375,-232.48
16:27:55.500000,-263.50
16:27:55.515625,-269.97
16:27:55.531250,-247.62
16:27:55.546875,-198.93
16:27:55.562500,-132.58
16:27:55.578125,-61.09
16:27:55.593750,2.77
16:27:55.609375,48.75
16:27:55.625000,70.82
16:27:55.640625,67.57
16:27:55.656250,41.24
16:27:55.671875,-3.31
16:27:55.687500,-59.80
16:27:55.703125,-121.16
16:27:55.718750,-179.93
16:27:55.734375,-228.71
16:27:55.750000,-260.83
16:27:55.765625,-271.56
16:27:55.781250,-259.30
16:27:55.796875,-226.31
16:27:55.812500,-177.85
16:27:55.828125,-120.25
16:27:55.843750,-59.13
16:27:55.859375,1.13
16:27:55.875000,56.69
16:27:55.890625,102.80
16:27:55.906250,133.20
16:27:55.921875,141.59
16:27:55.937500,124.05
16:27:55.953125,81.91
16:27:55.968750,22.69
16:27:55.984375,-41.19
16:27:56,-96.21
16:27:56.015625,-131.63
16:27:56.031250,-142.52
16:27:56.046875,-130.52
16:27:56.062500,-101.83
16:27:56.078125,-63.81
16:27:56.093750,-21.58
16:27:56.109375,23.22
16:27:56.125000,71.29
16:27:56.140625,122.63
16:27:56.156250,173.80
16:27:56.171875,217.48
16:27:56.187500,244.67
16:27:56.203125,248.46
16:27:56.218750,226.84
16:27:56.234375,183.54
16:27:56.250000,126.47
16:27:56.265625,65.11
16:27:56.281250,8.25
16:27:56.296875,-37.09
16:27:56.312500,-66.21
16:27:56.328125,-76.57
16:27:56.343750,-67.56
16:27:56.359375,-40.46
16:27:56.375000,1.81
16:27:56.390625,54.60
16:27:56.406250,111.69
16:27:56.421875,165.46
16:27:56.437500,207.61
16:27:56.453125,230.81
16:27:56.468750,230.63
16:27:56.484375,207.12
16:27:56.500000,164.48
16:27:56.515625,109.63
16:27:56.531250,49.91
16:27:56.546875,-8.31
16:27:56.562500,-59.74
16:27:56.578125,-99.55
16:27:56.593750,-122.96
16:27:56.609375,-125.99
16:27:56.625000,-106.79
16:27:56.640625,-67.04
16:27:56.656250,-12.62
16:27:56.671875,47.59
16:27:56.687500,103.47
16:27:56.703125,145.89
16:27:56.718750,168.60
16:27:56.734375,169.12
16:27:56.750000,148.72
16:27:56.765625,111.23
16:27:56.781250,61.70
16:27:56.796875,5.20
16:27:56.812500,-53.18
16:27:56.828125,-107.89
16:27:56.843750,-152.64
16:27:56.859375,-180.93
16:27:56.875000,-187.57
16:27:56.890625,-170.61
16:27:56.906250,-132.44
16:27:56.921875,-79.40
16:27:56.937500,-20.28
16:27:56.953125,35.75
16:27:56.968750,80.80
16:27:56.984375,109.18
16:27:57,117.70
16:27:57.015625,105.60
16:27:57.031250,74.37
16:27:57.046875,28.11
16:27:57.062500,-26.65
16:27:57.078125,-81.32
16:27:57.093750,-126.44
16:27:57.109375,-153.74
16:27:57.125000,-158.09
16:27:57.140625,-138.70
16:27:57.156250,-99.27
16:27:57.171875,-46.42
16:27:57.187500,12.22
16:27:57.203125,69.34
16:27:57.218750,118.74
16:27:57.234375,155.25
16:27:57.250000,174.83
16:27:57.265625,175.43
16:27:57.281250,158.09
16:27:57.296875,126.69
16:27:57.312500,86.62
16:27:57.328125,42.58
16:27:57.343750,-2.92
16:27:57.359375,-48.86
16:27:57.375000,-93.68
16:27:57.390625,-133.19
16:27:57.406250,-160.67
16:27:57.421875,-168.82
16:27:57.437500,-153.08
16:27:57.453125,-114.31
16:27:57.468750,-59.13
16:27:57.484375,1.68
16:27:57.500000,56.20
16:27:57.515625,94.48
16:27:57.531250,110.51
16:27:57.546875,103.01
16:27:57.562500,74.41
16:27:57.578125,29.60
16:27:57.593750,-25.52
16:27:57.609375,-84.43
16:27:57.625000,-140.41
16:27:57.640625,-186.51
16:27:57.656250,-216.35
16:27:57.671875,-225.58
16:27:57.687500,-213.15
16:27:57.703125,-182.05
16:27:57.718750,-137.89
16:27:57.734375,-86.86
16:27:57.750000,-33.80
16:27:57.765625,17.94
16:27:57.781250,65.46
16:27:57.796875,104.75
16:27:57.812500,130.35
16:27:57.828125,136.77
16:27:57.843750,120.78
16:27:57.859375,83.70
16:27:57.875000,31.67
16:27:57.890625,-25.56
16:27:57.906250,-77.26
16:27:57.921875,-114.48
16:27:57.937500,-131.64
16:27:57.953125,-127.16
16:27:57.968750,-102.54
16:27:57.984375,-61.43
16:27:58,-8.77
16:27:58.015625,49.27
16:27:58.031250,105.28
16:27:58.046875,151.06
16:27:58.062500,178.79
16:27:58.078125,182.87
16:27:58.093750,161.40
16:27:58.109375,117.15
16:27:58.125000,57.19
16:27:58.140625,-8.77
16:27:58.156250,-70.32
16:27:58.171875,-118.36
16:27:58.187500,-146.66
16:27:58.203125,-152.62
16:27:58.218750,-137.29
16:27:58.234375,-104.37
16:27:58.250000,-58.89
16:27:58.265625,-6.00
16:27:58.281250,49.33
16:27:58.296875,102.00
16:27:58.312500,146.29
16:27:58.328125,176.00
16:27:58.343750,185.51
16:27:58.359375,171.71
16:27:58.375000,135.31
16:27:58.390625,81.37
16:27:58.406250,18.47
16:27:58.421875,-43.03
16:27:58.437500,-92.99
16:27:58.453125,-123.17
16:27:58.468750,-128.50
16:27:58.484375,-108.04
16:27:58.500000,-64.92
16:27:58.515625,-6.01
16:27:58.531250,59.30
16:27:58.546875,120.86
16:27:58.562500,169.41
16:27:58.578125,197.86
16:27:58.593750,201.97
16:27:58.609375,180.69
16:27:58.625000,136.93
16:27:58.640625,77.95
16:27:58.656250,14.58
16:27:58.671875,-40.43
16:27:58.687500,-75.54
16:27:58.703125,-83.56
16:27:58.718750,-63.51
16:27:58.734375,-20.23
16:27:58.750000,37.89
16:27:58.765625,102.24
16:27:58.781250,166.33
16:27:58.796875,226.09
16:27:58.812500,278.79
16:27:58.828125,321.48
16:27:58.843750,350.42
16:27:58.859375,362.43
16:27:58.875000,356.81
16:27:58.890625,336.32
16:27:58.906250,306.63
16:27:58.921875,273.80
16:27:58.937500,241.79
16:27:58.953125,211.10
16:27:58.968750,179.86
16:27:58.984375,146.21
16:27:59,111.02
16:27:59.015625,78.55
16:27:59.031250,54.91
16:27:59.046875,44.83
16:27:59.062500,48.79
16:27:59.078125,62.24
16:27:59.093750,77.20
16:27:59.109375,85.53
16:27:59.125000,82.07
16:27:59.140625,66.24
16:27:59.156250,40.97
16:27:59.171875,10.48
16:27:59.187500,-22.22
16:27:59.203125,-56.58
16:27:59.218750,-93.80
16:27:59.234375,-135.09
16:27:59.250000,-179.51
16:27:59.265625,-222.63
16:27:59.281250,-256.90
16:27:59.296875,-273.92
16:27:59.312500,-267.88
16:27:59.328125,-238.60
16:27:59.343750,-192.92
16:27:59.359375,-143.06
16:27:59.375000,-102.46
16:27:59.390625,-81.15
16:27:59.406250,-82.70
16:27:59.421875,-104.08
16:27:59.437500,-138.40
16:27:59.453125,-178.75
16:27:59.468750,-220.94
16:27:59.484375,-263.87
16:27:59.500000,-307.65
16:27:59.515625,-351.06
16:27:59.531250,-390.06
16:27:59.546875,-418.50
16:27:59.562500,-430.49
16:27:59.578125,-423.05
16:27:59.593750,-397.61
16:27:59.609375,-359.40
16:27:59.625000,-315.01
16:27:59.640625,-269.21
16:27:59.656250,-223.35
16:27:59.671875,-175.85
16:27:59.687500,-125.10
16:27:59.703125,-72.73
16:27:59.718750,-25.13
16:27:59.734375,7.82
16:27:59.750000,16.78
16:27:59.765625,-2.17
16:27:59.781250,-44.63
16:27:59.796875,-98.48
16:27:59.812500,-148.07
16:27:59.828125,-179.96
16:27:59.843750,-187.43
16:27:59.859375,-171.87
16:27:59.875000,-140.43
16:27:59.890625,-101.41
16:27:59.906250,-60.07
16:27:59.921875,-17.08
16:27:59.937500,29.59
16:27:59.953125,80.77
16:27:59.968750,132.69
16:27:59.984375,176.38
16:28:00,200.37
16:28:00.015625,195.45
16:28:00.031250,159.38
16:28:00.046875,98.81
16:28:00.062500,27.48
16:28:00.078125,-38.27
16:28:00.093750,-84.87
16:28:00.109375,-105.44
16:28:00.125000,-100.82
16:28:00.140625,-77.55
16:28:00.156250,-43.94
16:28:00.171875,-6.39
16:28:00.187500,32.85
16:28:00.203125,75.08
16:28:00.218750,122.31
16:28:00.234375,174.11
16:28:00.250000,225.37
16:28:00.265625,267.11
16:28:00.281250,289.71
16:28:00.296875,287.08
16:28:00.312500,259.24
16:28:00.328125,211.74
16:28:00.343750,152.76
16:28:00.359375,89.81
16:28:00.375000,28.21
16:28:00.390625,-28.58
16:28:00.406250,-77.09
16:28:00.421875,-112.72
16:28:00.437500,-130.59
16:28:00.453125,-127.53
16:28:00.468750,-103.87
16:28:00.484375,-63.48
16:28:00.500000,-12.14
16:28:00.515625,44.08
16:28:00.531250,99.75
16:28:00.546875,149.46
16:28:00.562500,187.33
16:28:00.578125,207.60
16:28:00.593750,206.50
16:28:00.609375,183.88
16:28:00.625000,143.43
16:28:00.640625,91.23
16:28:00.656250,33.57
16:28:00.671875,-24.31
16:28:00.687500,-77.97
16:28:00.703125,-122.63
16:28:00.718750,-153.01
16:28:00.734375,-164.31
16:28:00.750000,-154.06
16:28:00.765625,-123.35
16:28:00.781250,-76.54
16:28:00.796875,-19.96
16:28:00.812500,39.71
16:28:00.828125,95.99
16:28:00.843750,142.50
16:28:00.859375,173.10
16:28:00.875000,183.00
16:28:00.890625,170.12
16:28:00.906250,135.97
16:28:00.921875,85.39
16:28:00.937500,25.29
16:28:00.953125,-36.77
16:28:00.968750,-93.54
16:28:00.984375,-138.26
16:28:01,-165.18
16:28:01.015625,-170.68
16:28:01.031250,-154.27
16:28:01.046875,-118.88
16:28:01.062500,-69.80
16:28:01.078125,-13.13
16:28:01.093750,45.69
16:28:01.109375,101.88
16:28:01.125000,150.49
16:28:01.140625,185.94
16:28:01.156250,202.87
16:28:01.171875,197.72
16:28:01.187500,170.28
16:28:01.203125,124.15
16:28:01.218750,65.94
16:28:01.234375,3.79
16:28:01.250000,-53.89
16:28:01.265625,-99.29
16:28:01.281250,-126.04
16:28:01.296875,-130.37
16:28:01.312500,-111.78
16:28:01.328125,-73.27
16:28:01.343750,-20.48
16:28:01.359375,39.54
16:28:01.375000,99.47
16:28:01.390625,152.39
16:28:01.406250,191.88
16:28:01.421875,212.56
16:28:01.437500,211.16
16:28:01.453125,187.57
16:28:01.468750,144.90
16:28:01.484375,88.77
16:28:01.500000,25.70
16:28:01.515625,-37.93
16:28:01.531250,-95.99
16:28:01.546875,-142.38
16:28:01.562500,-171.10
16:28:01.578125,-177.41
16:28:01.593750,-159.21
16:28:01.609375,-118.30
16:28:01.625000,-60.51
16:28:01.640625,5.25
16:28:01.656250,68.46
16:28:01.671875,118.92
16:28:01.687500,148.48
16:28:01.703125,152.59
16:28:01.718750,131.70
16:28:01.734375,91.01
16:28:01.750000,38.73
16:28:01.765625,-17.05
16:28:01.781250,-71.17
16:28:01.796875,-122.18
16:28:01.812500,-170.51
16:28:01.828125,-215.59
16:28:01.843750,-253.72
16:28:01.859375,-278.84
16:28:01.875000,-285.24
16:28:01.890625,-270.74
16:28:01.906250,-237.90
16:28:01.921875,-192.46
16:28:01.937500,-140.54
16:28:01.953125,-86.64
16:28:01.968750,-33.69
16:28:01.984375,15.30
16:28:02,55.29
16:28:02.015625,79.16
16:28:02.031250,79.98
16:28:02.046875,54.70
16:28:02.062500,7.09
16:28:02.078125,-52.29
16:28:02.093750,-108.96
16:28:02.109375,-149.40
16:28:02.125000,-165.36
16:28:02.140625,-155.67
16:28:02.156250,-125.20
16:28:02.171875,-81.27
16:28:02.187500,-30.24
16:28:02.203125,23.99
16:28:02.218750,78.94
16:28:02.234375,131.17
16:28:02.250000,174.59
16:28:02.265625,200.65
16:28:02.281250,201.21
16:28:02.296875,172.33
16:28:02.312500,117.62
16:28:02.328125,48.13
16:28:02.343750,-20.52
16:28:02.359375,-73.15
16:28:02.375000,-99.74
16:28:02.390625,-97.70
16:28:02.406250,-71.14
16:28:02.421875,-27.52
16:28:02.437500,25.83
16:28:02.453125,83.68
16:28:02.468750,142.32
16:28:02.484375,197.47
16:28:02.500000,242.95
16:28:02.515625,271.13
16:28:02.531250,275.66
16:28:02.546875,254.66
16:28:02.562500,212.45
16:28:02.578125,157.74
16:28:02.593750,99.69
16:28:02.609375,44.06
16:28:02.625000,-7.88
16:28:02.640625,-57.32
16:28:02.656250,-104.33
16:28:02.671875,-145.57
16:28:02.687500,-174.76
16:28:02.703125,-185.67
16:28:02.718750,-175.25
16:28:02.734375,-144.86
16:28:02.750000,-99.13
16:28:02.765625,-44.10
16:28:02.781250,14.34
16:28:02.796875,70.24
16:28:02.812500,117.21
16:28:02.828125,148.49
16:28:02.843750,158.45
16:28:02.859375,144.54
16:28:02.875000,108.44
16:28:02.890625,55.59
16:28:02.906250,-6.42
16:28:02.921875,-69.48
16:28:02.937500,-126.12
16:28:02.953125,-169.74
16:28:02.968750,-194.99
16:28:02.984375,-199.05
16:28:03,-182.41
16:28:03.015625,-148.99
16:28:03.031250,-104.40
16:28:03.046875,-53.83
16:28:03.062500,-0.41
16:28:03.078125,54.09
16:28:03.093750,107.18
16:28:03.109375,153.84
16:28:03.125000,186.79
16:28:03.140625,198.71
16:28:03.156250,185.32
16:28:03.171875,147.65
16:28:03.187500,92.03
16:28:03.203125,28.41
16:28:03.218750,-32.28
16:28:03.234375,-80.29
16:28:03.250000,-108.39
16:28:03.265625,-112.69
16:28:03.281250,-92.60
16:28:03.296875,-51.00
16:28:03.312500,5.74
16:28:03.328125,68.48
16:28:03.343750,126.67
16:28:03.359375,170.28
16:28:03.375000,192.10
16:28:03.390625,189.13
16:28:03.406250,162.75
16:28:03.421875,117.80
16:28:03.437500,60.56
16:28:03.453125,-2.44
16:28:03.468750,-64.97
16:28:03.484375,-120.75
16:28:03.500000,-163.26
16:28:03.515625,-186.50
16:28:03.531250,-186.64
16:28:03.546875,-163.79
16:28:03.562500,-122.04
16:28:03.578125,-68.01
16:28:03.593750,-8.80
16:28:03.609375,49.63
16:28:03.625000,102.49
16:28:03.640625,145.21
16:28:03.656250,173.07
16:28:03.671875,182.04
16:28:03.687500,170.12
16:28:03.703125,138.51
16:28:03.718750,91.44
16:28:03.734375,34.98
16:28:03.750000,-24.24
16:28:03.765625,-79.66
16:28:03.781250,-124.77
16:28:03.796875,-153.37
16:28:03.812500,-160.72
16:28:03.828125,-144.82
16:28:03.843750,-107.44
16:28:03.859375,-54.09
16:28:03.875000,7.09
16:28:03.890625,66.97
16:28:03.906250,116.96
16:28:03.921875,150.14
16:28:03.937500,162.30
16:28:03.953125,152.71
16:28:03.968750,124.16
16:28:03.984375,81.88
16:28:04,31.61
16:28:04.015625,-21.96
16:28:04.031250,-75.46
16:28:04.046875,-125.85
16:28:04.062500,-168.92
16:28:04.078125,-198.97
16:28:04.093750,-210.68
16:28:04.109375,-201.46
16:28:04.125000,-173.00
16:28:04.140625,-130.59
16:28:04.156250,-80.55
16:28:04.171875,-28.03
16:28:04.187500,23.75
16:28:04.203125,72.19
16:28:04.218750,113.67
16:28:04.234375,143.22
16:28:04.250000,155.86
16:28:04.265625,148.76
16:28:04.281250,122.53
16:28:04.296875,81.16
16:28:04.312500,30.43
16:28:04.328125,-23.43
16:28:04.343750,-74.23
16:28:04.359375,-115.87
16:28:04.375000,-142.55
16:28:04.390625,-149.60
16:28:04.406250,-134.74
16:28:04.421875,-99.39
16:28:04.437500,-48.84
16:28:04.453125,8.57
16:28:04.468750,63.09
16:28:04.484375,105.59
16:28:04.500000,129.13
16:28:04.515625,129.91
16:28:04.531250,107.76
16:28:04.546875,65.76
16:28:04.562500,9.71
16:28:04.578125,-52.80
16:28:04.593750,-113.36
16:28:04.609375,-163.76
16:28:04.625000,-197.16
16:28:04.640625,-209.15
16:28:04.656250,-198.33
16:28:04.671875,-166.48
16:28:04.687500,-117.96
16:28:04.703125,-59.00
16:28:04.718750,2.88
16:28:04.734375,59.32
16:28:04.750000,101.91
16:28:04.765625,123.49
16:28:04.781250,119.80
16:28:04.796875,90.98
16:28:04.812500,41.60
16:28:04.828125,-20.66
16:28:04.843750,-87.07
16:28:04.859375,-149.61
16:28:04.875000,-201.98
16:28:04.890625,-239.52
16:28:04.906250,-259.12
16:28:04.921875,-259.62
16:28:04.937500,-242.02
16:28:04.953125,-209.25
16:28:04.968750,-165.17
16:28:04.984375,-113.59
16:28:05,-58.23
16:28:05.015625,-3.79
16:28:05.031250,42.79
16:28:05.046875,72.62
16:28:05.062500,77.67
16:28:05.078125,54.44
16:28:05.093750,7.02
16:28:05.109375,-52.97
16:28:05.125000,-110.08
16:28:05.140625,-150.40
16:28:05.156250,-166.25
16:28:05.171875,-157.66
16:28:05.187500,-130.90
16:28:05.203125,-94.58
16:28:05.218750,-56.02
16:28:05.234375,-19.26
16:28:05.250000,15.03
16:28:05.265625,48.40
16:28:05.281250,83.27
16:28:05.296875,121.68
16:28:05.312500,164.25
16:28:05.328125,209.27
16:28:05.343750,252.39
16:28:05.359375,287.18
16:28:05.375000,306.32
16:28:05.390625,303.68
16:28:05.406250,276.39
16:28:05.421875,226.67
16:28:05.437500,162.08
16:28:05.453125,94.24
16:28:05.468750,36.05
16:28:05.484375,-1.70
16:28:05.500000,-13.18
16:28:05.515625,1.62
16:28:05.531250,37.99
16:28:05.546875,88.85
16:28:05.562500,146.92
16:28:05.578125,205.64
16:28:05.593750,259.08
16:28:05.609375,301.21
16:28:05.625000,326.19
16:28:05.640625,329.46
16:28:05.656250,309.30
16:28:05.671875,267.78
16:28:05.687500,210.01
16:28:05.703125,142.83
16:28:05.718750,73.47
16:28:05.734375,9.10
16:28:05.750000,-42.97
16:28:05.765625,-75.38
16:28:05.781250,-81.99
16:28:05.796875,-59.88
16:28:05.812500,-11.56
16:28:05.828125,54.34
16:28:05.843750,124.76
16:28:05.859375,185.71
16:28:05.875000,226.20
16:28:05.890625,241.12
16:28:05.906250,231.67
16:28:05.921875,203.85
16:28:05.937500,165.39
16:28:05.953125,122.76
16:28:05.968750,79.21
16:28:05.984375,34.62
16:28:06,-12.73
16:28:06.015625,-63.48
16:28:06.031250,-114.88
16:28:06.046875,-160.09
16:28:06.062500,-189.85
16:28:06.078125,-195.71
16:28:06.093750,-173.64
16:28:06.109375,-126.50
16:28:06.125000,-64.00
16:28:06.140625,-0.20
16:28:06.156250,51.06
16:28:06.171875,80.55
16:28:06.187500,85.99
16:28:06.203125,71.50
16:28:06.218750,44.45
16:28:06.234375,11.25
16:28:06.250000,-25.37
16:28:06.265625,-66.33
16:28:06.281250,-113.29
16:28:06.296875,-164.93
16:28:06.312500,-214.75
16:28:06.328125,-252.12
16:28:06.343750,-266.35
16:28:06.359375,-251.41
16:28:06.375000,-208.71
16:28:06.390625,-146.19
16:28:06.406250,-74.79
16:28:06.421875,-4.39
16:28:06.437500,58.49
16:28:06.453125,110.50
16:28:06.468750,149.82
16:28:06.484375,174.69
16:28:06.500000,183.32
16:28:06.515625,175.22
16:28:06.531250,152.17
16:28:06.546875,117.88
16:28:06.562500,76.40
16:28:06.578125,30.57
16:28:06.593750,-18.13
16:28:06.609375,-67.88
16:28:06.625000,-114.63
16:28:06.640625,-151.68
16:28:06.656250,-171.14
16:28:06.671875,-166.88
16:28:06.687500,-137.26
16:28:06.703125,-86.25
16:28:06.718750,-22.50
16:28:06.734375,43.01
16:28:06.750000,99.47
16:28:06.765625,138.52
16:28:06.781250,155.65
16:28:06.796875,150.53
16:28:06.812500,126.65
16:28:06.828125,89.87
16:28:06.843750,46.40
16:28:06.859375,0.62
16:28:06.875000,-45.84
16:28:06.890625,-93.14
16:28:06.906250,-141.07
16:28:06.921875,-186.67
16:28:06.937500,-223.71
16:28:06.953125,-244.75
16:28:06.968750,-244.28
16:28:06.984375,-221.17
16:28:07,-178.90
16:28:07.015625,-123.68
16:28:07.031250,-61.93
16:28:07.046875,0.84
16:28:07.062500,59.82
16:28:07.078125,109.86
16:28:07.093750,145.08
16:28:07.109375,160.30
16:28:07.125000,153.31
16:28:07.140625,126.44
16:28:07.156250,85.84
16:28:07.171875,38.73
16:28:07.187500,-9.66
16:28:07.203125,-56.99
16:28:07.218750,-102.64
16:28:07.234375,-144.89
16:28:07.250000,-179.46
16:28:07.265625,-200.30
16:28:07.281250,-202.29
16:28:07.296875,-183.86
16:28:07.312500,-147.52
16:28:07.328125,-98.41
16:28:07.343750,-42.12
16:28:07.359375,16.08
16:28:07.375000,71.02
16:28:07.390625,116.79
16:28:07.406250,146.77
16:28:07.421875,155.48
16:28:07.437500,140.89
16:28:07.453125,105.68
16:28:07.468750,56.03
16:28:07.484375,-0.96
16:28:07.500000,-59.58
16:28:07.515625,-116.13
16:28:07.531250,-167.43
16:28:07.546875,-209.13
16:28:07.562500,-235.76
16:28:07.578125,-242.30
16:28:07.593750,-226.51
16:28:07.609375,-190.15
16:28:07.625000,-138.43
16:28:07.640625,-78.29
16:28:07.656250,-16.93
16:28:07.671875,38.77
16:28:07.687500,82.32
16:28:07.703125,107.87
16:28:07.718750,111.07
16:28:07.734375,90.45
16:28:07.750000,48.42
16:28:07.765625,-8.59
16:28:07.781250,-70.91
16:28:07.796875,-127.75
16:28:07.812500,-169.17
16:28:07.828125,-188.18
16:28:07.843750,-182.10
16:28:07.859375,-153.24
16:28:07.875000,-107.52
16:28:07.890625,-52.14
16:28:07.906250,6.91
16:28:07.921875,66.05
16:28:07.937500,123.03
16:28:07.953125,174.80
16:28:07.968750,215.88
16:28:07.984375,239.00
16:28:08,238.36
16:28:08.015625,212.86
16:28:08.031250,167.28
16:28:08.046875,110.10
16:28:08.062500,49.73
16:28:08.078125,-8.76
16:28:08.093750,-63.76
16:28:08.109375,-114.76
16:28:08.125000,-159.52
16:28:08.140625,-192.67
16:28:08.156250,-207.63
16:28:08.171875,-199.93
16:28:08.187500,-169.80
16:28:08.203125,-122.28
16:28:08.218750,-65.01
16:28:08.234375,-5.38
16:28:08.250000,51.03
16:28:08.265625,100.34
16:28:08.281250,139.30
16:28:08.296875,164.26
16:28:08.312500,171.37
16:28:08.328125,157.89
16:28:08.343750,123.87
16:28:08.359375,73.48
16:28:08.375000,14.78
16:28:08.390625,-41.59
16:28:08.406250,-84.64
16:28:08.421875,-105.60
16:28:08.437500,-99.99
16:28:08.453125,-68.21
16:28:08.468750,-14.67
16:28:08.484375,53.82
16:28:08.500000,129.47
16:28:08.515625,204.10
16:28:08.531250,269.18
16:28:08.546875,316.46
16:28:08.562500,339.22
16:28:08.578125,334.64
16:28:08.593750,305.75
16:28:08.609375,260.94
16:28:08.625000,211.00
16:28:08.640625,164.88
16:28:08.656250,126.06
16:28:08.671875,91.76
16:28:08.687500,55.76
16:28:08.703125,12.11
16:28:08.718750,-40.59
16:28:08.734375,-97.54
16:28:08.750000,-149.10
16:28:08.765625,-184.33
16:28:08.781250,-195.00
16:28:08.796875,-178.54
16:28:08.812500,-139.24
16:28:08.828125,-86.02
16:28:08.843750,-30.90
16:28:08.859375,14.66
16:28:08.875000,42.51
16:28:08.890625,49.16
16:28:08.906250,35.41
16:28:08.921875,4.87
16:28:08.937500,-38.01
16:28:08.953125,-90.16
16:28:08.968750,-148.74
16:28:08.984375,-212.34
16:28:09,-278.83
16:28:09.015625,-344.05
16:28:09.031250,-401.27
16:28:09.046875,-443.02
16:28:09.062500,-463.91
16:28:09.078125,-463.14
16:28:09.093750,-445.81
16:28:09.109375,-418.78
16:28:09.125000,-389.79
16:28:09.140625,-363.46
16:28:09.156250,-340.19
16:28:09.171875,-316.40
16:28:09.187500,-287.51
16:28:09.203125,-250.60
16:28:09.218750,-201.74
16:28:09.234375,-151.99
16:28:09.250000,-108.04
16:28:09.265625,-77.71
16:28:09.281250,-65.88
16:28:09.296875,-72.12
16:28:09.312500,-89.03
16:28:09.328125,-105.36
16:28:09.343750,-110.24
16:28:09.359375,-97.86
16:28:09.375000,-70.28
16:28:09.390625,-33.60
16:28:09.406250,3.65
16:28:09.421875,35.63
16:28:09.437500,61.12
16:28:09.453125,84.39
16:28:09.468750,110.34
16:28:09.484375,141.12
16:28:09.500000,174.77
16:28:09.515625,206.04
16:28:09.531250,231.31
16:28:09.546875,249.24
16:28:09.562500,261.88
16:28:09.578125,273.10
16:28:09.593750,289.04
16:28:09.609375,314.06
16:28:09.625000,349.52
16:28:09.640625,393.89
16:28:09.656250,443.72
16:28:09.671875,496.76
16:28:09.687500,552.32
16:28:09.703125,611.84
16:28:09.718750,661.56
16:28:09.734375,688.50
16:28:09.750000,681.85
16:28:09.765625,638.22
16:28:09.781250,563.43
16:28:09.796875,469.08
16:28:09.812500,367.77
16:28:09.828125,269.37
16:28:09.843750,180.31
16:28:09.859375,103.97
16:28:09.875000,43.54
16:28:09.890625,0.02
16:28:09.906250,-27.90
16:28:09.921875,-43.75
16:28:09.937500,-52.41
16:28:09.953125,-58.43
16:28:09.968750,-64.72
16:28:09.984375,-72.23
16:28:10,-80.60
16:28:10.015625,-87.08
16:28:10.031250,-88.89
16:28:10.046875,-84.03
16:28:10.062500,-72.46
16:28:10.078125,-56.91
16:28:10.093750,-42.79
16:28:10.109375,-36.82
16:28:10.125000,-44.70
16:28:10.140625,-68.66
16:28:10.156250,-104.80
16:28:10.171875,-144.82
16:28:10.187500,-179.01
16:28:10.203125,-200.14
16:28:10.218750,-206.15
16:28:10.234375,-200.00
16:28:10.250000,-187.33
16:28:10.265625,-173.33
16:28:10.281250,-160.79
16:28:10.296875,-149.45
16:28:10.312500,-137.86
16:28:10.328125,-125.14
16:28:10.343750,-111.89
16:28:10.359375,-99.67
16:28:10.375000,-89.81
16:28:10.390625,-82.36
16:28:10.406250,-76.15
16:28:10.421875,-69.55
16:28:10.437500,-61.09
16:28:10.453125,-50.50
16:28:10.468750,-38.77
16:28:10.484375,-27.72
16:28:10.500000,-19.10
16:28:10.515625,-13.89
16:28:10.531250,-11.92
16:28:10.546875,-12.13
16:28:10.562500,-13.19
16:28:10.578125,-14.16
16:28:10.593750,-14.83
16:28:10.609375,-15.75
16:28:10.625000,-17.78
16:28:10.640625,-21.53
16:28:10.656250,-26.96
16:28:10.671875,-33.18
16:28:10.687500,-38.96
16:28:10.703125,-43.34
16:28:10.718750,-45.96
16:28:10.734375,-47.22
16:28:10.750000,-48.17
16:28:10.765625,-50.04
16:28:10.781250,-53.52
16:28:10.796875,-58.54
16:28:10.812500,-64.08
16:28:10.828125,-68.78
16:28:10.843750,-71.70
16:28:10.859375,-72.50
16:28:10.875000,-71.71
16:28:10.890625,-70.43
16:28:10.906250,-69.88
16:28:10.921875,-70.58
16:28:10.937500,-72.06
16:28:10.953125,-73.03
16:28:10.968750,-71.03
16:28:10.984375,-65.99
16:28:11,-58.60
16:28:11.015625,-50.10
16:28:11.031250,-41.96
16:28:11.046875,-35.51
16:28:11.062500,-31.22
16:28:11.078125,-29.13
16:28:11.093750,-28.96
16:28:11.109375,-30.03
16:28:11.125000,-30.92
16:28:11.140625,-28.95
16:28:11.156250,-20.60
16:28:11.171875,-3.02
16:28:11.187500,24.00
16:28:11.203125,57.52
16:28:11.218750,91.91
16:28:11.234375,121.03
16:28:11.250000,140.50
16:28:11.265625,150.09
16:28:11.281250,150.73
16:28:11.296875,145.00
16:28:11.312500,135.62
16:28:11.328125,124.08
16:28:11.343750,111.35
16:28:11.359375,98.50
16:28:11.375000,87.20
16:28:11.390625,79.70
16:28:11.406250,77.95
16:28:11.421875,82.59
16:28:11.437500,91.33
16:28:11.453125,101.31
16:28:11.468750,107.20
16:28:11.484375,103.59
16:28:11.500000,87.51
16:28:11.515625,60.11
16:28:11.531250,26.72
16:28:11.546875,-5.15
16:28:11.562500,-28.99
16:28:11.578125,-41.59
16:28:11.593750,-43.91
16:28:11.609375,-40.18
16:28:11.625000,-34.93
16:28:11.640625,-30.67
16:28:11.656250,-27.28
16:28:11.671875,-23.06
16:28:11.687500,-16.49
16:28:11.703125,-7.62
16:28:11.718750,2.21
16:28:11.734375,11.28
16:28:11.750000,18.32
16:28:11.765625,23.25
16:28:11.781250,26.95
16:28:11.796875,30.42
16:28:11.812500,34.07
16:28:11.828125,37.21
16:28:11.843750,38.40
16:28:11.859375,36.12
16:28:11.875000,29.56
16:28:11.890625,18.84
16:28:11.906250,5.16
16:28:11.921875,-9.32
16:28:11.937500,-22.77
16:28:11.953125,-33.80
16:28:11.968750,-41.91
16:28:11.984375,-47.27
16:28:12,-50.48
16:28:12.015625,-52.10
16:28:12.031250,-52.63
16:28:12.046875,-52.29
16:28:12.062500,-51.23
16:28:12.078125,-49.63
16:28:12.093750,-47.58
16:28:12.109375,-45.25
16:28:12.125000,-42.72
16:28:12.140625,-39.98
16:28:12.156250,-37.04
16:28:12.171875,-34.11
16:28:12.187500,-31.50
16:28:12.203125,-29.64
16:28:12.218750,-29.09
16:28:12.234375,-29.49
16:28:12.250000,-30.28
16:28:12.265625,-30.67
16:28:12.281250,-29.97
16:28:12.296875,-27.99
16:28:12.312500,-25.27
16:28:12.328125,-23.00
16:28:12.343750,-22.25
16:28:12.359375,-23.59
16:28:12.375000,-26.43
16:28:12.390625,-29.41
16:28:12.406250,-31.00
16:28:12.421875,-30.51
16:28:12.437500,-28.59
16:28:12.453125,-26.70
16:28:12.468750,-26.13
16:28:12.484375,-26.81
16:28:12.500000,-27.42
16:28:12.515625,-26.11
16:28:12.531250,-22.31
16:28:12.546875,-17.22
16:28:12.562500,-12.91
16:28:12.578125,-10.53
16:28:12.593750,-9.18
16:28:12.609375,-6.52
16:28:12.625000,-0.86
16:28:12.640625,7.24
16:28:12.656250,15.21
16:28:12.671875,20.35
16:28:12.687500,22.71
16:28:12.703125,26.01
16:28:12.718750,35.83
16:28:12.734375,55.56
16:28:12.750000,82.74
16:28:12.765625,108.66
16:28:12.781250,121.77
16:28:12.796875,113.54
16:28:12.812500,83.08
16:28:12.828125,38.02
16:28:12.843750,-8.99
16:28:12.859375,-45.94
16:28:12.875000,-66.50
16:28:12.890625,-71.81
16:28:12.906250,-68.43
16:28:12.921875,-64.46
16:28:12.937500,-65.83
16:28:12.953125,-74.30
16:28:12.968750,-87.49
16:28:12.984375,-100.48
16:28:13,-108.08
16:28:13.015625,-105.96
16:28:13.031250,-91.76
16:28:13.046875,-65.61
16:28:13.062500,-30.72
16:28:13.078125,6.36
16:28:13.093750,36.55
16:28:13.109375,50.88
16:28:13.125000,43.63
16:28:13.140625,15.48
16:28:13.156250,-25.65
16:28:13.171875,-67.17
16:28:13.187500,-96.35
16:28:13.203125,-105.43
16:28:13.218750,-94.22
16:28:13.234375,-69.29
16:28:13.250000,-40.28
16:28:13.265625,-15.52
16:28:13.281250,0.66
16:28:13.296875,7.98
16:28:13.312500,8.35
16:28:13.328125,3.71
16:28:13.343750,-4.94
16:28:13.359375,-16.78
16:28:13.375000,-29.81
16:28:13.390625,-40.45
16:28:13.406250,-44.90
16:28:13.421875,-40.46
16:28:13.437500,-27.32
16:28:13.453125,-8.67
16:28:13.468750,10.88
16:28:13.484375,27.40
16:28:13.500000,38.73
16:28:13.515625,45.18
16:28:13.531250,48.71
16:28:13.546875,51.61
16:28:13.562500,55.49
16:28:13.578125,60.65
16:28:13.593750,66.10
16:28:13.609375,70.25
16:28:13.625000,71.53
16:28:13.640625,69.12
16:28:13.656250,63.35
16:28:13.671875,55.30
16:28:13.687500,46.49
16:28:13.703125,38.22
16:28:13.718750,31.20
16:28:13.734375,25.55
16:28:13.750000,21.09
16:28:13.765625,17.64
16:28:13.781250,15.10
16:28:13.796875,13.52
16:28:13.812500,12.78
16:28:13.828125,12.53
16:28:13.843750,12.36
16:28:13.859375,11.90
16:28:13.875000,11.20
16:28:13.890625,10.88
16:28:13.906250,11.89
16:28:13.921875,14.95
16:28:13.937500,20.14
16:28:13.953125,26.62
16:28:13.968750,32.86
16:28:13.984375,37.43
16:28:14,39.58
16:28:14.015625,39.91
16:28:14.031250,40.07
16:28:14.046875,41.80
16:28:14.062500,45.68
16:28:14.078125,50.82
16:28:14.093750,55.15
16:28:14.109375,56.86
16:28:14.125000,55.70
16:28:14.140625,52.77
16:28:14.156250,49.64
16:28:14.171875,46.62
16:28:14.187500,41.61
16:28:14.203125,30.72
16:28:14.218750,10.20
16:28:14.234375,-21.28
16:28:14.250000,-62.38
16:28:14.265625,-109.89
16:28:14.281250,-160.59
16:28:14.296875,-211.21
16:28:14.312500,-257.66
16:28:14.328125,-294.01
16:28:14.343750,-312.67
16:28:14.359375,-306.93
16:28:14.375000,-274.98
16:28:14.390625,-223.10
16:28:14.406250,-163.83
16:28:14.421875,-115.68
16:28:14.437500,-94.59
16:28:14.453125,-106.74
16:28:14.468750,-145.50
16:28:14.484375,-194.21
16:28:14.500000,-233.36
16:28:14.515625,-248.35
16:28:14.531250,-234.40
16:28:14.546875,-196.90
16:28:14.562500,-148.46
16:28:14.578125,-103.20
16:28:14.593750,-72.56
16:28:14.609375,-62.70
16:28:14.625000,-73.79
16:28:14.640625,-100.78
16:28:14.656250,-135.42
16:28:14.671875,-168.51
16:28:14.687500,-192.43
16:28:14.703125,-203.12
16:28:14.718750,-200.32
16:28:14.734375,-186.57
16:28:14.750000,-165.77
16:28:14.765625,-141.50
16:28:14.781250,-116.41
16:28:14.796875,-92.30
16:28:14.812500,-70.43
16:28:14.828125,-51.68
16:28:14.843750,-36.36
16:28:14.859375,-23.84
16:28:14.875000,-12.62
16:28:14.890625,-1.11
16:28:14.906250,11.95
16:28:14.921875,27.06
16:28:14.937500,44.08
16:28:14.953125,62.79
16:28:14.968750,82.88
16:28:14.984375,104.05
16:28:15,125.77
16:28:15.015625,147.37
16:28:15.031250,168.00
16:28:15.046875,187.02
16:28:15.062500,204.10
16:28:15.078125,219.47
16:28:15.093750,233.97
16:28:15.109375,249.03
16:28:15.125000,266.63
16:28:15.140625,288.51
16:28:15.156250,315.04
16:28:15.171875,343.83
16:28:15.187500,369.60
16:28:15.203125,385.78
16:28:15.218750,387.62
16:28:15.234375,375.48
16:28:15.250000,356.05
16:28:15.265625,340.99
16:28:15.281250,342.23
16:28:15.296875,366.66
16:28:15.312500,412.24
16:28:15.328125,467.87
16:28:15.343750,516.86
16:28:15.359375,542.64
16:28:15.375000,534.62
16:28:15.390625,492.11
16:28:15.406250,425.03
16:28:15.421875,350.90
16:28:15.437500,288.83
16:28:15.453125,252.68
16:28:15.468750,245.95
16:28:15.484375,260.61
16:28:15.500000,280.86
16:28:15.515625,290.19
16:28:15.531250,278.21
16:28:15.546875,244.20
16:28:15.562500,195.74
16:28:15.578125,143.83
16:28:15.593750,97.23
16:28:15.609375,59.02
16:28:15.625000,26.75
16:28:15.640625,-5.22
16:28:15.656250,-42.56
16:28:15.671875,-88.86
16:28:15.687500,-144.48
16:28:15.703125,-206.04
16:28:15.718750,-266.47
16:28:15.734375,-315.39
16:28:15.750000,-341.53
16:28:15.765625,-336.51
16:28:15.781250,-298.93
16:28:15.796875,-236.66
16:28:15.812500,-165.98
16:28:15.828125,-106.78
16:28:15.843750,-75.79
16:28:15.859375,-80.47
16:28:15.875000,-116.08
16:28:15.890625,-166.99
16:28:15.906250,-212.23
16:28:15.921875,-232.96
16:28:15.937500,-219.09
16:28:15.953125,-172.99
16:28:15.968750,-108.39
16:28:15.984375,-45.33
16:28:16,-2.85
16:28:16.015625,8.13
16:28:16.031250,-11.16
16:28:16.046875,-48.17
16:28:16.062500,-84.00
16:28:16.078125,-101.05
16:28:16.093750,-90.31
