11:46:05,-0.00
11:46:05.015625,-0.00
11:46:05.031250,-0.00
11:46:05.046875,-0.00
11:46:05.062500,-0.00
11:46:05.078125,-0.00
11:46:05.093750,-0.00
11:46:05.109375,-0.00
11:46:05.125000,-0.00
11:46:05.140625,-0.01
11:46:05.156250,-0.00
11:46:05.171875,0.00
11:46:05.187500,0.01
11:46:05.203125,0.01
11:46:05.218750,-0.00
11:46:05.234375,-0.03
11:46:05.250000,-0.05
11:46:05.265625,-0.05
11:46:05.281250,-0.00
11:46:05.296875,0.13
11:46:05.312500,0.36
11:46:05.328125,0.66
11:46:05.343750,1.01
11:46:05.359375,1.37
11:46:05.375000,1.72
11:46:05.390625,2.06
11:46:05.406250,2.40
11:46:05.421875,2.77
11:46:05.437500,3.24
11:46:05.453125,3.80
11:46:05.468750,4.42
11:46:05.484375,5.06
11:46:05.500000,5.66
11:46:05.515625,6.20
11:46:05.531250,6.68
11:46:05.546875,7.15
11:46:05.562500,7.64
11:46:05.578125,8.31
11:46:05.593750,9.14
11:46:05.609375,10.09
11:46:05.625000,11.04
11:46:05.640625,11.88
11:46:05.656250,12.56
11:46:05.671875,13.14
11:46:05.687500,13.76
11:46:05.703125,14.58
11:46:05.718750,15.96
11:46:05.734375,17.91
11:46:05.750000,20.32
11:46:05.765625,22.90
11:46:05.781250,25.38
11:46:05.796875,27.58
11:46:05.812500,29.57
11:46:05.828125,31.68
11:46:05.843750,34.20
11:46:05.859375,37.81
11:46:05.875000,42.54
11:46:05.890625,48.15
11:46:05.906250,54.10
11:46:05.921875,59.83
11:46:05.937500,64.97
11:46:05.953125,69.58
11:46:05.968750,74.14
11:46:05.984375,79.19
11:46:06,85.71
11:46:06.015625,93.76
11:46:06.031250,103.00
11:46:06.046875,112.62
11:46:06.062500,121.73
11:46:06.078125,129.77
11:46:06.093750,136.75
11:46:06.109375,144.29
11:46:06.125000,150.58
11:46:06.140625,157.77
11:46:06.156250,166.64
11:46:06.171875,177.95
11:46:06.187500,191.79
11:46:06.203125,206.97
11:46:06.218750,220.57
11:46:06.234375,228.25
11:46:06.250000,225.36
11:46:06.265625,208.37
11:46:06.281250,176.87
11:46:06.296875,132.76
11:46:06.312500,80.05
11:46:06.328125,23.07
11:46:06.343750,-34.94
11:46:06.359375,-92.44
11:46:06.375000,-149.16
11:46:06.390625,-205.23
11:46:06.406250,-260.49
11:46:06.421875,-313.74
11:46:06.437500,-363.87
11:46:06.453125,-409.83
11:46:06.468750,-450.91
11:46:06.484375,-486.50
11:46:06.500000,-515.74
11:46:06.515625,-537.23
11:46:06.531250,-549.22
11:46:06.546875,-550.04
11:46:06.562500,-538.37
11:46:06.578125,-514.20
11:46:06.593750,-478.67
11:46:06.609375,-433.88
11:46:06.625000,-382.45
11:46:06.640625,-327.02
11:46:06.656250,-269.84
11:46:06.671875,-212.63
11:46:06.687500,-156.70
11:46:06.703125,-102.95
11:46:06.718750,-52.37
11:46:06.734375,-5.90
11:46:06.750000,35.58
11:46:06.765625,71.43
11:46:06.781250,101.35
11:46:06.796875,125.50
11:46:06.812500,144.38
11:46:06.828125,158.68
11:46:06.843750,169.15
11:46:06.859375,176.37
11:46:06.875000,180.75
11:46:06.890625,182.57
11:46:06.906250,182.07
11:46:06.921875,179.51
11:46:06.937500,175.23
11:46:06.953125,169.65
11:46:06.968750,163.18
11:46:06.984375,156.15
11:46:07,148.81
11:46:07.015625,141.30
11:46:07.031250,133.69
11:46:07.046875,126.02
11:46:07.062500,118.33
11:46:07.078125,110.69
11:46:07.093750,103.16
11:46:07.109375,95.80
11:46:07.125000,88.68
11:46:07.140625,81.83
11:46:07.156250,75.25
11:46:07.171875,68.95
11:46:07.187500,62.95
11:46:07.203125,57.25
11:46:07.218750,51.86
11:46:07.234375,46.78
11:46:07.250000,42.03
11:46:07.265625,37.59
11:46:07.281250,33.45
11:46:07.296875,29.61
11:46:07.312500,26.07
11:46:07.328125,22.81
11:46:07.343750,19.82
11:46:07.359375,17.11
11:46:07.375000,14.67
11:46:07.390625,12.48
11:46:07.406250,10.54
11:46:07.421875,8.83
11:46:07.437500,7.35
11:46:07.453125,6.07
11:46:07.468750,4.97
11:46:07.484375,4.05
11:46:07.500000,3.27
11:46:07.515625,2.62
11:46:07.531250,2.09
11:46:07.546875,1.65
11:46:07.562500,1.30
11:46:07.578125,1.01
11:46:07.593750,0.79
11:46:07.609375,0.61
11:46:07.625000,0.48
11:46:07.640625,0.38
11:46:07.656250,0.30
11:46:07.671875,0.25
11:46:07.687500,0.22
11:46:07.703125,0.20
11:46:07.718750,0.20
11:46:07.734375,0.21
11:46:07.750000,0.23
11:46:07.765625,0.26
11:46:07.781250,0.29
11:46:07.796875,0.32
11:46:07.812500,0.36
11:46:07.828125,0.41
11:46:07.843750,0.45
11:46:07.859375,0.50
11:46:07.875000,0.54
11:46:07.890625,0.59
11:46:07.906250,0.64
11:46:07.921875,0.70
11:46:07.937500,0.76
11:46:07.953125,0.82
11:46:07.968750,0.89
11:46:07.984375,0.97
11:46:08,1.05
11:46:08.015625,1.15
11:46:08.031250,1.25
11:46:08.046875,1.37
11:46:08.062500,1.50
11:46:08.078125,1.64
11:46:08.093750,1.81
11:46:08.109375,1.99
11:46:08.125000,2.19
11:46:08.140625,2.42
11:46:08.156250,2.67
11:46:08.171875,2.95
11:46:08.187500,3.25
11:46:08.203125,3.59
11:46:08.218750,3.95
11:46:08.234375,4.36
11:46:08.250000,4.79
11:46:08.265625,5.27
11:46:08.281250,5.78
11:46:08.296875,6.33
11:46:08.312500,6.92
11:46:08.328125,7.55
11:46:08.343750,8.22
11:46:08.359375,8.94
11:46:08.375000,9.70
11:46:08.390625,10.51
11:46:08.406250,11.39
11:46:08.421875,12.33
11:46:08.437500,13.32
11:46:08.453125,14.33
11:46:08.468750,15.33
11:46:08.484375,16.30
11:46:08.500000,17.23
11:46:08.515625,18.18
11:46:08.531250,19.18
11:46:08.546875,20.27
11:46:08.562500,21.43
11:46:08.578125,22.57
11:46:08.593750,23.52
11:46:08.609375,24.08
11:46:08.625000,24.04
11:46:08.640625,23.26
11:46:08.656250,21.68
11:46:08.671875,19.33
11:46:08.687500,16.32
11:46:08.703125,12.74
11:46:08.718750,8.66
11:46:08.734375,4.17
11:46:08.750000,-0.66
11:46:08.765625,-5.69
11:46:08.781250,-10.73
11:46:08.796875,-15.45
11:46:08.812500,-19.49
11:46:08.828125,-22.52
11:46:08.843750,-24.41
11:46:08.859375,-25.26
11:46:08.875000,-25.41
11:46:08.890625,-25.34
11:46:08.906250,-25.46
11:46:08.921875,-25.91
11:46:08.937500,-26.54
11:46:08.953125,-26.94
11:46:08.968750,-26.61
11:46:08.984375,-25.34
11:46:09,-23.30
11:46:09.015625,-21.13
11:46:09.031250,-19.65
11:46:09.046875,-19.51
11:46:09.062500,-20.85
11:46:09.078125,-23.16
11:46:09.093750,-25.46
11:46:09.109375,-26.72
11:46:09.125000,-26.39
11:46:09.140625,-24.70
11:46:09.156250,-22.67
11:46:09.171875,-21.66
11:46:09.187500,-22.79
11:46:09.203125,-26.30
11:46:09.218750,-31.44
11:46:09.234375,-36.72
11:46:09.250000,-40.64
11:46:09.265625,-42.21
11:46:09.281250,-41.46
11:46:09.296875,-39.41
11:46:09.312500,-37.59
11:46:09.328125,-37.60
11:46:09.343750,-40.84
11:46:09.359375,-48.12
11:46:09.375000,-59.08
11:46:09.390625,-71.49
11:46:09.406250,-80.99
11:46:09.421875,-81.87
11:46:09.437500,-68.97
11:46:09.453125,-40.18
11:46:09.468750,1.89
11:46:09.484375,49.92
11:46:09.500000,93.99
11:46:09.515625,125.00
11:46:09.531250,137.71
11:46:09.546875,132.10
11:46:09.562500,112.50
11:46:09.578125,85.35
11:46:09.593750,56.89
11:46:09.609375,31.75
11:46:09.625000,12.72
11:46:09.640625,1.21
11:46:09.656250,-2.33
11:46:09.671875,1.78
11:46:09.687500,12.29
11:46:09.703125,27.15
11:46:09.718750,43.70
11:46:09.734375,58.73
11:46:09.750000,69.49
11:46:09.765625,74.41
11:46:09.781250,73.04
11:46:09.796875,65.74
11:46:09.812500,53.29
11:46:09.828125,36.62
11:46:09.843750,16.67
11:46:09.859375,-5.53
11:46:09.875000,-28.93
11:46:09.890625,-52.47
11:46:09.906250,-75.29
11:46:09.921875,-97.00
11:46:09.937500,-117.60
11:46:09.953125,-137.39
11:46:09.968750,-156.83
11:46:09.984375,-176.35
11:46:10,-196.31
11:46:10.015625,-216.72
11:46:10.031250,-236.70
11:46:10.046875,-254.17
11:46:10.062500,-265.85
11:46:10.078125,-268.01
11:46:10.093750,-257.58
11:46:10.109375,-233.37
11:46:10.125000,-196.59
11:46:10.140625,-150.42
11:46:10.156250,-98.62
11:46:10.171875,-43.97
11:46:10.187500,12.49
11:46:10.203125,70.77
11:46:10.218750,130.31
11:46:10.234375,188.39
11:46:10.250000,239.62
11:46:10.265625,277.42
11:46:10.281250,296.50
11:46:10.296875,295.36
11:46:10.312500,277.25
11:46:10.328125,249.07
11:46:10.343750,218.74
11:46:10.359375,192.48
11:46:10.375000,173.30
11:46:10.390625,161.01
11:46:10.406250,153.79
11:46:10.421875,149.74
11:46:10.437500,147.70
11:46:10.453125,147.04
11:46:10.468750,146.88
11:46:10.484375,145.34
11:46:10.500000,139.80
11:46:10.515625,127.81
11:46:10.531250,108.14
11:46:10.546875,81.53
11:46:10.562500,50.52
11:46:10.578125,18.53
11:46:10.593750,-11.50
11:46:10.609375,-38.09
11:46:10.625000,-61.58
11:46:10.640625,-83.62
11:46:10.656250,-106.15
11:46:10.671875,-130.50
11:46:10.687500,-156.92
11:46:10.703125,-184.74
11:46:10.718750,-212.74
11:46:10.734375,-239.33
11:46:10.750000,-262.33
11:46:10.765625,-278.96
11:46:10.781250,-285.96
11:46:10.796875,-280.35
11:46:10.812500,-260.45
11:46:10.828125,-226.62
11:46:10.843750,-180.95
11:46:10.859375,-126.26
11:46:10.875000,-65.04
11:46:10.890625,0.89
11:46:10.906250,69.57
11:46:10.921875,137.59
11:46:10.937500,199.42
11:46:10.953125,248.08
11:46:10.968750,277.49
11:46:10.984375,284.86
11:46:11,272.20
11:46:11.015625,245.75
11:46:11.031250,213.69
11:46:11.046875,183.44
11:46:11.062500,159.58
11:46:11.078125,143.44
11:46:11.093750,134.02
11:46:11.109375,129.42
11:46:11.125000,127.91
11:46:11.140625,128.26
11:46:11.156250,129.35
11:46:11.171875,129.73
11:46:11.187500,127.44
11:46:11.203125,120.41
11:46:11.218750,107.04
11:46:11.234375,86.81
11:46:11.250000,60.68
11:46:11.265625,30.71
11:46:11.281250,-0.48
11:46:11.296875,-30.55
11:46:11.312500,-58.08
11:46:11.328125,-82.82
11:46:11.343750,-105.43
11:46:11.359375,-126.93
11:46:11.375000,-148.22
11:46:11.390625,-169.76
11:46:11.406250,-191.73
11:46:11.421875,-214.14
11:46:11.437500,-236.76
11:46:11.453125,-258.64
11:46:11.468750,-277.68
11:46:11.484375,-290.50
11:46:11.500000,-293.15
11:46:11.515625,-282.27
11:46:11.531250,-256.29
11:46:11.546875,-215.82
11:46:11.562500,-163.26
11:46:11.578125,-101.74
11:46:11.593750,-34.55
11:46:11.609375,34.92
11:46:11.625000,102.53
11:46:11.640625,163.01
11:46:11.656250,210.44
11:46:11.671875,239.85
11:46:11.687500,249.03
11:46:11.703125,239.76
11:46:11.718750,217.39
11:46:11.734375,189.15
11:46:11.750000,161.81
11:46:11.765625,139.94
11:46:11.781250,125.32
11:46:11.796875,117.47
11:46:11.812500,114.77
11:46:11.828125,115.38
11:46:11.843750,117.73
11:46:11.859375,120.48
11:46:11.875000,122.31
11:46:11.890625,121.80
11:46:11.906250,117.51
11:46:11.921875,108.32
11:46:11.937500,93.69
11:46:11.953125,74.02
11:46:11.968750,50.48
11:46:11.984375,24.80
11:46:12,-1.26
11:46:12.015625,-26.36
11:46:12.031250,-49.78
11:46:12.046875,-71.49
11:46:12.062500,-91.91
11:46:12.078125,-111.62
11:46:12.093750,-131.34
11:46:12.109375,-151.82
11:46:12.125000,-173.65
11:46:12.140625,-196.78
11:46:12.156250,-219.89
11:46:12.171875,-239.98
11:46:12.187500,-252.65
11:46:12.203125,-253.11
11:46:12.218750,-237.66
11:46:12.234375,-204.81
11:46:12.250000,-155.93
11:46:12.265625,-94.85
11:46:12.281250,-26.96
11:46:12.296875,41.78
11:46:12.312500,105.64
11:46:12.328125,159.62
11:46:12.343750,199.81
11:46:12.359375,223.71
11:46:12.375000,230.81
11:46:12.390625,222.73
11:46:12.406250,203.18
11:46:12.421875,177.20
11:46:12.437500,150.16
11:46:12.453125,126.66
11:46:12.468750,109.63
11:46:12.484375,100.07
11:46:12.500000,97.13
11:46:12.515625,98.73
11:46:12.531250,102.34
11:46:12.546875,105.69
11:46:12.562500,107.19
11:46:12.578125,105.96
11:46:12.593750,101.55
11:46:12.609375,93.65
11:46:12.625000,81.90
11:46:12.640625,65.99
11:46:12.656250,45.89
11:46:12.671875,22.09
11:46:12.687500,-4.33
11:46:12.703125,-31.84
11:46:12.718750,-58.90
11:46:12.734375,-84.27
11:46:12.750000,-107.29
11:46:12.765625,-127.98
11:46:12.781250,-146.88
11:46:12.796875,-164.99
11:46:12.812500,-183.58
11:46:12.828125,-203.94
11:46:12.843750,-226.73
11:46:12.859375,-251.31
11:46:12.875000,-275.08
11:46:12.890625,-293.59
11:46:12.906250,-301.53
11:46:12.921875,-294.33
11:46:12.937500,-269.63
11:46:12.953125,-227.91
11:46:12.968750,-172.18
11:46:12.984375,-106.92
11:46:13,-37.09
11:46:13.015625,32.39
11:46:13.031250,96.72
11:46:13.046875,151.28
11:46:13.062500,191.93
11:46:13.078125,215.90
11:46:13.093750,222.73
11:46:13.109375,214.60
11:46:13.125000,195.97
11:46:13.140625,172.39
11:46:13.156250,149.15
11:46:13.171875,130.14
11:46:13.187500,117.38
11:46:13.203125,111.04
11:46:13.218750,109.85
11:46:13.234375,111.76
11:46:13.250000,114.55
11:46:13.265625,116.33
11:46:13.281250,115.85
11:46:13.296875,112.49
11:46:13.312500,106.03
11:46:13.328125,96.29
11:46:13.343750,83.12
11:46:13.359375,66.32
11:46:13.375000,45.96
11:46:13.390625,22.54
11:46:13.406250,-2.89
11:46:13.421875,-28.94
11:46:13.437500,-54.25
11:46:13.453125,-77.90
11:46:13.468750,-99.57
11:46:13.484375,-119.48
11:46:13.500000,-138.21
11:46:13.515625,-156.38
11:46:13.531250,-174.65
11:46:13.546875,-193.75
11:46:13.562500,-214.50
11:46:13.578125,-237.26
11:46:13.593750,-261.26
11:46:13.609375,-283.88
11:46:13.625000,-300.76
11:46:13.640625,-306.80
11:46:13.656250,-297.82
11:46:13.671875,-271.99
11:46:13.687500,-230.33
11:46:13.703125,-176.04
11:46:13.718750,-113.23
11:46:13.734375,-45.92
11:46:13.750000,22.17
11:46:13.765625,87.15
11:46:13.781250,144.43
11:46:13.796875,189.13
11:46:13.812500,217.24
11:46:13.828125,227.18
11:46:13.843750,220.69
11:46:13.859375,202.56
11:46:13.875000,179.10
11:46:13.890625,156.29
11:46:13.906250,138.29
11:46:13.921875,126.88
11:46:13.937500,121.78
11:46:13.953125,121.46
11:46:13.968750,123.91
11:46:13.984375,127.27
11:46:14,130.00
11:46:14.015625,130.96
11:46:14.031250,129.31
11:46:14.046875,124.40
11:46:14.062500,115.73
11:46:14.078125,102.97
11:46:14.093750,86.12
11:46:14.109375,65.61
11:46:14.125000,42.31
11:46:14.140625,17.48
11:46:14.156250,-7.55
11:46:14.171875,-31.68
11:46:14.187500,-54.28
11:46:14.203125,-75.23
11:46:14.218750,-94.81
11:46:14.234375,-113.45
11:46:14.250000,-131.53
11:46:14.265625,-149.36
11:46:14.281250,-167.41
11:46:14.296875,-186.43
11:46:14.312500,-207.24
11:46:14.328125,-230.03
11:46:14.343750,-253.57
11:46:14.359375,-274.64
11:46:14.375000,-288.50
11:46:14.390625,-290.20
11:46:14.406250,-276.25
11:46:14.421875,-245.82
11:46:14.437500,-200.72
11:46:14.453125,-144.42
11:46:14.468750,-80.82
11:46:14.484375,-13.59
11:46:14.500000,53.61
11:46:14.515625,116.47
11:46:14.531250,169.80
11:46:14.546875,208.35
11:46:14.562500,228.47
11:46:14.578125,229.73
11:46:14.593750,215.49
11:46:14.609375,191.88
11:46:14.625000,165.92
11:46:14.640625,143.35
11:46:14.656250,127.46
11:46:14.671875,119.00
11:46:14.687500,116.89
11:46:14.703125,119.26
11:46:14.718750,124.11
11:46:14.734375,129.64
11:46:14.750000,134.27
11:46:14.765625,136.58
11:46:14.781250,135.41
11:46:14.796875,129.98
11:46:14.812500,119.98
11:46:14.828125,105.66
11:46:14.843750,87.71
11:46:14.859375,67.08
11:46:14.875000,44.77
11:46:14.890625,21.69
11:46:14.906250,-1.43
11:46:14.921875,-24.05
11:46:14.937500,-45.85
11:46:14.953125,-66.57
11:46:14.968750,-86.03
11:46:14.984375,-104.11
11:46:15,-120.79
11:46:15.015625,-136.29
11:46:15.031250,-151.26
11:46:15.046875,-166.84
11:46:15.062500,-184.24
11:46:15.078125,-204.11
11:46:15.093750,-225.55
11:46:15.109375,-245.65
11:46:15.125000,-259.77
11:46:15.140625,-262.74
11:46:15.156250,-250.56
11:46:15.171875,-221.63
11:46:15.187500,-177.11
11:46:15.203125,-120.28
11:46:15.218750,-55.57
11:46:15.234375,12.26
11:46:15.250000,78.29
11:46:15.265625,137.41
11:46:15.281250,184.53
11:46:15.296875,215.31
11:46:15.312500,227.50
11:46:15.328125,221.89
11:46:15.343750,202.46
11:46:15.359375,175.37
11:46:15.375000,147.20
11:46:15.390625,123.34
11:46:15.406250,106.91
11:46:15.421875,98.77
11:46:15.437500,98.03
11:46:15.453125,102.71
11:46:15.468750,110.41
11:46:15.484375,118.67
11:46:15.500000,125.21
11:46:15.515625,128.26
11:46:15.531250,126.75
11:46:15.546875,120.37
11:46:15.562500,109.48
11:46:15.578125,94.87
11:46:15.593750,77.40
11:46:15.609375,57.78
11:46:15.625000,36.53
11:46:15.640625,14.13
11:46:15.656250,-8.83
11:46:15.671875,-31.63
11:46:15.687500,-53.53
11:46:15.703125,-74.00
11:46:15.718750,-92.77
11:46:15.734375,-109.89
11:46:15.750000,-125.60
11:46:15.765625,-140.30
11:46:15.781250,-154.66
11:46:15.796875,-169.74
11:46:15.812500,-186.83
11:46:15.828125,-206.77
11:46:15.843750,-229.02
11:46:15.859375,-250.89
11:46:15.875000,-267.68
11:46:15.890625,-273.86
11:46:15.906250,-264.80
11:46:15.921875,-238.39
11:46:15.937500,-195.50
11:46:15.953125,-139.45
11:46:15.968750,-74.88
11:46:15.984375,-6.75
11:46:16,59.96
11:46:16.015625,120.21
11:46:16.031250,168.91
11:46:16.046875,201.61
11:46:16.062500,215.67
11:46:16.078125,211.43
11:46:16.093750,192.49
11:46:16.109375,164.92
11:46:16.125000,135.52
11:46:16.140625,110.10
11:46:16.156250,92.26
11:46:16.171875,83.19
11:46:16.187500,82.03
11:46:16.203125,86.74
11:46:16.218750,94.81
11:46:16.234375,103.79
11:46:16.250000,111.63
11:46:16.265625,116.77
11:46:16.281250,118.21
11:46:16.296875,115.39
11:46:16.312500,108.14
11:46:16.328125,96.56
11:46:16.343750,80.98
11:46:16.359375,61.93
11:46:16.375000,40.16
11:46:16.390625,16.62
11:46:16.406250,-7.64
11:46:16.421875,-31.64
11:46:16.437500,-54.63
11:46:16.453125,-76.26
11:46:16.468750,-96.46
11:46:16.484375,-115.35
11:46:16.500000,-133.12
11:46:16.515625,-149.98
11:46:16.531250,-166.41
11:46:16.546875,-183.24
11:46:16.562500,-201.49
11:46:16.578125,-221.65
11:46:16.593750,-242.80
11:46:16.609375,-262.04
11:46:16.625000,-274.82
11:46:16.640625,-276.23
11:46:16.656250,-262.70
11:46:16.671875,-233.23
11:46:16.687500,-189.46
11:46:16.703125,-134.76
11:46:16.718750,-72.89
11:46:16.734375,-7.50
11:46:16.750000,57.75
11:46:16.765625,118.44
11:46:16.781250,169.19
11:46:16.796875,204.56
11:46:16.812500,220.78
11:46:16.828125,217.49
11:46:16.843750,198.37
11:46:16.859375,170.18
11:46:16.875000,140.53
11:46:16.890625,115.67
11:46:16.906250,99.03
11:46:16.921875,91.12
11:46:16.937500,90.45
11:46:16.953125,94.67
11:46:16.968750,101.49
11:46:16.984375,108.97
11:46:17,115.51
11:46:17.015625,119.63
11:46:17.031250,120.09
11:46:17.046875,115.96
11:46:17.062500,106.85
11:46:17.078125,93.09
11:46:17.093750,75.67
11:46:17.109375,56.01
11:46:17.125000,35.59
11:46:17.140625,15.69
11:46:17.156250,-2.93
11:46:17.171875,-20.08
11:46:17.187500,-36.10
11:46:17.203125,-51.57
11:46:17.218750,-67.04
11:46:17.234375,-82.81
11:46:17.250000,-98.97
11:46:17.265625,-115.64
11:46:17.281250,-133.28
11:46:17.296875,-152.81
11:46:17.312500,-174.96
11:46:17.328125,-199.36
11:46:17.343750,-223.67
11:46:17.359375,-243.49
11:46:17.375000,-253.40
11:46:17.390625,-248.76
11:46:17.406250,-227.27
11:46:17.421875,-189.63
11:46:17.437500,-138.84
11:46:17.453125,-78.93
11:46:17.468750,-13.91
11:46:17.484375,52.35
11:46:17.500000,115.55
11:46:17.515625,170.43
11:46:17.531250,211.34
11:46:17.546875,233.67
11:46:17.562500,235.80
11:46:17.578125,220.13
11:46:17.593750,192.66
11:46:17.609375,161.11
11:46:17.625000,132.47
11:46:17.640625,111.18
11:46:17.656250,98.61
11:46:17.671875,93.69
11:46:17.687500,94.13
11:46:17.703125,97.57
11:46:17.718750,102.18
11:46:17.734375,106.67
11:46:17.750000,110.02
11:46:17.765625,111.26
11:46:17.781250,109.34
11:46:17.796875,103.20
11:46:17.812500,92.16
11:46:17.828125,76.18
11:46:17.843750,55.98
11:46:17.859375,33.03
11:46:17.875000,9.07
11:46:17.890625,-14.30
11:46:17.906250,-36.16
11:46:17.921875,-56.43
11:46:17.937500,-75.69
11:46:17.953125,-94.78
11:46:17.968750,-114.26
11:46:17.984375,-134.22
11:46:18,-154.46
11:46:18.015625,-174.91
11:46:18.031250,-195.76
11:46:18.046875,-217.17
11:46:18.062500,-238.39
11:46:18.078125,-257.14
11:46:18.093750,-269.62
11:46:18.109375,-271.46
11:46:18.125000,-259.31
11:46:18.140625,-232.10
11:46:18.156250,-191.30
11:46:18.171875,-139.89
11:46:18.187500,-81.12
11:46:18.203125,-17.72
11:46:18.218750,47.73
11:46:18.234375,111.62
11:46:18.250000,168.65
11:46:18.265625,212.33
11:46:18.281250,237.06
11:46:18.296875,240.47
11:46:18.312500,224.89
11:46:18.328125,196.77
11:46:18.343750,164.48
11:46:18.359375,135.40
11:46:18.375000,113.89
11:46:18.390625,100.86
11:46:18.406250,94.66
11:46:18.421875,92.77
11:46:18.437500,93.05
11:46:18.453125,94.22
11:46:18.468750,95.56
11:46:18.484375,96.38
11:46:18.500000,95.56
11:46:18.515625,91.62
11:46:18.531250,83.08
11:46:18.546875,69.03
11:46:18.562500,49.65
11:46:18.578125,26.26
11:46:18.593750,0.99
11:46:18.609375,-23.92
11:46:18.625000,-46.90
11:46:18.640625,-67.62
11:46:18.656250,-86.86
11:46:18.671875,-106.11
11:46:18.687500,-126.69
11:46:18.703125,-149.12
11:46:18.718750,-173.05
11:46:18.734375,-197.49
11:46:18.750000,-221.32
11:46:18.765625,-243.47
11:46:18.781250,-262.71
11:46:18.796875,-277.24
11:46:18.812500,-284.67
11:46:18.828125,-282.35
11:46:18.843750,-268.29
11:46:18.859375,-242.00
11:46:18.875000,-204.76
11:46:18.890625,-159.00
11:46:18.906250,-107.16
11:46:18.921875,-50.84
11:46:18.937500,8.92
11:46:18.953125,70.52
11:46:18.968750,130.42
11:46:18.984375,182.84
11:46:19,221.05
11:46:19.015625,239.95
11:46:19.031250,238.47
11:46:19.046875,220.50
11:46:19.062500,193.54
11:46:19.078125,165.88
11:46:19.093750,143.68
11:46:19.109375,129.46
11:46:19.125000,122.46
11:46:19.140625,120.31
11:46:19.156250,120.85
11:46:19.171875,122.97
11:46:19.187500,126.16
11:46:19.203125,129.54
11:46:19.218750,131.18
11:46:19.234375,128.30
11:46:19.250000,118.42
11:46:19.265625,100.52
11:46:19.281250,75.67
11:46:19.296875,46.82
11:46:19.312500,17.52
11:46:19.328125,-9.36
11:46:19.343750,-32.68
11:46:19.359375,-53.13
11:46:19.375000,-72.63
11:46:19.390625,-93.18
11:46:19.406250,-116.04
11:46:19.421875,-141.30
11:46:19.437500,-168.00
11:46:19.453125,-194.43
11:46:19.468750,-218.37
11:46:19.484375,-237.13
11:46:19.500000,-247.81
11:46:19.515625,-247.77
11:46:19.531250,-235.32
11:46:19.546875,-210.32
11:46:19.562500,-174.15
11:46:19.578125,-129.01
11:46:19.593750,-76.94
11:46:19.609375,-19.36
11:46:19.625000,42.43
11:46:19.640625,105.99
11:46:19.656250,166.71
11:46:19.671875,217.95
11:46:19.687500,252.80
11:46:19.703125,266.68
11:46:19.718750,259.47
11:46:19.734375,235.89
11:46:19.750000,203.84
11:46:19.765625,171.51
11:46:19.781250,144.81
11:46:19.796875,126.13
11:46:19.812500,114.95
11:46:19.828125,109.34
11:46:19.843750,107.58
11:46:19.859375,108.73
11:46:19.875000,112.21
11:46:19.890625,116.98
11:46:19.906250,120.88
11:46:19.921875,120.87
11:46:19.937500,113.99
11:46:19.953125,98.48
11:46:19.968750,74.65
11:46:19.984375,44.96
11:46:20,13.16
11:46:20.015625,-17.03
11:46:20.031250,-43.19
11:46:20.046875,-64.95
11:46:20.062500,-83.85
11:46:20.078125,-102.46
11:46:20.093750,-123.25
11:46:20.109375,-147.68
11:46:20.125000,-175.85
11:46:20.140625,-206.55
11:46:20.156250,-237.54
11:46:20.171875,-265.83
11:46:20.187500,-287.89
11:46:20.203125,-300.16
11:46:20.218750,-299.77
11:46:20.234375,-285.36
11:46:20.250000,-257.47
11:46:20.265625,-218.45
11:46:20.281250,-171.41
11:46:20.296875,-119.04
11:46:20.312500,-62.73
11:46:20.328125,-2.76
11:46:20.343750,60.34
11:46:20.359375,124.28
11:46:20.375000,184.21
11:46:20.390625,233.55
11:46:20.406250,266.15
11:46:20.421875,278.96
11:46:20.437500,273.51
11:46:20.453125,255.50
11:46:20.468750,232.67
11:46:20.484375,211.80
11:46:20.500000,196.59
11:46:20.515625,187.15
11:46:20.531250,181.25
11:46:20.546875,176.29
11:46:20.562500,170.76
11:46:20.578125,164.56
11:46:20.593750,158.17
11:46:20.609375,151.46
11:46:20.625000,143.04
11:46:20.640625,130.67
11:46:20.656250,112.32
11:46:20.671875,87.32
11:46:20.687500,56.93
11:46:20.703125,24.03
11:46:20.718750,-8.10
11:46:20.734375,-37.12
11:46:20.750000,-62.49
11:46:20.765625,-85.51
11:46:20.781250,-108.43
11:46:20.796875,-133.24
11:46:20.812500,-160.69
11:46:20.828125,-190.08
11:46:20.843750,-219.77
11:46:20.859375,-247.81
11:46:20.875000,-272.33
11:46:20.890625,-291.44
11:46:20.906250,-303.00
11:46:20.921875,-304.66
11:46:20.937500,-294.41
11:46:20.953125,-271.34
11:46:20.968750,-236.19
11:46:20.984375,-191.04
11:46:21,-138.41
11:46:21.015625,-80.25
11:46:21.031250,-17.71
11:46:21.046875,47.93
11:46:21.062500,113.99
11:46:21.078125,175.56
11:46:21.093750,226.10
11:46:21.109375,259.46
11:46:21.125000,272.44
11:46:21.140625,266.24
11:46:21.156250,246.35
11:46:21.171875,220.48
11:46:21.187500,195.86
11:46:21.203125,177.08
11:46:21.218750,165.40
11:46:21.234375,159.52
11:46:21.250000,157.22
11:46:21.265625,156.68
11:46:21.281250,157.02
11:46:21.296875,157.92
11:46:21.312500,158.82
11:46:21.328125,158.45
11:46:21.343750,154.82
11:46:21.359375,145.92
11:46:21.375000,130.45
11:46:21.390625,108.43
11:46:21.406250,81.23
11:46:21.421875,50.98
11:46:21.437500,19.78
11:46:21.453125,-10.87
11:46:21.468750,-40.40
11:46:21.484375,-68.85
11:46:21.500000,-96.45
11:46:21.515625,-123.29
11:46:21.531250,-149.31
11:46:21.546875,-174.50
11:46:21.562500,-198.99
11:46:21.578125,-222.64
11:46:21.593750,-244.43
11:46:21.609375,-261.93
11:46:21.625000,-271.48
11:46:21.640625,-269.09
11:46:21.656250,-251.83
11:46:21.671875,-218.80
11:46:21.687500,-171.36
11:46:21.703125,-112.54
11:46:21.718750,-46.24
11:46:21.734375,23.34
11:46:21.750000,91.73
11:46:21.765625,154.04
11:46:21.781250,205.04
11:46:21.796875,240.02
11:46:21.812500,256.03
11:46:21.828125,253.05
11:46:21.843750,234.29
11:46:21.859375,205.48
11:46:21.875000,173.29
11:46:21.890625,143.67
11:46:21.906250,120.68
11:46:21.921875,106.05
11:46:21.937500,99.39
11:46:21.953125,98.90
11:46:21.968750,102.13
11:46:21.984375,106.64
11:46:22,110.46
11:46:22.015625,112.28
11:46:22.031250,111.38
11:46:22.046875,107.54
11:46:22.062500,100.79
11:46:22.078125,91.30
11:46:22.093750,79.14
11:46:22.109375,64.24
11:46:22.125000,46.39
11:46:22.140625,25.34
11:46:22.156250,1.06
11:46:22.171875,-26.10
11:46:22.187500,-55.25
11:46:22.203125,-85.13
11:46:22.218750,-114.28
11:46:22.234375,-141.45
11:46:22.250000,-165.86
11:46:22.265625,-187.50
11:46:22.281250,-206.98
11:46:22.296875,-225.13
11:46:22.312500,-242.20
11:46:22.328125,-257.11
11:46:22.343750,-267.10
11:46:22.359375,-268.20
11:46:22.375000,-256.42
11:46:22.390625,-229.00
11:46:22.406250,-185.37
11:46:22.421875,-127.26
11:46:22.437500,-58.21
11:46:22.453125,17.20
11:46:22.468750,93.92
11:46:22.484375,166.88
11:46:22.500000,231.19
11:46:22.515625,282.68
11:46:22.531250,318.38
11:46:22.546875,337.13
11:46:22.562500,339.81
11:46:22.578125,329.08
11:46:22.593750,308.82
11:46:22.609375,283.38
11:46:22.625000,257.00
11:46:22.640625,233.23
11:46:22.656250,214.54
11:46:22.671875,201.86
11:46:22.687500,194.54
11:46:22.703125,190.55
11:46:22.718750,187.22
11:46:22.734375,182.08
11:46:22.750000,173.44
11:46:22.765625,160.64
11:46:22.781250,143.68
11:46:22.796875,122.91
11:46:22.812500,98.54
11:46:22.828125,70.60
11:46:22.843750,39.14
11:46:22.859375,4.43
11:46:22.875000,-32.73
11:46:22.890625,-71.04
11:46:22.906250,-108.77
11:46:22.921875,-144.21
11:46:22.937500,-175.90
11:46:22.953125,-203.04
11:46:22.968750,-225.55
11:46:22.984375,-244.12
11:46:23,-260.06
11:46:23.015625,-275.11
11:46:23.031250,-290.96
11:46:23.046875,-308.57
11:46:23.062500,-327.34
11:46:23.078125,-344.60
11:46:23.093750,-355.75
11:46:23.109375,-355.35
11:46:23.125000,-338.65
11:46:23.140625,-303.23
11:46:23.156250,-249.94
11:46:23.171875,-182.90
11:46:23.187500,-108.48
11:46:23.203125,-33.72
11:46:23.218750,35.12
11:46:23.234375,93.62
11:46:23.250000,139.31
11:46:23.265625,171.35
11:46:23.281250,189.95
11:46:23.296875,195.96
11:46:23.312500,190.80
11:46:23.328125,176.68
11:46:23.343750,156.79
11:46:23.359375,135.12
11:46:23.375000,115.75
11:46:23.390625,101.85
11:46:23.406250,94.76
11:46:23.421875,93.70
11:46:23.437500,96.21
11:46:23.453125,99.35
11:46:23.468750,100.81
11:46:23.484375,99.57
11:46:23.500000,95.86
11:46:23.515625,90.54
11:46:23.531250,84.24
11:46:23.546875,76.93
11:46:23.562500,67.84
11:46:23.578125,55.99
11:46:23.593750,40.81
11:46:23.609375,22.61
11:46:23.625000,2.72
11:46:23.640625,-16.99
11:46:23.656250,-34.72
11:46:23.671875,-49.49
11:46:23.687500,-61.47
11:46:23.703125,-71.95
11:46:23.718750,-82.92
11:46:23.734375,-96.54
11:46:23.750000,-114.56
11:46:23.765625,-137.87
11:46:23.781250,-165.93
11:46:23.796875,-196.37
11:46:23.812500,-224.82
11:46:23.828125,-245.38
11:46:23.843750,-251.92
11:46:23.859375,-239.86
11:46:23.875000,-207.89
11:46:23.890625,-158.70
11:46:23.906250,-98.47
11:46:23.921875,-35.07
11:46:23.937500,24.16
11:46:23.953125,74.08
11:46:23.968750,112.39
11:46:23.984375,138.90
11:46:24,154.45
11:46:24.015625,159.79
11:46:24.031250,155.32
11:46:24.046875,141.55
11:46:24.062500,119.81
11:46:24.078125,92.75
11:46:24.093750,64.06
11:46:24.109375,37.55
11:46:24.125000,16.08
11:46:24.140625,0.76
11:46:24.156250,-9.06
11:46:24.171875,-15.14
11:46:24.187500,-19.43
11:46:24.203125,-23.25
11:46:24.218750,-27.03
11:46:24.234375,-30.62
11:46:24.250000,-33.90
11:46:24.265625,-37.27
11:46:24.281250,-41.85
11:46:24.296875,-49.15
11:46:24.312500,-60.46
11:46:24.328125,-76.24
11:46:24.343750,-95.78
11:46:24.359375,-117.31
11:46:24.375000,-138.57
11:46:24.390625,-157.59
11:46:24.406250,-173.38
11:46:24.421875,-186.23
11:46:24.437500,-197.56
11:46:24.453125,-209.33
11:46:24.468750,-223.33
11:46:24.484375,-240.71
11:46:24.500000,-261.64
11:46:24.515625,-285.32
11:46:24.531250,-309.82
11:46:24.546875,-332.17
11:46:24.562500,-348.58
11:46:24.578125,-355.02
11:46:24.593750,-348.32
11:46:24.609375,-327.11
11:46:24.625000,-292.31
11:46:24.640625,-246.87
11:46:24.656250,-194.52
11:46:24.671875,-138.41
11:46:24.687500,-80.07
11:46:24.703125,-19.48
11:46:24.718750,43.78
11:46:24.734375,108.85
11:46:24.750000,172.44
11:46:24.765625,228.98
11:46:24.781250,272.26
11:46:24.796875,297.70
11:46:24.812500,304.30
11:46:24.828125,295.16
11:46:24.843750,276.36
11:46:24.859375,254.84
11:46:24.875000,236.06
11:46:24.890625,222.77
11:46:24.906250,214.99
11:46:24.921875,211.08
11:46:24.937500,209.01
11:46:24.953125,207.23
11:46:24.968750,204.72
11:46:24.984375,200.76
11:46:25,194.48
11:46:25.015625,184.84
11:46:25.031250,170.91
11:46:25.046875,152.17
11:46:25.062500,128.74
11:46:25.078125,101.43
11:46:25.093750,71.55
11:46:25.109375,40.56
11:46:25.125000,9.94
11:46:25.140625,-19.22
11:46:25.156250,-46.30
11:46:25.171875,-71.28
11:46:25.187500,-94.76
11:46:25.203125,-117.76
11:46:25.218750,-141.49
11:46:25.234375,-167.11
11:46:25.250000,-195.58
11:46:25.265625,-227.34
11:46:25.281250,-261.90
11:46:25.296875,-297.35
11:46:25.312500,-330.03
11:46:25.328125,-354.96
11:46:25.343750,-366.98
11:46:25.359375,-362.28
11:46:25.375000,-339.84
11:46:25.390625,-301.77
11:46:25.406250,-252.48
11:46:25.421875,-196.99
11:46:25.437500,-139.10
11:46:25.453125,-80.37
11:46:25.468750,-20.27
11:46:25.484375,42.58
11:46:25.500000,108.54
11:46:25.515625,175.60
11:46:25.531250,239.19
11:46:25.546875,293.22
11:46:25.562500,332.30
11:46:25.578125,353.74
11:46:25.593750,358.64
11:46:25.609375,351.43
11:46:25.625000,338.09
11:46:25.640625,323.89
11:46:25.656250,311.83
11:46:25.671875,302.27
11:46:25.687500,293.89
11:46:25.703125,284.96
11:46:25.718750,274.31
11:46:25.734375,261.50
11:46:25.750000,246.34
11:46:25.765625,228.46
11:46:25.781250,207.21
11:46:25.796875,182.00
11:46:25.812500,152.70
11:46:25.828125,119.93
11:46:25.843750,84.83
11:46:25.859375,48.85
11:46:25.875000,13.28
11:46:25.890625,-20.92
11:46:25.906250,-53.23
11:46:25.921875,-83.58
11:46:25.937500,-112.26
11:46:25.953125,-139.85
11:46:25.968750,-166.98
11:46:25.984375,-194.19
11:46:26,-221.82
11:46:26.015625,-250.08
11:46:26.031250,-279.28
11:46:26.046875,-309.73
11:46:26.062500,-341.38
11:46:26.078125,-372.99
11:46:26.093750,-401.57
11:46:26.109375,-422.54
11:46:26.125000,-430.89
11:46:26.140625,-422.93
11:46:26.156250,-397.86
11:46:26.171875,-358.13
11:46:26.187500,-308.44
11:46:26.203125,-253.60
11:46:26.218750,-196.77
11:46:26.234375,-138.91
11:46:26.250000,-79.97
11:46:26.265625,-20.90
11:46:26.281250,34.82
11:46:26.296875,81.13
11:46:26.312500,111.37
11:46:26.328125,120.98
11:46:26.343750,109.69
11:46:26.359375,81.88
11:46:26.375000,45.04
11:46:26.390625,7.16
11:46:26.406250,-25.68
11:46:26.421875,-50.39
11:46:26.437500,-66.49
11:46:26.453125,-74.81
11:46:26.468750,-76.45
11:46:26.484375,-72.29
11:46:26.500000,-63.31
11:46:26.515625,-50.89
11:46:26.531250,-36.79
11:46:26.546875,-22.45
11:46:26.562500,-8.36
11:46:26.578125,6.29
11:46:26.593750,23.02
11:46:26.609375,43.08
11:46:26.625000,66.39
11:46:26.640625,91.21
11:46:26.656250,114.66
11:46:26.671875,133.67
11:46:26.687500,146.02
11:46:26.703125,150.80
11:46:26.718750,148.31
11:46:26.734375,139.52
11:46:26.750000,125.52
11:46:26.765625,106.99
11:46:26.781250,84.09
11:46:26.796875,56.70
11:46:26.812500,25.12
11:46:26.828125,-9.19
11:46:26.843750,-42.98
11:46:26.859375,-71.34
11:46:26.875000,-88.75
11:46:26.890625,-90.67
11:46:26.906250,-74.86
11:46:26.921875,-41.96
11:46:26.937500,5.18
11:46:26.953125,62.52
11:46:26.968750,125.74
11:46:26.984375,190.48
11:46:27,252.02
11:46:27.015625,305.06
11:46:27.031250,344.22
11:46:27.046875,365.24
11:46:27.062500,366.39
11:46:27.078125,349.17
11:46:27.093750,318.05
11:46:27.109375,279.11
11:46:27.125000,238.47
11:46:27.140625,201.05
11:46:27.156250,169.94
11:46:27.171875,146.46
11:46:27.187500,130.41
11:46:27.203125,120.59
11:46:27.218750,115.14
11:46:27.234375,112.02
11:46:27.250000,109.35
11:46:27.265625,105.66
11:46:27.281250,100.03
11:46:27.296875,91.83
11:46:27.312500,80.59
11:46:27.328125,65.86
11:46:27.343750,47.24
11:46:27.359375,24.66
11:46:27.375000,-1.31
11:46:27.390625,-29.41
11:46:27.406250,-57.87
11:46:27.421875,-84.96
11:46:27.437500,-109.65
11:46:27.453125,-131.95
11:46:27.468750,-152.84
11:46:27.484375,-173.73
11:46:27.500000,-195.81
11:46:27.515625,-219.69
11:46:27.531250,-245.37
11:46:27.546875,-272.40
11:46:27.562500,-299.75
11:46:27.578125,-325.55
11:46:27.593750,-346.69
11:46:27.609375,-359.06
11:46:27.625000,-358.54
11:46:27.640625,-342.32
11:46:27.656250,-310.18
11:46:27.671875,-264.58
11:46:27.687500,-209.57
11:46:27.703125,-149.00
11:46:27.718750,-85.19
11:46:27.734375,-18.88
11:46:27.750000,49.34
11:46:27.765625,117.21
11:46:27.781250,179.88
11:46:27.796875,230.77
11:46:27.812500,263.81
11:46:27.828125,276.04
11:46:27.843750,268.97
11:46:27.859375,248.17
11:46:27.875000,221.13
11:46:27.890625,194.71
11:46:27.906250,173.34
11:46:27.921875,158.47
11:46:27.937500,149.44
11:46:27.953125,144.71
11:46:27.968750,142.89
11:46:27.984375,143.04
11:46:28,144.42
11:46:28.015625,146.06
11:46:28.031250,146.53
11:46:28.046875,144.11
11:46:28.062500,137.13
11:46:28.078125,124.44
11:46:28.093750,105.84
11:46:28.109375,82.16
11:46:28.125000,55.10
11:46:28.140625,26.77
11:46:28.156250,-0.92
11:46:28.171875,-26.83
11:46:28.187500,-50.82
11:46:28.203125,-73.72
11:46:28.218750,-96.81
11:46:28.234375,-121.31
11:46:28.250000,-147.95
11:46:28.265625,-176.97
11:46:28.281250,-208.22
11:46:28.296875,-241.13
11:46:28.312500,-274.43
11:46:28.328125,-305.66
11:46:28.343750,-330.89
11:46:28.359375,-345.37
11:46:28.375000,-344.82
11:46:28.390625,-326.99
11:46:28.406250,-292.56
11:46:28.421875,-244.86
11:46:28.437500,-188.32
11:46:28.453125,-126.61
11:46:28.468750,-61.50
11:46:28.484375,6.59
11:46:28.500000,76.87
11:46:28.515625,146.27
11:46:28.531250,208.93
11:46:28.546875,257.57
11:46:28.562500,286.09
11:46:28.578125,292.35
11:46:28.593750,279.07
11:46:28.609375,252.92
11:46:28.625000,221.95
11:46:28.640625,192.85
11:46:28.656250,169.32
11:46:28.671875,152.02
11:46:28.687500,139.86
11:46:28.703125,131.46
11:46:28.718750,126.08
11:46:28.734375,123.47
11:46:28.750000,123.27
11:46:28.765625,124.27
11:46:28.781250,124.34
11:46:28.796875,120.93
11:46:28.812500,111.90
11:46:28.828125,96.25
11:46:28.843750,74.61
11:46:28.859375,48.89
11:46:28.875000,21.69
11:46:28.890625,-4.58
11:46:28.906250,-28.50
11:46:28.921875,-49.99
11:46:28.937500,-70.12
11:46:28.953125,-90.52
11:46:28.968750,-112.56
11:46:28.984375,-136.91
11:46:29,-163.45
11:46:29.015625,-191.70
11:46:29.031250,-221.06
11:46:29.046875,-250.71
11:46:29.062500,-279.06
11:46:29.078125,-303.19
11:46:29.093750,-318.98
11:46:29.109375,-322.00
11:46:29.125000,-309.05
11:46:29.140625,-279.46
11:46:29.156250,-235.31
11:46:29.171875,-180.29
11:46:29.187500,-118.08
11:46:29.203125,-51.29
11:46:29.218750,18.43
11:46:29.234375,88.94
11:46:29.250000,156.29
11:46:29.265625,214.50
11:46:29.281250,256.96
11:46:29.296875,278.89
11:46:29.312500,279.43
11:46:29.328125,262.25
11:46:29.343750,234.19
11:46:29.359375,202.82
11:46:29.375000,174.11
11:46:29.390625,151.15
11:46:29.406250,134.43
11:46:29.421875,122.92
11:46:29.437500,115.40
11:46:29.453125,111.04
11:46:29.468750,109.40
11:46:29.484375,109.86
11:46:29.500000,111.24
11:46:29.515625,111.68
11:46:29.531250,109.03
11:46:29.546875,101.47
11:46:29.562500,88.10
11:46:29.578125,69.29
11:46:29.593750,46.51
11:46:29.609375,21.85
11:46:29.625000,-2.69
11:46:29.640625,-25.88
11:46:29.656250,-47.58
11:46:29.671875,-68.55
11:46:29.687500,-89.99
11:46:29.703125,-112.92
11:46:29.718750,-137.80
11:46:29.734375,-164.55
11:46:29.750000,-192.82
11:46:29.765625,-222.17
11:46:29.781250,-251.73
11:46:29.796875,-279.63
11:46:29.812500,-302.66
11:46:29.828125,-316.48
11:46:29.843750,-316.81
11:46:29.859375,-300.91
11:46:29.875000,-268.62
11:46:29.890625,-222.26
11:46:29.906250,-165.40
11:46:29.921875,-101.42
11:46:29.937500,-32.81
11:46:29.953125,38.16
11:46:29.968750,108.21
11:46:29.984375,172.13
11:46:30,223.38
11:46:30.015625,255.99
11:46:30.031250,267.05
11:46:30.046875,258.13
11:46:30.062500,234.86
11:46:30.078125,204.92
11:46:30.093750,175.44
11:46:30.109375,151.06
11:46:30.125000,133.48
11:46:30.140625,122.12
11:46:30.156250,115.44
11:46:30.171875,111.98
11:46:30.187500,110.73
11:46:30.203125,110.89
11:46:30.218750,111.52
11:46:30.234375,111.29
11:46:30.250000,108.63
11:46:30.265625,101.99
11:46:30.281250,90.35
11:46:30.296875,73.66
11:46:30.312500,52.86
11:46:30.328125,29.68
11:46:30.343750,6.03
11:46:30.359375,-16.67
11:46:30.375000,-38.03
11:46:30.390625,-58.67
11:46:30.406250,-79.91
11:46:30.421875,-103.03
11:46:30.437500,-128.69
11:46:30.453125,-156.72
11:46:30.468750,-186.45
11:46:30.484375,-216.98
11:46:30.500000,-247.39
11:46:30.515625,-276.31
11:46:30.531250,-301.38
11:46:30.546875,-319.16
11:46:30.562500,-325.66
11:46:30.578125,-317.49
11:46:30.593750,-293.31
11:46:30.609375,-254.22
11:46:30.625000,-203.23
11:46:30.640625,-143.81
11:46:30.656250,-78.74
11:46:30.671875,-10.08
11:46:30.687500,59.92
11:46:30.703125,127.33
11:46:30.718750,186.31
11:46:30.734375,230.14
11:46:30.750000,253.70
11:46:30.765625,255.64
11:46:30.781250,239.24
11:46:30.796875,211.20
11:46:30.812500,179.18
11:46:30.828125,149.24
11:46:30.843750,124.54
11:46:30.859375,105.59
11:46:30.875000,91.53
11:46:30.890625,81.55
11:46:30.906250,75.53
11:46:30.921875,73.66
11:46:30.937500,75.67
11:46:30.953125,80.06
11:46:30.968750,84.13
11:46:30.984375,84.57
11:46:31,78.66
11:46:31.015625,65.22
11:46:31.031250,45.08
11:46:31.046875,20.78
11:46:31.062500,-4.55
11:46:31.078125,-28.35
11:46:31.093750,-49.60
11:46:31.109375,-68.97
11:46:31.125000,-88.31
11:46:31.140625,-109.56
11:46:31.156250,-133.98
11:46:31.171875,-161.73
11:46:31.187500,-192.02
11:46:31.203125,-223.32
11:46:31.218750,-253.51
11:46:31.234375,-279.68
11:46:31.250000,-298.28
11:46:31.265625,-305.65
11:46:31.281250,-298.91
11:46:31.296875,-277.09
11:46:31.312500,-241.44
11:46:31.328125,-194.90
11:46:31.343750,-140.73
11:46:31.359375,-81.31
11:46:31.375000,-17.91
11:46:31.390625,48.29
11:46:31.406250,114.64
11:46:31.421875,176.10
11:46:31.437500,225.83
11:46:31.453125,257.39
11:46:31.468750,267.29
11:46:31.484375,256.66
11:46:31.500000,231.01
11:46:31.515625,198.17
11:46:31.531250,165.53
11:46:31.546875,137.99
11:46:31.562500,117.36
11:46:31.578125,103.21
11:46:31.593750,94.44
11:46:31.609375,90.28
11:46:31.625000,90.56
11:46:31.640625,94.90
11:46:31.656250,101.93
11:46:31.671875,108.90
11:46:31.687500,112.19
11:46:31.703125,108.42
11:46:31.718750,95.70
11:46:31.734375,74.42
11:46:31.750000,47.11
11:46:31.765625,17.41
11:46:31.781250,-11.30
11:46:31.796875,-37.17
11:46:31.812500,-60.43
11:46:31.828125,-82.97
11:46:31.843750,-107.34
11:46:31.859375,-135.57
11:46:31.875000,-168.42
11:46:31.890625,-205.22
11:46:31.906250,-244.02
11:46:31.921875,-281.95
11:46:31.937500,-315.43
11:46:31.953125,-340.55
11:46:31.968750,-353.63
11:46:31.984375,-352.14
11:46:32,-335.49
11:46:32.015625,-305.24
11:46:32.031250,-264.66
11:46:32.046875,-217.47
11:46:32.062500,-166.52
11:46:32.078125,-112.94
11:46:32.093750,-56.57
11:46:32.109375,2.70
11:46:32.125000,63.25
11:46:32.140625,120.95
11:46:32.156250,169.71
11:46:32.171875,203.51
11:46:32.187500,218.83
11:46:32.203125,216.22
11:46:32.218750,200.22
11:46:32.234375,177.66
11:46:32.250000,155.24
11:46:32.265625,137.44
11:46:32.281250,125.90
11:46:32.296875,120.19
11:46:32.312500,119.12
11:46:32.328125,121.78
11:46:32.343750,127.51
11:46:32.359375,135.23
11:46:32.375000,142.67
11:46:32.390625,146.48
11:46:32.406250,143.23
11:46:32.421875,130.88
11:46:32.437500,109.82
11:46:32.453125,82.78
11:46:32.468750,53.77
11:46:32.484375,26.35
11:46:32.500000,2.08
11:46:32.515625,-19.89
11:46:32.531250,-42.31
11:46:32.546875,-68.46
11:46:32.562500,-100.68
11:46:32.578125,-139.24
11:46:32.593750,-181.99
11:46:32.609375,-224.60
11:46:32.625000,-261.56
11:46:32.640625,-287.43
11:46:32.656250,-298.20
11:46:32.671875,-292.38
11:46:32.687500,-271.27
11:46:32.703125,-238.30
11:46:32.718750,-197.74
11:46:32.734375,-153.15
11:46:32.750000,-106.27
11:46:32.765625,-56.86
11:46:32.781250,-3.67
11:46:32.796875,53.84
11:46:32.812500,113.88
11:46:32.828125,171.64
11:46:32.843750,220.22
11:46:32.859375,252.87
11:46:32.875000,265.59
11:46:32.890625,258.90
11:46:32.906250,237.82
11:46:32.921875,210.00
11:46:32.937500,182.97
11:46:32.953125,161.71
11:46:32.968750,147.80
11:46:32.984375,140.22
11:46:33,137.01
11:46:33.015625,136.65
11:46:33.031250,138.34
11:46:33.046875,141.19
11:46:33.062500,143.34
11:46:33.078125,141.74
11:46:33.093750,133.03
11:46:33.109375,115.00
11:46:33.125000,87.88
11:46:33.140625,54.39
11:46:33.156250,18.93
11:46:33.171875,-14.25
11:46:33.187500,-42.65
11:46:33.203125,-66.31
11:46:33.218750,-87.59
11:46:33.234375,-109.99
11:46:33.250000,-136.74
11:46:33.265625,-169.47
11:46:33.281250,-207.42
11:46:33.296875,-247.30
11:46:33.312500,-283.86
11:46:33.328125,-311.10
11:46:33.343750,-324.03
11:46:33.359375,-320.06
11:46:33.375000,-299.84
11:46:33.390625,-266.85
11:46:33.406250,-225.90
11:46:33.421875,-181.30
11:46:33.437500,-135.53
11:46:33.453125,-88.75
11:46:33.468750,-39.62
11:46:33.484375,13.42
11:46:33.500000,70.63
11:46:33.515625,129.99
11:46:33.531250,187.11
11:46:33.546875,236.15
11:46:33.562500,271.52
11:46:33.578125,289.90
11:46:33.593750,291.49
11:46:33.609375,280.14
11:46:33.625000,261.99
11:46:33.640625,243.25
11:46:33.656250,228.11
11:46:33.671875,217.92
11:46:33.687500,211.74
11:46:33.703125,207.78
11:46:33.718750,204.71
11:46:33.734375,201.91
11:46:33.750000,198.79
11:46:33.765625,193.89
11:46:33.781250,184.63
11:46:33.796875,168.15
11:46:33.812500,142.83
11:46:33.828125,109.43
11:46:33.843750,71.21
11:46:33.859375,32.80
11:46:33.875000,-1.66
11:46:33.890625,-30.16
11:46:33.906250,-53.57
11:46:33.921875,-74.97
11:46:33.937500,-98.13
11:46:33.953125,-125.94
11:46:33.968750,-159.31
11:46:33.984375,-196.84
11:46:34,-235.22
11:46:34.015625,-269.93
11:46:34.031250,-296.27
11:46:34.046875,-310.17
11:46:34.062500,-309.18
11:46:34.078125,-292.97
11:46:34.093750,-263.33
11:46:34.109375,-223.51
11:46:34.125000,-176.99
11:46:34.140625,-126.15
11:46:34.156250,-71.59
11:46:34.171875,-12.59
11:46:34.187500,51.31
11:46:34.203125,118.39
11:46:34.218750,183.57
11:46:34.234375,239.22
11:46:34.250000,277.39
11:46:34.265625,293.08
11:46:34.281250,286.40
11:46:34.296875,262.85
11:46:34.312500,231.31
11:46:34.328125,200.73
11:46:34.343750,177.20
11:46:34.359375,162.65
11:46:34.375000,155.57
11:46:34.390625,152.99
11:46:34.406250,152.40
11:46:34.421875,152.60
11:46:34.437500,153.24
11:46:34.453125,153.80
11:46:34.468750,152.70
11:46:34.484375,147.42
11:46:34.500000,135.41
11:46:34.515625,115.34
11:46:34.531250,87.86
11:46:34.546875,55.69
11:46:34.562500,22.68
11:46:34.578125,-7.65
11:46:34.593750,-33.37
11:46:34.609375,-54.62
11:46:34.625000,-73.32
11:46:34.640625,-91.95
11:46:34.656250,-112.39
11:46:34.671875,-135.23
11:46:34.687500,-159.87
11:46:34.703125,-185.21
11:46:34.718750,-210.26
11:46:34.734375,-234.16
11:46:34.750000,-255.62
11:46:34.765625,-272.35
11:46:34.781250,-280.97
11:46:34.796875,-277.79
11:46:34.812500,-260.16
11:46:34.828125,-227.51
11:46:34.843750,-181.41
11:46:34.859375,-124.63
11:46:34.875000,-59.89
11:46:34.890625,10.54
11:46:34.906250,84.20
11:46:34.921875,157.09
11:46:34.937500,223.05
11:46:34.953125,274.54
11:46:34.968750,304.98
11:46:34.984375,311.42
11:46:35,296.16
11:46:35.015625,266.11
11:46:35.031250,230.44
11:46:35.046875,197.48
11:46:35.062500,172.42
11:46:35.078125,156.75
11:46:35.093750,149.08
11:46:35.109375,146.83
11:46:35.125000,147.43
11:46:35.140625,149.00
11:46:35.156250,150.12
11:46:35.171875,149.56
11:46:35.187500,146.08
11:46:35.203125,138.55
11:46:35.218750,126.28
11:46:35.234375,109.19
11:46:35.250000,88.00
11:46:35.265625,63.95
11:46:35.281250,38.55
11:46:35.296875,13.12
11:46:35.312500,-11.42
11:46:35.328125,-34.76
11:46:35.343750,-57.09
11:46:35.359375,-78.86
11:46:35.375000,-100.48
11:46:35.390625,-122.04
11:46:35.406250,-143.31
11:46:35.421875,-163.99
11:46:35.437500,-184.14
11:46:35.453125,-204.46
11:46:35.468750,-226.12
11:46:35.484375,-249.78
11:46:35.500000,-274.60
11:46:35.515625,-297.44
11:46:35.531250,-313.10
11:46:35.546875,-315.83
11:46:35.562500,-301.26
11:46:35.578125,-267.88
11:46:35.593750,-217.28
11:46:35.609375,-153.33
11:46:35.625000,-80.83
11:46:35.640625,-4.68
11:46:35.656250,70.25
11:46:35.671875,138.75
11:46:35.687500,195.15
11:46:35.703125,234.31
11:46:35.718750,253.02
11:46:35.734375,251.46
11:46:35.750000,233.51
11:46:35.765625,205.75
11:46:35.781250,175.44
11:46:35.796875,148.59
11:46:35.812500,128.87
11:46:35.828125,117.50
11:46:35.843750,113.94
11:46:35.859375,116.60
11:46:35.875000,123.45
11:46:35.890625,132.14
11:46:35.906250,140.22
11:46:35.921875,145.32
11:46:35.937500,145.60
11:46:35.953125,140.05
11:46:35.968750,128.67
11:46:35.984375,112.38
11:46:36,92.59
11:46:36.015625,70.66
11:46:36.031250,47.56
11:46:36.046875,23.80
11:46:36.062500,-0.46
11:46:36.078125,-25.07
11:46:36.093750,-49.70
11:46:36.109375,-73.72
11:46:36.125000,-96.39
11:46:36.140625,-116.99
11:46:36.156250,-135.05
11:46:36.171875,-150.54
11:46:36.187500,-164.02
11:46:36.203125,-176.68
11:46:36.218750,-190.31
11:46:36.234375,-206.78
11:46:36.250000,-227.22
11:46:36.265625,-250.82
11:46:36.281250,-274.35
11:46:36.296875,-292.33
11:46:36.312500,-298.45
11:46:36.328125,-287.43
11:46:36.343750,-256.71
11:46:36.359375,-207.22
11:46:36.375000,-143.02
11:46:36.390625,-70.16
11:46:36.406250,4.73
11:46:36.421875,75.36
11:46:36.437500,136.39
11:46:36.453125,183.68
11:46:36.468750,214.59
11:46:36.484375,228.29
11:46:36.500000,226.01
11:46:36.515625,210.99
11:46:36.531250,187.94
11:46:36.546875,162.07
11:46:36.562500,138.16
11:46:36.578125,119.70
11:46:36.593750,108.50
11:46:36.609375,104.64
11:46:36.625000,106.66
11:46:36.640625,112.17
11:46:36.656250,118.45
11:46:36.671875,123.06
11:46:36.687500,124.31
11:46:36.703125,121.42
11:46:36.718750,114.38
11:46:36.734375,103.74
11:46:36.750000,90.22
11:46:36.765625,74.37
11:46:36.781250,56.46
11:46:36.796875,36.45
11:46:36.812500,14.30
11:46:36.828125,-9.80
11:46:36.843750,-35.15
11:46:36.859375,-60.56
11:46:36.875000,-84.59
11:46:36.890625,-105.94
11:46:36.906250,-123.88
11:46:36.921875,-138.47
11:46:36.937500,-150.52
11:46:36.953125,-161.45
11:46:36.968750,-173.04
11:46:36.984375,-187.07
11:46:37,-204.97
11:46:37.015625,-227.09
11:46:37.031250,-251.99
11:46:37.046875,-276.01
11:46:37.062500,-293.61
11:46:37.078125,-298.54
11:46:37.093750,-285.66
11:46:37.109375,-252.69
11:46:37.125000,-201.06
11:46:37.140625,-135.66
11:46:37.156250,-63.42
11:46:37.171875,8.34
11:46:37.187500,73.32
11:46:37.203125,126.95
11:46:37.218750,166.34
11:46:37.234375,190.07
11:46:37.250000,198.05
11:46:37.265625,191.59
11:46:37.281250,173.53
11:46:37.296875,148.09
11:46:37.312500,120.29
11:46:37.328125,95.03
11:46:37.343750,76.08
11:46:37.359375,65.43
11:46:37.375000,62.94
11:46:37.390625,66.79
11:46:37.406250,74.13
11:46:37.421875,81.93
11:46:37.437500,87.74
11:46:37.453125,89.94
11:46:37.468750,87.86
11:46:37.484375,81.50
11:46:37.500000,71.28
11:46:37.515625,57.71
11:46:37.531250,41.27
11:46:37.546875,22.42
11:46:37.562500,1.70
11:46:37.578125,-20.17
11:46:37.593750,-42.26
11:46:37.609375,-63.61
11:46:37.625000,-83.46
11:46:37.640625,-101.52
11:46:37.656250,-118.01
11:46:37.671875,-133.54
11:46:37.687500,-148.89
11:46:37.703125,-164.66
11:46:37.718750,-181.30
11:46:37.734375,-199.21
11:46:37.750000,-218.76
11:46:37.765625,-239.99
11:46:37.781250,-262.01
11:46:37.796875,-282.33
11:46:37.812500,-296.87
11:46:37.828125,-300.78
11:46:37.843750,-289.88
11:46:37.859375,-262.09
11:46:37.875000,-218.08
11:46:37.890625,-160.98
11:46:37.906250,-95.38
11:46:37.921875,-26.38
11:46:37.937500,41.07
11:46:37.953125,102.18
11:46:37.968750,152.42
11:46:37.984375,187.90
11:46:38,206.18
11:46:38.015625,207.17
11:46:38.031250,193.55
11:46:38.046875,170.26
11:46:38.062500,143.24
11:46:38.078125,118.04
11:46:38.093750,98.57
11:46:38.109375,86.60
11:46:38.125000,81.91
11:46:38.140625,82.81
11:46:38.156250,86.88
11:46:38.171875,91.69
11:46:38.187500,95.28
11:46:38.203125,96.47
11:46:38.218750,94.80
11:46:38.234375,90.26
11:46:38.250000,82.97
11:46:38.265625,72.85
11:46:38.281250,59.56
11:46:38.296875,42.75
11:46:38.312500,22.38
11:46:38.328125,-0.95
11:46:38.343750,-25.92
11:46:38.359375,-50.81
11:46:38.375000,-74.12
11:46:38.390625,-95.07
11:46:38.406250,-114.00
11:46:38.421875,-132.15
11:46:38.437500,-151.02
11:46:38.453125,-171.79
11:46:38.468750,-194.90
11:46:38.484375,-220.06
11:46:38.500000,-246.38
11:46:38.515625,-272.44
11:46:38.531250,-296.13
11:46:38.546875,-314.56
11:46:38.562500,-324.36
11:46:38.578125,-322.40
11:46:38.593750,-306.85
11:46:38.609375,-277.90
11:46:38.625000,-237.76
11:46:38.640625,-189.60
11:46:38.656250,-136.23
11:46:38.671875,-79.18
11:46:38.687500,-19.14
11:46:38.703125,42.70
11:46:38.718750,103.14
11:46:38.734375,156.58
11:46:38.750000,196.35
11:46:38.765625,217.29
11:46:38.781250,218.17
11:46:38.796875,202.59
11:46:38.812500,177.82
11:46:38.828125,152.06
11:46:38.843750,131.58
11:46:38.859375,119.08
11:46:38.875000,113.85
11:46:38.890625,113.36
11:46:38.906250,115.13
11:46:38.921875,117.78
11:46:38.937500,120.97
11:46:38.953125,124.45
11:46:38.968750,127.20
11:46:38.984375,127.09
11:46:39,121.49
11:46:39.015625,108.34
11:46:39.031250,87.08
11:46:39.046875,59.21
11:46:39.062500,27.82
11:46:39.078125,-3.50
11:46:39.093750,-31.85
11:46:39.109375,-55.96
11:46:39.125000,-76.42
11:46:39.140625,-95.15
11:46:39.156250,-114.51
11:46:39.171875,-136.41
11:46:39.187500,-161.69
11:46:39.203125,-190.03
11:46:39.218750,-219.94
11:46:39.234375,-248.88
11:46:39.250000,-273.49
11:46:39.265625,-290.12
11:46:39.281250,-295.59
11:46:39.296875,-288.10
11:46:39.312500,-267.90
11:46:39.328125,-237.11
11:46:39.343750,-198.93
11:46:39.359375,-156.54
11:46:39.375000,-111.97
11:46:39.390625,-65.70
11:46:39.406250,-17.04
11:46:39.421875,34.68
11:46:39.437500,88.80
11:46:39.453125,142.44
11:46:39.468750,190.70
11:46:39.484375,227.98
11:46:39.500000,250.16
11:46:39.515625,256.32
11:46:39.531250,249.54
11:46:39.546875,235.75
11:46:39.562500,221.54
11:46:39.578125,211.60
11:46:39.593750,207.34
11:46:39.609375,207.15
11:46:39.625000,208.07
11:46:39.640625,207.68
11:46:39.656250,205.18
11:46:39.671875,201.05
11:46:39.687500,195.90
11:46:39.703125,189.30
11:46:39.718750,179.47
11:46:39.734375,164.02
11:46:39.750000,141.27
11:46:39.765625,111.26
11:46:39.781250,76.06
11:46:39.796875,39.15
11:46:39.812500,4.09
11:46:39.828125,-26.70
11:46:39.843750,-52.69
11:46:39.859375,-75.24
11:46:39.875000,-96.81
11:46:39.890625,-120.08
11:46:39.906250,-147.13
11:46:39.921875,-178.86
11:46:39.937500,-214.79
11:46:39.953125,-252.75
11:46:39.968750,-288.98
11:46:39.984375,-318.56
11:46:40,-336.48
11:46:40.015625,-339.13
11:46:40.031250,-325.46
11:46:40.046875,-297.44
11:46:40.062500,-259.22
11:46:40.078125,-215.54
11:46:40.093750,-170.00
11:46:40.109375,-124.23
11:46:40.125000,-77.93
11:46:40.140625,-29.83
11:46:40.156250,21.15
11:46:40.171875,74.87
11:46:40.187500,129.37
11:46:40.203125,180.98
11:46:40.218750,225.05
11:46:40.234375,257.32
11:46:40.250000,275.44
11:46:40.265625,280.08
11:46:40.281250,274.89
11:46:40.296875,265.18
11:46:40.312500,255.83
11:46:40.328125,249.57
11:46:40.343750,246.39
11:46:40.359375,244.37
11:46:40.375000,241.25
11:46:40.390625,235.67
11:46:40.406250,227.47
11:46:40.421875,217.01
11:46:40.437500,204.10
11:46:40.453125,187.61
11:46:40.468750,165.87
11:46:40.484375,137.70
11:46:40.500000,103.40
11:46:40.515625,65.08
11:46:40.531250,26.21
11:46:40.546875,-9.58
11:46:40.562500,-39.79
11:46:40.578125,-63.87
11:46:40.593750,-83.29
11:46:40.609375,-100.88
11:46:40.625000,-119.74
11:46:40.640625,-142.32
11:46:40.656250,-169.70
11:46:40.671875,-201.37
11:46:40.687500,-235.17
11:46:40.703125,-267.54
11:46:40.718750,-293.99
11:46:40.734375,-310.04
11:46:40.750000,-312.33
11:46:40.765625,-299.57
11:46:40.781250,-273.02
11:46:40.796875,-235.85
11:46:40.812500,-191.94
11:46:40.828125,-144.51
11:46:40.843750,-95.17
11:46:40.859375,-43.78
11:46:40.875000,10.83
11:46:40.890625,69.47
11:46:40.906250,131.19
11:46:40.921875,192.52
11:46:40.937500,247.81
11:46:40.953125,290.70
11:46:40.968750,316.45
11:46:40.984375,323.84
11:46:41,315.94
11:46:41.015625,299.08
11:46:41.031250,280.52
11:46:41.046875,265.73
11:46:41.062500,256.77
11:46:41.078125,252.44
11:46:41.093750,249.79
11:46:41.109375,246.01
11:46:41.125000,239.69
11:46:41.140625,230.76
11:46:41.156250,219.61
11:46:41.171875,206.16
11:46:41.187500,189.47
11:46:41.203125,168.23
11:46:41.218750,141.56
11:46:41.234375,109.71
11:46:41.250000,74.24
11:46:41.265625,37.71
11:46:41.281250,2.85
11:46:41.296875,-28.25
11:46:41.312500,-54.71
11:46:41.328125,-76.98
11:46:41.343750,-96.53
11:46:41.359375,-115.18
11:46:41.375000,-134.52
11:46:41.390625,-155.50
11:46:41.406250,-178.46
11:46:41.421875,-203.42
11:46:41.437500,-230.20
11:46:41.453125,-258.15
11:46:41.468750,-285.63
11:46:41.484375,-309.60
11:46:41.500000,-325.77
11:46:41.515625,-329.71
11:46:41.531250,-318.22
11:46:41.546875,-290.58
11:46:41.562500,-248.79
11:46:41.578125,-196.52
11:46:41.593750,-137.47
11:46:41.609375,-74.12
11:46:41.625000,-7.58
11:46:41.640625,61.09
11:46:41.656250,129.20
11:46:41.671875,191.54
11:46:41.687500,241.28
11:46:41.703125,272.31
11:46:41.718750,281.98
11:46:41.734375,272.60
11:46:41.750000,250.88
11:46:41.765625,225.51
11:46:41.781250,204.07
11:46:41.796875,190.84
11:46:41.812500,186.20
11:46:41.828125,187.85
11:46:41.843750,192.57
11:46:41.859375,197.69
11:46:41.875000,201.58
11:46:41.890625,203.22
11:46:41.906250,201.61
11:46:41.921875,195.52
11:46:41.937500,183.88
11:46:41.953125,166.24
11:46:41.968750,143.23
11:46:41.984375,116.50
11:46:42,88.12
11:46:42.015625,59.93
11:46:42.031250,33.02
11:46:42.046875,7.66
11:46:42.062500,-16.46
11:46:42.078125,-39.76
11:46:42.093750,-62.47
11:46:42.109375,-84.50
11:46:42.125000,-105.53
11:46:42.140625,-125.27
11:46:42.156250,-143.65
11:46:42.171875,-161.06
11:46:42.187500,-178.47
11:46:42.203125,-197.42
11:46:42.218750,-219.46
11:46:42.234375,-245.22
11:46:42.250000,-273.36
11:46:42.265625,-300.01
11:46:42.281250,-319.33
11:46:42.296875,-325.13
11:46:42.312500,-312.95
11:46:42.328125,-281.53
11:46:42.343750,-232.89
11:46:42.359375,-171.16
11:46:42.375000,-101.00
11:46:42.390625,-26.68
11:46:42.406250,47.77
11:46:42.421875,117.74
11:46:42.437500,177.63
11:46:42.453125,221.52
11:46:42.468750,245.02
11:46:42.484375,247.20
11:46:42.500000,231.38
11:46:42.515625,204.31
11:46:42.531250,174.04
11:46:42.546875,147.48
11:46:42.562500,128.80
11:46:42.578125,119.18
11:46:42.593750,117.56
11:46:42.609375,121.73
11:46:42.625000,129.28
11:46:42.640625,137.91
11:46:42.656250,145.50
11:46:42.671875,150.08
11:46:42.687500,150.03
11:46:42.703125,144.31
11:46:42.718750,132.72
11:46:42.734375,116.08
11:46:42.750000,95.97
11:46:42.765625,74.27
11:46:42.781250,52.58
11:46:42.796875,31.77
11:46:42.812500,11.89
11:46:42.828125,-7.61
11:46:42.843750,-27.31
11:46:42.859375,-47.37
11:46:42.875000,-67.37
11:46:42.890625,-86.45
11:46:42.906250,-103.75
11:46:42.921875,-118.85
11:46:42.937500,-132.00
11:46:42.953125,-144.08
11:46:42.968750,-156.52
11:46:42.984375,-170.98
11:46:43,-188.95
11:46:43.015625,-211.12
11:46:43.031250,-236.57
11:46:43.046875,-262.15
11:46:43.062500,-282.69
11:46:43.078125,-292.06
11:46:43.093750,-284.88
11:46:43.109375,-258.20
11:46:43.125000,-212.39
11:46:43.140625,-150.99
11:46:43.156250,-79.61
11:46:43.171875,-4.80
11:46:43.187500,67.02
11:46:43.203125,130.02
11:46:43.218750,179.26
11:46:43.234375,211.18
11:46:43.250000,224.24
11:46:43.265625,219.45
11:46:43.281250,200.44
11:46:43.296875,172.80
11:46:43.312500,142.71
11:46:43.328125,115.66
11:46:43.343750,95.35
11:46:43.359375,83.45
11:46:43.375000,79.67
11:46:43.390625,82.41
11:46:43.406250,89.32
11:46:43.421875,97.85
11:46:43.437500,105.66
11:46:43.453125,110.87
11:46:43.468750,112.20
11:46:43.484375,109.07
11:46:43.500000,101.56
11:46:43.515625,90.27
11:46:43.531250,76.05
11:46:43.546875,59.70
11:46:43.562500,41.78
11:46:43.578125,22.52
11:46:43.593750,2.03
11:46:43.609375,-19.46
11:46:43.625000,-41.44
11:46:43.640625,-63.10
11:46:43.656250,-83.53
11:46:43.671875,-101.98
11:46:43.687500,-118.14
11:46:43.703125,-132.25
11:46:43.718750,-145.10
11:46:43.734375,-157.97
11:46:43.750000,-172.50
11:46:43.765625,-190.24
11:46:43.781250,-212.02
11:46:43.796875,-237.01
11:46:43.812500,-262.19
11:46:43.828125,-282.46
11:46:43.843750,-291.79
11:46:43.859375,-284.87
11:46:43.875000,-258.85
11:46:43.890625,-214.12
11:46:43.906250,-154.14
11:46:43.921875,-84.45
11:46:43.937500,-11.41
11:46:43.953125,58.83
11:46:43.968750,120.82
11:46:43.984375,170.10
11:46:44,203.54
11:46:44.015625,219.65
11:46:44.031250,219.07
11:46:44.046875,204.59
11:46:44.062500,180.82
11:46:44.078125,153.28
11:46:44.093750,127.27
11:46:44.109375,106.95
11:46:44.125000,94.62
11:46:44.140625,90.54
11:46:44.156250,93.15
11:46:44.171875,99.70
11:46:44.187500,107.12
11:46:44.203125,112.80
11:46:44.218750,115.08
11:46:44.234375,113.35
11:46:44.250000,107.73
11:46:44.265625,98.65
11:46:44.281250,86.46
11:46:44.296875,71.23
11:46:44.312500,52.98
11:46:44.328125,31.80
11:46:44.343750,8.18
11:46:44.359375,-17.01
11:46:44.375000,-42.68
11:46:44.390625,-67.78
11:46:44.406250,-91.65
11:46:44.421875,-114.09
11:46:44.437500,-135.37
11:46:44.453125,-155.95
11:46:44.468750,-176.35
11:46:44.484375,-197.09
11:46:44.500000,-218.81
11:46:44.515625,-242.22
11:46:44.531250,-267.56
11:46:44.546875,-294.02
11:46:44.562500,-319.00
11:46:44.578125,-338.24
11:46:44.593750,-346.66
11:46:44.609375,-340.06
11:46:44.625000,-316.43
11:46:44.640625,-276.50
11:46:44.656250,-223.25
11:46:44.671875,-160.69
11:46:44.687500,-92.97
11:46:44.703125,-24.13
11:46:44.718750,41.48
11:46:44.734375,98.84
11:46:44.750000,142.66
11:46:44.765625,168.69
11:46:44.781250,175.39
11:46:44.796875,164.87
11:46:44.812500,142.67
11:46:44.828125,116.06
11:46:44.843750,91.88
11:46:44.859375,74.69
11:46:44.875000,66.07
11:46:44.890625,64.94
11:46:44.906250,68.71
11:46:44.921875,74.54
11:46:44.937500,80.22
11:46:44.953125,84.56
11:46:44.968750,87.15
11:46:44.984375,87.81
11:46:45,86.10
11:46:45.015625,81.09
11:46:45.031250,71.60
11:46:45.046875,56.81
11:46:45.062500,36.77
11:46:45.078125,12.76
11:46:45.093750,-13.01
11:46:45.109375,-38.12
11:46:45.125000,-60.84
11:46:45.140625,-80.66
11:46:45.156250,-98.42
11:46:45.171875,-115.78
11:46:45.187500,-134.43
11:46:45.203125,-155.49
11:46:45.218750,-179.22
11:46:45.234375,-205.12
11:46:45.250000,-231.88
11:46:45.265625,-257.42
11:46:45.281250,-278.78
11:46:45.296875,-292.45
11:46:45.312500,-295.02
11:46:45.328125,-284.28
11:46:45.343750,-259.98
11:46:45.359375,-224.04
11:46:45.375000,-179.77
11:46:45.390625,-130.58
11:46:45.406250,-78.62
11:46:45.421875,-24.28
11:46:45.437500,33.13
11:46:45.453125,93.64
11:46:45.468750,155.10
11:46:45.484375,212.49
11:46:45.500000,259.09
11:46:45.515625,288.93
11:46:45.531250,299.39
11:46:45.546875,292.54
11:46:45.562500,274.55
11:46:45.578125,253.26
11:46:45.593750,235.31
11:46:45.609375,223.95
11:46:45.625000,218.79
11:46:45.640625,217.17
11:46:45.656250,216.04
11:46:45.671875,213.50
11:46:45.687500,208.97
11:46:45.703125,202.60
11:46:45.718750,194.29
11:46:45.734375,183.26
11:46:45.750000,168.16
11:46:45.765625,147.75
11:46:45.781250,121.59
11:46:45.796875,90.29
11:46:45.812500,55.65
11:46:45.828125,20.11
11:46:45.843750,-13.82
11:46:45.859375,-44.32
11:46:45.875000,-70.67
11:46:45.890625,-93.43
11:46:45.906250,-114.15
11:46:45.921875,-134.70
11:46:45.937500,-156.81
11:46:45.953125,-181.64
11:46:45.968750,-209.74
11:46:45.984375,-240.86
11:46:46,-273.73
11:46:46.015625,-305.67
11:46:46.031250,-332.66
11:46:46.046875,-349.96
11:46:46.062500,-353.35
11:46:46.078125,-340.63
11:46:46.093750,-312.41
11:46:46.109375,-271.87
11:46:46.125000,-223.45
11:46:46.140625,-171.21
11:46:46.156250,-117.38
11:46:46.171875,-62.12
11:46:46.187500,-4.42
11:46:46.203125,56.23
11:46:46.218750,118.19
11:46:46.234375,177.12
11:46:46.250000,226.84
11:46:46.265625,261.40
11:46:46.281250,277.60
11:46:46.296875,276.49
11:46:46.312500,263.20
11:46:46.328125,245.12
11:46:46.343750,229.09
11:46:46.359375,219.10
11:46:46.375000,215.51
11:46:46.390625,215.93
11:46:46.406250,217.06
11:46:46.421875,216.36
11:46:46.437500,212.83
11:46:46.453125,206.52
11:46:46.468750,197.68
11:46:46.484375,186.07
11:46:46.500000,170.89
11:46:46.515625,151.18
11:46:46.531250,126.40
11:46:46.546875,96.79
11:46:46.562500,63.58
11:46:46.578125,28.64
11:46:46.593750,-5.90
11:46:46.609375,-38.19
11:46:46.625000,-67.14
11:46:46.640625,-92.57
11:46:46.656250,-115.23
11:46:46.671875,-136.39
11:46:46.687500,-157.51
11:46:46.703125,-179.89
11:46:46.718750,-204.60
11:46:46.734375,-232.20
11:46:46.750000,-262.44
11:46:46.765625,-293.68
11:46:46.781250,-322.62
11:46:46.796875,-344.63
11:46:46.812500,-354.97
11:46:46.828125,-350.22
11:46:46.843750,-329.61
11:46:46.859375,-295.29
11:46:46.875000,-251.35
11:46:46.890625,-202.22
11:46:46.906250,-151.10
11:46:46.921875,-99.17
11:46:46.937500,-45.72
11:46:46.953125,10.55
11:46:46.968750,70.00
11:46:46.984375,130.71
11:46:47,188.16
11:46:47.015625,236.31
11:46:47.031250,269.63
11:46:47.046875,285.38
11:46:47.062500,284.92
11:46:47.078125,273.40
11:46:47.093750,257.84
11:46:47.109375,244.41
11:46:47.125000,236.38
11:46:47.140625,233.65
11:46:47.156250,233.81
11:46:47.171875,233.92
11:46:47.187500,232.07
11:46:47.203125,227.63
11:46:47.218750,220.70
11:46:47.234375,211.21
11:46:47.250000,198.47
11:46:47.265625,181.42
11:46:47.281250,159.31
11:46:47.296875,132.23
11:46:47.312500,101.27
11:46:47.328125,68.45
11:46:47.343750,36.00
11:46:47.359375,5.86
11:46:47.375000,-20.78
11:46:47.390625,-43.73
11:46:47.406250,-63.69
11:46:47.421875,-81.87
11:46:47.437500,-99.52
11:46:47.453125,-117.50
11:46:47.468750,-136.15
11:46:47.484375,-155.51
11:46:47.500000,-175.79
11:46:47.515625,-197.46
11:46:47.531250,-220.94
11:46:47.546875,-245.65
11:46:47.562500,-269.21
11:46:47.578125,-287.34
11:46:47.593750,-294.81
11:46:47.609375,-287.23
11:46:47.625000,-262.66
11:46:47.640625,-222.30
11:46:47.656250,-169.60
11:46:47.671875,-108.54
11:46:47.687500,-42.21
11:46:47.703125,27.32
11:46:47.718750,97.80
11:46:47.734375,165.34
11:46:47.750000,223.86
11:46:47.765625,266.43
11:46:47.781250,287.84
11:46:47.796875,287.14
11:46:47.812500,268.53
11:46:47.828125,240.07
11:46:47.843750,210.80
11:46:47.859375,187.76
11:46:47.875000,174.27
11:46:47.890625,170.04
11:46:47.906250,172.51
11:46:47.921875,178.56
11:46:47.937500,185.53
11:46:47.953125,191.34
11:46:47.968750,194.26
11:46:47.984375,192.60
11:46:48,184.89
11:46:48.015625,170.39
11:46:48.031250,149.44
11:46:48.046875,123.46
11:46:48.062500,94.52
11:46:48.078125,64.69
11:46:48.093750,35.41
11:46:48.109375,7.39
11:46:48.125000,-19.25
11:46:48.140625,-44.52
11:46:48.156250,-68.31
11:46:48.171875,-90.34
11:46:48.187500,-110.37
11:46:48.203125,-128.40
11:46:48.218750,-144.84
11:46:48.234375,-160.39
11:46:48.250000,-176.00
11:46:48.265625,-192.81
11:46:48.281250,-212.05
11:46:48.296875,-234.63
11:46:48.312500,-260.40
11:46:48.328125,-287.27
11:46:48.343750,-311.02
11:46:48.359375,-325.95
11:46:48.375000,-326.62
11:46:48.390625,-309.65
11:46:48.406250,-274.95
11:46:48.421875,-225.26
11:46:48.437500,-164.80
11:46:48.453125,-97.61
11:46:48.468750,-26.84
11:46:48.484375,44.55
11:46:48.500000,112.61
11:46:48.515625,171.80
11:46:48.531250,215.75
11:46:48.546875,239.40
11:46:48.562500,241.22
11:46:48.578125,224.25
11:46:48.593750,195.33
11:46:48.609375,162.73
11:46:48.625000,133.62
11:46:48.640625,112.38
11:46:48.656250,100.25
11:46:48.671875,96.18
11:46:48.687500,98.03
11:46:48.703125,103.50
11:46:48.718750,110.44
11:46:48.734375,116.94
11:46:48.750000,121.19
11:46:48.765625,121.73
11:46:48.781250,117.59
11:46:48.796875,108.48
11:46:48.812500,94.73
11:46:48.828125,77.09
11:46:48.843750,56.41
11:46:48.859375,33.45
11:46:48.875000,8.91
11:46:48.890625,-16.46
11:46:48.906250,-41.71
11:46:48.921875,-65.77
11:46:48.937500,-87.60
11:46:48.953125,-106.57
11:46:48.968750,-122.64
11:46:48.984375,-136.45
11:46:49,-149.07
11:46:49.015625,-161.74
11:46:49.031250,-175.73
11:46:49.046875,-192.23
11:46:49.062500,-212.00
11:46:49.078125,-234.93
11:46:49.093750,-259.35
11:46:49.109375,-281.71
11:46:49.125000,-297.06
11:46:49.140625,-300.36
11:46:49.156250,-288.12
11:46:49.171875,-259.63
11:46:49.187500,-217.03
11:46:49.203125,-163.97
11:46:49.218750,-103.99
11:46:49.234375,-39.35
11:46:49.250000,28.55
11:46:49.265625,97.65
11:46:49.281250,163.84
11:46:49.296875,220.74
11:46:49.312500,261.43
11:46:49.328125,281.16
11:46:49.343750,279.63
11:46:49.359375,261.49
11:46:49.375000,234.69
11:46:49.390625,207.61
11:46:49.406250,186.44
11:46:49.421875,173.88
11:46:49.437500,169.54
11:46:49.453125,171.30
11:46:49.468750,176.68
11:46:49.484375,183.55
11:46:49.500000,190.14
11:46:49.515625,194.75
11:46:49.531250,195.70
11:46:49.546875,191.59
11:46:49.562500,181.72
11:46:49.578125,166.26
11:46:49.593750,146.22
11:46:49.609375,123.01
11:46:49.625000,98.00
11:46:49.640625,72.16
11:46:49.656250,46.09
11:46:49.671875,20.01
11:46:49.687500,-5.94
11:46:49.703125,-31.68
11:46:49.718750,-57.02
11:46:49.734375,-81.65
11:46:49.750000,-105.22
11:46:49.765625,-127.48
11:46:49.781250,-148.53
11:46:49.796875,-169.03
11:46:49.812500,-190.29
11:46:49.828125,-213.79
11:46:49.843750,-240.31
11:46:49.859375,-268.84
11:46:49.875000,-295.91
11:46:49.890625,-316.02
11:46:49.906250,-322.99
11:46:49.921875,-311.99
11:46:49.937500,-281.03
11:46:49.953125,-231.63
11:46:49.968750,-168.25
11:46:49.984375,-97.07
11:46:50,-24.71
11:46:50.015625,42.62
11:46:50.031250,99.55
11:46:50.046875,141.85
11:46:50.062500,166.79
11:46:50.078125,173.78
11:46:50.093750,164.61
11:46:50.109375,143.39
11:46:50.125000,115.70
11:46:50.140625,87.36
11:46:50.156250,63.25
11:46:50.171875,46.47
11:46:50.187500,38.10
11:46:50.203125,37.45
11:46:50.218750,42.59
11:46:50.234375,51.13
11:46:50.250000,60.75
11:46:50.265625,69.58
11:46:50.281250,76.27
11:46:50.296875,79.75
11:46:50.312500,79.11
11:46:50.328125,73.56
11:46:50.343750,62.49
11:46:50.359375,45.79
11:46:50.375000,24.12
11:46:50.390625,-1.10
11:46:50.406250,-27.96
11:46:50.421875,-54.48
11:46:50.437500,-79.21
11:46:50.453125,-101.52
11:46:50.468750,-121.57
11:46:50.484375,-140.04
11:46:50.500000,-157.73
11:46:50.515625,-175.34
11:46:50.531250,-193.50
11:46:50.546875,-212.61
11:46:50.562500,-232.56
11:46:50.578125,-252.18
11:46:50.593750,-268.85
11:46:50.609375,-278.74
11:46:50.625000,-277.73
11:46:50.640625,-262.82
11:46:50.656250,-233.22
11:46:50.671875,-190.35
11:46:50.687500,-137.05
11:46:50.703125,-76.44
11:46:50.718750,-11.30
11:46:50.734375,55.39
11:46:50.750000,119.72
11:46:50.765625,176.29
11:46:50.781250,219.04
11:46:50.796875,243.07
11:46:50.812500,246.69
11:46:50.828125,232.46
11:46:50.843750,206.52
11:46:50.859375,176.51
11:46:50.875000,149.14
11:46:50.890625,128.57
11:46:50.906250,115.97
11:46:50.921875,110.33
11:46:50.937500,109.74
11:46:50.953125,112.37
11:46:50.968750,116.88
11:46:50.984375,122.20
11:46:51,127.19
11:46:51.015625,130.26
11:46:51.031250,129.44
11:46:51.046875,122.78
11:46:51.062500,109.00
11:46:51.078125,88.09
11:46:51.093750,61.54
11:46:51.109375,31.96
11:46:51.125000,2.25
11:46:51.140625,-25.32
11:46:51.156250,-49.88
11:46:51.171875,-72.06
11:46:51.187500,-93.56
11:46:51.203125,-116.33
11:46:51.218750,-141.87
11:46:51.234375,-170.94
11:46:51.250000,-203.43
11:46:51.265625,-238.35
11:46:51.281250,-273.63
11:46:51.296875,-306.04
11:46:51.312500,-331.27
11:46:51.328125,-344.87
11:46:51.343750,-343.44
11:46:51.359375,-325.82
11:46:51.375000,-293.52
11:46:51.390625,-250.06
11:46:51.406250,-199.45
11:46:51.421875,-144.56
11:46:51.437500,-86.51
11:46:51.453125,-25.43
11:46:51.468750,37.78
11:46:51.484375,99.82
11:46:51.500000,154.82
11:46:51.515625,195.84
11:46:51.531250,217.68
11:46:51.546875,219.35
11:46:51.562500,204.86
11:46:51.578125,181.90
11:46:51.593750,158.95
11:46:51.609375,142.27
11:46:51.625000,134.20
11:46:51.640625,133.34
11:46:51.656250,136.34
11:46:51.671875,139.92
11:46:51.687500,142.20
11:46:51.703125,142.75
11:46:51.718750,141.66
11:46:51.734375,138.54
11:46:51.750000,132.03
11:46:51.765625,120.31
11:46:51.781250,101.89
11:46:51.796875,76.57
11:46:51.812500,45.76
11:46:51.828125,12.09
11:46:51.843750,-21.46
11:46:51.859375,-52.61
11:46:51.875000,-80.41
11:46:51.890625,-105.33
11:46:51.906250,-128.84
11:46:51.921875,-152.69
11:46:51.937500,-178.40
11:46:51.953125,-206.85
11:46:51.968750,-238.15
11:46:51.984375,-271.39
11:46:52,-304.35
11:46:52.015625,-333.46
11:46:52.031250,-354.32
11:46:52.046875,-362.85
11:46:52.062500,-356.66
11:46:52.078125,-335.99
11:46:52.093750,-303.68
11:46:52.109375,-264.05
11:46:52.125000,-221.21
11:46:52.140625,-177.77
11:46:52.156250,-134.40
11:46:52.171875,-90.39
11:46:52.187500,-44.59
11:46:52.203125,3.65
11:46:52.218750,53.92
11:46:52.234375,104.52
11:46:52.250000,152.54
11:46:52.265625,194.39
11:46:52.281250,226.74
11:46:52.296875,247.71
11:46:52.312500,257.82
11:46:52.328125,260.03
11:46:52.343750,258.65
11:46:52.359375,257.56
11:46:52.375000,258.73
11:46:52.390625,261.84
11:46:52.406250,264.99
11:46:52.421875,266.16
11:46:52.437500,264.31
11:46:52.453125,259.39
11:46:52.468750,251.61
11:46:52.484375,240.49
11:46:52.500000,224.58
11:46:52.515625,202.16
11:46:52.531250,172.48
11:46:52.546875,136.72
11:46:52.562500,98.01
11:46:52.578125,60.42
11:46:52.593750,27.45
11:46:52.609375,0.63
11:46:52.625000,-21.01
11:46:52.640625,-40.41
11:46:52.656250,-61.27
11:46:52.671875,-86.68
11:46:52.687500,-118.12
11:46:52.703125,-154.95
11:46:52.718750,-194.39
11:46:52.734375,-232.00
11:46:52.750000,-262.50
11:46:52.765625,-281.06
11:46:52.781250,-284.40
11:46:52.796875,-271.84
11:46:52.812500,-245.35
11:46:52.828125,-208.67
11:46:52.843750,-165.94
11:46:52.859375,-120.13
11:46:52.875000,-72.31
11:46:52.890625,-21.76
11:46:52.906250,32.82
11:46:52.921875,91.65
11:46:52.937500,152.50
11:46:52.953125,210.38
11:46:52.968750,258.75
11:46:52.984375,291.67
11:46:53,306.18
11:46:53.015625,303.63
11:46:53.031250,289.32
11:46:53.046875,270.40
11:46:53.062500,253.19
11:46:53.078125,241.05
11:46:53.093750,234.00
11:46:53.109375,229.86
11:46:53.125000,226.18
11:46:53.140625,221.61
11:46:53.156250,216.16
11:46:53.171875,210.20
11:46:53.187500,203.38
11:46:53.203125,194.07
11:46:53.218750,179.84
11:46:53.234375,158.66
11:46:53.250000,130.02
11:46:53.265625,95.38
11:46:53.281250,57.91
11:46:53.296875,21.27
11:46:53.312500,-11.70
11:46:53.328125,-39.94
11:46:53.343750,-64.43
11:46:53.359375,-87.57
11:46:53.375000,-112.04
11:46:53.390625,-139.60
11:46:53.406250,-170.49
11:46:53.421875,-203.58
11:46:53.437500,-236.86
11:46:53.453125,-268.05
11:46:53.468750,-294.77
11:46:53.484375,-314.39
11:46:53.500000,-324.17
11:46:53.515625,-321.46
11:46:53.531250,-304.59
11:46:53.546875,-273.46
11:46:53.562500,-229.81
11:46:53.578125,-176.43
11:46:53.593750,-116.01
11:46:53.609375,-50.27
11:46:53.625000,19.84
11:46:53.640625,92.87
11:46:53.656250,165.32
11:46:53.671875,231.11
11:46:53.687500,282.81
11:46:53.703125,314.17
11:46:53.718750,322.92
11:46:53.734375,311.98
11:46:53.750000,288.66
11:46:53.765625,261.96
11:46:53.781250,239.39
11:46:53.796875,224.82
11:46:53.812500,218.13
11:46:53.828125,216.56
11:46:53.843750,216.66
11:46:53.859375,215.81
11:46:53.875000,212.66
11:46:53.890625,206.77
11:46:53.906250,197.84
11:46:53.921875,185.22
11:46:53.937500,168.04
11:46:53.953125,145.54
11:46:53.968750,117.60
11:46:53.984375,85.12
11:46:54,49.92
11:46:54.015625,14.32
11:46:54.031250,-19.46
11:46:54.046875,-49.88
11:46:54.062500,-76.51
11:46:54.078125,-100.05
11:46:54.093750,-121.92
11:46:54.109375,-143.69
11:46:54.125000,-166.49
11:46:54.140625,-190.76
11:46:54.156250,-216.48
11:46:54.171875,-243.55
11:46:54.187500,-271.87
11:46:54.203125,-301.04
11:46:54.218750,-329.52
11:46:54.234375,-354.11
11:46:54.250000,-370.17
11:46:54.265625,-372.81
11:46:54.281250,-358.60
11:46:54.296875,-326.88
11:46:54.312500,-279.83
11:46:54.328125,-221.29
11:46:54.343750,-155.08
11:46:54.359375,-84.07
11:46:54.375000,-10.60
11:46:54.390625,62.21
11:46:54.406250,129.27
11:46:54.421875,183.82
11:46:54.437500,219.32
11:46:54.453125,232.18
11:46:54.468750,223.67
11:46:54.484375,199.82
11:46:54.500000,169.31
11:46:54.515625,140.48
11:46:54.531250,118.88
11:46:54.546875,106.34
11:46:54.562500,101.78
11:46:54.578125,102.74
11:46:54.593750,106.79
11:46:54.609375,112.07
11:46:54.625000,117.20
11:46:54.640625,120.89
11:46:54.656250,121.73
11:46:54.671875,118.39
11:46:54.687500,109.96
11:46:54.703125,96.25
11:46:54.718750,77.88
11:46:54.734375,56.13
11:46:54.750000,32.59
11:46:54.765625,8.80
11:46:54.781250,-14.12
11:46:54.796875,-35.66
11:46:54.812500,-55.93
11:46:54.828125,-75.39
11:46:54.843750,-94.53
11:46:54.859375,-113.52
11:46:54.875000,-132.29
11:46:54.890625,-150.79
11:46:54.906250,-169.38
11:46:54.921875,-188.65
11:46:54.937500,-208.91
11:46:54.953125,-229.10
11:46:54.968750,-246.27
11:46:54.984375,-255.79
11:46:55,-252.58
11:46:55.015625,-232.78
11:46:55.031250,-195.05
11:46:55.046875,-140.99
11:46:55.062500,-74.66
11:46:55.078125,-1.55
11:46:55.093750,72.34
11:46:55.109375,141.03
11:46:55.125000,198.95
11:46:55.140625,241.35
11:46:55.156250,265.00
11:46:55.171875,269.06
11:46:55.187500,255.54
11:46:55.203125,229.19
11:46:55.218750,196.42
11:46:55.234375,163.95
11:46:55.250000,137.16
11:46:55.265625,119.16
11:46:55.281250,110.38
11:46:55.296875,108.94
11:46:55.312500,111.65
11:46:55.328125,115.13
11:46:55.343750,116.78
11:46:55.359375,115.23
11:46:55.375000,110.18
11:46:55.390625,101.78
11:46:55.406250,90.15
11:46:55.421875,75.10
11:46:55.437500,56.32
11:46:55.453125,33.78
11:46:55.468750,8.17
11:46:55.484375,-19.14
11:46:55.500000,-46.38
11:46:55.515625,-71.98
11:46:55.531250,-95.08
11:46:55.546875,-115.69
11:46:55.562500,-134.52
11:46:55.578125,-152.61
11:46:55.593750,-170.88
11:46:55.609375,-190.01
11:46:55.625000,-210.56
11:46:55.640625,-233.00
11:46:55.656250,-257.43
11:46:55.671875,-282.88
11:46:55.687500,-306.75
11:46:55.703125,-324.69
11:46:55.718750,-331.55
11:46:55.734375,-322.94
11:46:55.750000,-296.70
11:46:55.765625,-253.56
11:46:55.781250,-196.62
11:46:55.796875,-130.14
11:46:55.812500,-58.47
11:46:55.828125,14.32
11:46:55.843750,84.00
11:46:55.859375,145.79
11:46:55.875000,194.58
11:46:55.890625,226.07
11:46:55.906250,238.33
11:46:55.921875,232.89
11:46:55.937500,214.56
11:46:55.953125,189.97
11:46:55.968750,165.62
11:46:55.984375,146.22
11:46:56,133.96
11:46:56.015625,128.71
11:46:56.031250,128.83
11:46:56.046875,132.09
11:46:56.062500,136.33
11:46:56.078125,139.77
11:46:56.093750,141.07
11:46:56.109375,139.35
11:46:56.125000,134.09
11:46:56.140625,125.01
11:46:56.156250,112.12
11:46:56.171875,95.69
11:46:56.187500,76.20
11:46:56.203125,54.32
11:46:56.218750,30.90
11:46:56.234375,6.87
11:46:56.250000,-16.88
11:46:56.265625,-39.70
11:46:56.281250,-61.24
11:46:56.296875,-81.54
11:46:56.312500,-100.87
11:46:56.328125,-119.66
11:46:56.343750,-138.39
11:46:56.359375,-157.65
11:46:56.375000,-178.38
11:46:56.390625,-201.69
11:46:56.406250,-228.19
11:46:56.421875,-257.10
11:46:56.437500,-285.41
11:46:56.453125,-307.92
11:46:56.468750,-318.50
11:46:56.484375,-312.13
11:46:56.500000,-286.61
11:46:56.515625,-243.21
11:46:56.531250,-185.76
11:46:56.546875,-119.11
11:46:56.562500,-47.69
11:46:56.578125,24.83
11:46:56.593750,94.86
11:46:56.609375,158.09
11:46:56.625000,209.46
11:46:56.640625,244.26
11:46:56.656250,259.84
11:46:56.671875,256.91
11:46:56.687500,239.63
11:46:56.703125,214.43
11:46:56.718750,187.98
11:46:56.734375,165.55
11:46:56.750000,150.03
11:46:56.765625,141.98
11:46:56.781250,140.22
11:46:56.796875,142.63
11:46:56.812500,146.79
11:46:56.828125,150.37
11:46:56.843750,151.42
11:46:56.859375,148.62
11:46:56.875000,141.36
11:46:56.890625,129.64
11:46:56.906250,113.86
11:46:56.921875,94.57
11:46:56.937500,72.18
11:46:56.953125,46.94
11:46:56.968750,19.16
11:46:56.984375,-10.60
11:46:57,-41.32
11:46:57.015625,-71.59
11:46:57.031250,-100.00
11:46:57.046875,-125.56
11:46:57.062500,-148.10
11:46:57.078125,-168.35
11:46:57.093750,-187.72
11:46:57.109375,-207.85
11:46:57.125000,-230.20
11:46:57.140625,-255.72
11:46:57.156250,-284.54
11:46:57.171875,-315.59
11:46:57.187500,-346.32
11:46:57.203125,-372.70
11:46:57.218750,-389.78
11:46:57.234375,-392.99
11:46:57.250000,-379.56
11:46:57.265625,-349.48
11:46:57.281250,-305.51
11:46:57.296875,-252.03
11:46:57.312500,-193.24
11:46:57.328125,-131.71
11:46:57.343750,-68.02
11:46:57.359375,-1.96
11:46:57.375000,65.69
11:46:57.390625,131.56
11:46:57.406250,189.80
11:46:57.421875,233.76
11:46:57.437500,258.62
11:46:57.453125,263.56
11:46:57.468750,252.40
11:46:57.484375,232.21
11:46:57.500000,210.74
11:46:57.515625,193.95
11:46:57.531250,184.48
11:46:57.546875,181.92
11:46:57.562500,183.93
11:46:57.578125,187.81
11:46:57.593750,191.31
11:46:57.609375,192.88
11:46:57.625000,191.25
11:46:57.640625,185.27
11:46:57.656250,173.92
11:46:57.671875,156.65
11:46:57.687500,133.63
11:46:57.703125,105.78
11:46:57.718750,74.60
11:46:57.734375,41.71
11:46:57.750000,8.58
11:46:57.765625,-23.61
11:46:57.781250,-53.98
11:46:57.796875,-81.92
11:46:57.812500,-107.05
11:46:57.828125,-129.24
11:46:57.843750,-148.79
11:46:57.859375,-166.40
11:46:57.875000,-183.38
11:46:57.890625,-201.44
11:46:57.906250,-222.51
11:46:57.921875,-248.08
11:46:57.937500,-278.31
11:46:57.953125,-311.13
11:46:57.968750,-342.12
11:46:57.984375,-365.27
11:46:58,-374.74
11:46:58.015625,-366.83
11:46:58.031250,-341.40
11:46:58.046875,-301.70
11:46:58.062500,-252.96
11:46:58.078125,-200.31
11:46:58.093750,-147.02
11:46:58.109375,-93.77
11:46:58.125000,-39.31
11:46:58.140625,17.99
11:46:58.156250,78.43
11:46:58.171875,139.78
11:46:58.187500,197.35
11:46:58.203125,245.20
11:46:58.218750,278.25
11:46:58.234375,294.24
11:46:58.250000,294.75
11:46:58.265625,284.76
11:46:58.281250,270.80
11:46:58.296875,258.52
11:46:58.312500,250.93
11:46:58.328125,247.97
11:46:58.343750,247.37
11:46:58.359375,246.24
11:46:58.375000,242.44
11:46:58.390625,234.98
11:46:58.406250,223.73
11:46:58.421875,208.72
11:46:58.437500,189.79
11:46:58.453125,166.57
11:46:58.468750,138.87
11:46:58.484375,107.03
11:46:58.500000,72.09
11:46:58.515625,35.88
11:46:58.531250,0.48
11:46:58.546875,-32.16
11:46:58.562500,-60.77
11:46:58.578125,-85.05
11:46:58.593750,-105.71
11:46:58.609375,-124.23
11:46:58.625000,-142.33
11:46:58.640625,-161.58
11:46:58.656250,-183.05
11:46:58.671875,-207.34
11:46:58.687500,-234.48
11:46:58.703125,-263.76
11:46:58.718750,-293.30
11:46:58.734375,-319.86
11:46:58.750000,-339.14
11:46:58.765625,-346.70
11:46:58.781250,-339.41
11:46:58.796875,-316.58
11:46:58.812500,-280.20
11:46:58.828125,-234.17
11:46:58.843750,-182.73
11:46:58.859375,-128.84
11:46:58.875000,-73.39
11:46:58.890625,-15.55
11:46:58.906250,45.66
11:46:58.921875,109.40
11:46:58.937500,171.87
11:46:58.953125,226.66
11:46:58.968750,266.71
11:46:58.984375,287.14
11:46:59,287.49
11:46:59.015625,272.25
11:46:59.031250,249.38
11:46:59.046875,227.28
11:46:59.062500,211.86
11:46:59.078125,205.03
11:46:59.093750,205.07
11:46:59.109375,208.40
11:46:59.125000,211.69
11:46:59.140625,212.99
11:46:59.156250,211.66
11:46:59.171875,207.55
11:46:59.187500,200.23
11:46:59.203125,188.76
11:46:59.218750,172.07
11:46:59.234375,149.61
11:46:59.250000,121.74
11:46:59.265625,89.79
11:46:59.281250,55.78
11:46:59.296875,21.89
11:46:59.312500,-10.07
11:46:59.328125,-39.02
11:46:59.343750,-64.82
11:46:59.359375,-88.18
11:46:59.375000,-110.41
11:46:59.390625,-132.86
11:46:59.406250,-156.53
11:46:59.421875,-181.86
11:46:59.437500,-208.82
11:46:59.453125,-236.98
11:46:59.468750,-265.49
11:46:59.484375,-292.73
11:46:59.500000,-316.08
11:46:59.515625,-331.89
11:46:59.531250,-336.37
11:46:59.546875,-326.67
11:46:59.562500,-302.04
11:46:59.578125,-264.15
11:46:59.593750,-216.45
11:46:59.609375,-162.67
11:46:59.625000,-105.34
11:46:59.640625,-45.20
11:46:59.656250,17.94
11:46:59.671875,83.42
11:46:59.687500,148.11
11:46:59.703125,206.10
11:46:59.718750,250.17
11:46:59.734375,274.63
11:46:59.750000,277.88
11:46:59.765625,263.44
11:46:59.781250,238.89
11:46:59.796875,213.01
11:46:59.812500,192.71
11:46:59.828125,180.96
11:46:59.843750,176.79
11:46:59.859375,176.88
11:46:59.875000,177.71
11:46:59.890625,177.18
11:46:59.906250,174.76
11:46:59.921875,170.79
11:46:59.937500,165.29
11:46:59.953125,157.31
11:46:59.968750,145.15
11:46:59.984375,127.10
11:47:00,102.40
11:47:00.015625,71.80
11:47:00.031250,37.52
11:47:00.046875,2.51
11:47:00.062500,-30.47
11:47:00.078125,-59.68
11:47:00.093750,-84.73
11:47:00.109375,-106.37
11:47:00.125000,-126.06
11:47:00.140625,-145.25
11:47:00.156250,-164.98
11:47:00.171875,-185.87
11:47:00.187500,-208.21
11:47:00.203125,-232.02
11:47:00.218750,-256.85
11:47:00.234375,-281.24
11:47:00.250000,-302.50
11:47:00.265625,-316.74
11:47:00.281250,-319.93
11:47:00.296875,-309.16
11:47:00.312500,-283.73
11:47:00.328125,-245.40
11:47:00.343750,-197.60
11:47:00.359375,-143.86
11:47:00.375000,-86.34
11:47:00.390625,-25.44
11:47:00.406250,39.11
11:47:00.421875,106.37
11:47:00.437500,172.63
11:47:00.453125,231.32
11:47:00.468750,274.81
11:47:00.484375,297.35
11:47:00.500000,297.64
11:47:00.515625,279.68
11:47:00.531250,251.43
11:47:00.546875,221.84
11:47:00.562500,197.76
11:47:00.578125,182.17
11:47:00.593750,174.32
11:47:00.609375,171.32
11:47:00.625000,170.16
11:47:00.640625,168.94
11:47:00.656250,167.04
11:47:00.671875,164.32
11:47:00.687500,160.23
11:47:00.703125,153.40
11:47:00.718750,141.92
11:47:00.734375,124.10
11:47:00.750000,99.31
11:47:00.765625,68.56
11:47:00.781250,34.34
11:47:00.796875,-0.10
11:47:00.812500,-31.86
11:47:00.828125,-59.32
11:47:00.843750,-82.58
11:47:00.859375,-103.19
11:47:00.875000,-123.25
11:47:00.890625,-144.42
11:47:00.906250,-167.29
11:47:00.921875,-191.50
11:47:00.937500,-216.25
11:47:00.953125,-240.79
11:47:00.968750,-264.36
11:47:00.984375,-285.69
11:47:01,-302.42
11:47:01.015625,-311.20
11:47:01.031250,-308.44
11:47:01.046875,-291.67
11:47:01.062500,-260.56
11:47:01.078125,-217.07
11:47:01.093750,-164.33
11:47:01.109375,-105.26
11:47:01.125000,-41.66
11:47:01.140625,25.30
11:47:01.156250,93.64
11:47:01.171875,159.16
11:47:01.187500,215.32
11:47:01.203125,254.99
11:47:01.218750,273.15
11:47:01.234375,269.29
11:47:01.250000,248.03
11:47:01.265625,217.55
11:47:01.281250,186.63
11:47:01.296875,161.82
11:47:01.312500,145.87
11:47:01.328125,138.06
11:47:01.343750,135.82
11:47:01.359375,136.47
11:47:01.375000,138.23
11:47:01.390625,140.18
11:47:01.406250,141.66
11:47:01.421875,141.45
11:47:01.437500,137.68
11:47:01.453125,128.15
11:47:01.468750,111.24
11:47:01.484375,86.60
11:47:01.500000,55.64
11:47:01.515625,21.20
11:47:01.531250,-13.33
11:47:01.546875,-45.10
11:47:01.562500,-72.71
11:47:01.578125,-96.47
11:47:01.593750,-117.99
11:47:01.609375,-139.22
11:47:01.625000,-161.54
11:47:01.640625,-185.28
11:47:01.656250,-210.01
11:47:01.671875,-234.98
11:47:01.687500,-259.49
11:47:01.703125,-282.67
11:47:01.718750,-302.99
11:47:01.734375,-317.77
11:47:01.750000,-323.58
11:47:01.765625,-317.19
11:47:01.781250,-296.84
11:47:01.796875,-263.06
11:47:01.812500,-218.41
11:47:01.828125,-166.13
11:47:01.843750,-108.75
11:47:01.859375,-47.34
11:47:01.875000,17.72
11:47:01.890625,84.98
11:47:01.906250,150.38
11:47:01.921875,207.20
11:47:01.937500,247.98
11:47:01.953125,267.49
11:47:01.968750,265.38
11:47:01.984375,246.67
11:47:02,219.96
11:47:02.015625,194.09
11:47:02.031250,175.02
11:47:02.046875,164.48
11:47:02.062500,160.65
11:47:02.078125,160.37
11:47:02.093750,161.13
11:47:02.109375,162.00
11:47:02.125000,162.95
11:47:02.140625,163.56
11:47:02.156250,162.06
11:47:02.171875,155.54
11:47:02.187500,141.18
11:47:02.203125,117.71
11:47:02.218750,86.23
11:47:02.234375,50.07
11:47:02.250000,13.41
11:47:02.265625,-20.33
11:47:02.281250,-49.73
11:47:02.296875,-75.57
11:47:02.312500,-100.15
11:47:02.328125,-125.93
11:47:02.343750,-154.52
11:47:02.359375,-186.11
11:47:02.375000,-219.63
11:47:02.390625,-253.03
11:47:02.406250,-283.61
11:47:02.421875,-308.21
11:47:02.437500,-323.45
11:47:02.453125,-326.45
11:47:02.468750,-315.53
11:47:02.484375,-290.89
11:47:02.500000,-254.57
11:47:02.515625,-209.70
11:47:02.531250,-159.14
11:47:02.546875,-104.46
11:47:02.562500,-45.71
11:47:02.578125,17.49
11:47:02.593750,84.17
11:47:02.609375,150.56
11:47:02.625000,210.07
11:47:02.640625,255.11
11:47:02.656250,279.85
11:47:02.671875,282.85
11:47:02.687500,267.82
11:47:02.703125,242.36
11:47:02.718750,215.03
11:47:02.734375,192.34
11:47:02.750000,177.03
11:47:02.765625,168.25
11:47:02.781250,163.29
11:47:02.796875,159.54
11:47:02.812500,155.76
11:47:02.828125,151.87
11:47:02.843750,148.02
11:47:02.859375,143.42
11:47:02.875000,136.05
11:47:02.890625,123.22
11:47:02.906250,102.85
11:47:02.921875,74.50
11:47:02.937500,39.99
11:47:02.953125,2.91
11:47:02.968750,-32.67
11:47:02.984375,-63.64
11:47:03,-88.93
11:47:03.015625,-109.80
11:47:03.031250,-129.09
11:47:03.046875,-149.95
11:47:03.062500,-174.66
11:47:03.078125,-203.83
11:47:03.093750,-236.33
11:47:03.109375,-269.56
11:47:03.125000,-299.93
11:47:03.140625,-323.39
11:47:03.156250,-336.19
11:47:03.171875,-335.54
11:47:03.187500,-320.44
11:47:03.203125,-291.90
11:47:03.218750,-252.62
11:47:03.234375,-206.02
11:47:03.250000,-155.04
11:47:03.265625,-101.20
11:47:03.281250,-44.35
11:47:03.296875,16.37
11:47:03.312500,81.04
11:47:03.328125,147.42
11:47:03.343750,210.36
11:47:03.359375,262.86
11:47:03.375000,298.31
11:47:03.390625,313.14
11:47:03.406250,308.50
11:47:03.421875,289.98
11:47:03.437500,265.54
11:47:03.453125,242.46
11:47:03.468750,224.94
11:47:03.484375,213.55
11:47:03.500000,206.33
11:47:03.515625,200.78
11:47:03.531250,195.45
11:47:03.546875,190.08
11:47:03.562500,184.75
11:47:03.578125,178.62
11:47:03.593750,169.51
11:47:03.609375,154.47
11:47:03.625000,131.25
11:47:03.640625,99.59
11:47:03.656250,61.69
11:47:03.671875,21.72
11:47:03.687500,-15.79
11:47:03.703125,-47.56
11:47:03.718750,-72.68
11:47:03.734375,-92.75
11:47:03.750000,-110.93
11:47:03.765625,-130.51
11:47:03.781250,-153.67
11:47:03.796875,-180.95
11:47:03.812500,-211.40
11:47:03.828125,-243.05
11:47:03.843750,-273.28
11:47:03.859375,-298.93
11:47:03.875000,-316.42
11:47:03.890625,-322.27
11:47:03.906250,-313.95
11:47:03.921875,-290.72
11:47:03.937500,-254.01
11:47:03.953125,-206.77
11:47:03.968750,-152.18
11:47:03.984375,-92.34
11:47:04,-27.97
11:47:04.015625,40.65
11:47:04.031250,111.76
11:47:04.046875,180.80
11:47:04.062500,240.58
11:47:04.078125,283.29
11:47:04.093750,303.49
11:47:04.109375,300.58
11:47:04.125000,279.30
11:47:04.140625,248.07
11:47:04.156250,215.99
11:47:04.171875,189.83
11:47:04.187500,172.50
11:47:04.203125,163.31
11:47:04.218750,159.55
11:47:04.234375,158.38
11:47:04.250000,157.81
11:47:04.265625,156.84
11:47:04.281250,154.76
11:47:04.296875,150.48
11:47:04.312500,142.37
11:47:04.328125,128.71
11:47:04.343750,108.48
11:47:04.359375,81.99
11:47:04.375000,51.12
11:47:04.390625,18.80
11:47:04.406250,-11.89
11:47:04.421875,-38.75
11:47:04.437500,-61.20
11:47:04.453125,-80.28
11:47:04.468750,-98.03
11:47:04.484375,-116.48
11:47:04.500000,-136.82
11:47:04.515625,-159.08
11:47:04.531250,-182.57
11:47:04.546875,-206.51
11:47:04.562500,-230.36
11:47:04.578125,-253.50
11:47:04.593750,-274.47
11:47:04.609375,-290.35
11:47:04.625000,-297.08
11:47:04.640625,-290.51
11:47:04.656250,-268.01
11:47:04.671875,-229.40
11:47:04.687500,-176.82
11:47:04.703125,-113.64
11:47:04.718750,-43.42
11:47:04.734375,30.43
11:47:04.750000,104.07
11:47:04.765625,172.51
11:47:04.781250,229.54
11:47:04.796875,269.02
11:47:04.812500,286.97
11:47:04.828125,283.36
11:47:04.843750,262.48
11:47:04.859375,231.69
11:47:04.875000,199.07
11:47:04.890625,171.11
11:47:04.906250,151.46
11:47:04.921875,140.89
11:47:04.937500,138.05
11:47:04.953125,140.62
11:47:04.968750,146.07
11:47:04.984375,151.96
11:47:05,156.12
11:47:05.015625,156.68
11:47:05.031250,152.25
11:47:05.046875,142.01
11:47:05.062500,125.93
11:47:05.078125,104.72
11:47:05.093750,79.72
11:47:05.109375,52.51
11:47:05.125000,24.63
11:47:05.140625,-2.75
11:47:05.156250,-28.86
11:47:05.171875,-53.45
11:47:05.187500,-76.50
11:47:05.203125,-98.19
11:47:05.218750,-118.58
11:47:05.234375,-137.62
11:47:05.250000,-155.13
11:47:05.265625,-171.05
11:47:05.281250,-185.77
11:47:05.296875,-200.43
11:47:05.312500,-216.59
11:47:05.328125,-235.48
11:47:05.343750,-256.73
11:47:05.359375,-277.55
11:47:05.375000,-292.85
11:47:05.390625,-296.58
11:47:05.406250,-283.76
11:47:05.421875,-252.08
11:47:05.437500,-202.53
11:47:05.453125,-138.73
11:47:05.468750,-65.76
11:47:05.484375,10.88
11:47:05.500000,85.62
11:47:05.515625,152.77
11:47:05.531250,206.68
11:47:05.546875,242.54
11:47:05.562500,257.65
11:47:05.578125,252.49
11:47:05.593750,230.92
11:47:05.609375,199.27
11:47:05.625000,164.66
11:47:05.640625,133.30
11:47:05.656250,109.38
11:47:05.671875,94.86
11:47:05.687500,89.61
11:47:05.703125,91.99
11:47:05.718750,99.39
11:47:05.734375,108.77
11:47:05.750000,117.20
11:47:05.765625,122.38
11:47:05.781250,122.99
11:47:05.796875,118.81
11:47:05.812500,110.34
11:47:05.828125,98.50
11:47:05.843750,84.09
11:47:05.859375,67.53
11:47:05.875000,48.92
11:47:05.890625,28.33
11:47:05.906250,6.16
11:47:05.921875,-16.75
11:47:05.937500,-39.23
11:47:05.953125,-60.07
11:47:05.968750,-78.48
11:47:05.984375,-94.30
11:47:06,-107.93
11:47:06.015625,-120.26
11:47:06.031250,-132.40
11:47:06.046875,-145.72
11:47:06.062500,-161.62
11:47:06.078125,-181.09
11:47:06.093750,-203.88
11:47:06.109375,-227.71
11:47:06.125000,-247.93
11:47:06.140625,-258.22
11:47:06.156250,-252.38
11:47:06.171875,-226.51
11:47:06.187500,-180.72
11:47:06.203125,-119.47
11:47:06.218750,-50.33
11:47:06.234375,18.15
11:47:06.250000,78.64
11:47:06.265625,126.25
11:47:06.281250,158.66
11:47:06.296875,175.42
11:47:06.312500,177.28
11:47:06.328125,165.89
11:47:06.343750,144.03
11:47:06.359375,115.79
11:47:06.375000,86.28
11:47:06.390625,60.76
11:47:06.406250,43.39
11:47:06.421875,36.18
11:47:06.437500,38.62
11:47:06.453125,48.12
11:47:06.468750,60.99
11:47:06.484375,73.61
11:47:06.500000,83.26
11:47:06.515625,88.43
11:47:06.531250,88.78
11:47:06.546875,84.71
11:47:06.562500,76.91
11:47:06.578125,65.97
11:47:06.593750,52.24
11:47:06.609375,35.87
11:47:06.625000,17.04
11:47:06.640625,-3.76
11:47:06.656250,-25.65
11:47:06.671875,-47.42
11:47:06.687500,-67.84
11:47:06.703125,-86.03
11:47:06.718750,-101.74
11:47:06.734375,-115.43
11:47:06.750000,-128.10
11:47:06.765625,-141.04
11:47:06.781250,-155.56
11:47:06.796875,-172.72
11:47:06.812500,-192.90
11:47:06.828125,-215.17
11:47:06.843750,-236.85
11:47:06.859375,-253.39
11:47:06.875000,-259.17
11:47:06.890625,-249.08
11:47:06.906250,-220.39
11:47:06.921875,-174.04
11:47:06.937500,-114.73
11:47:06.953125,-49.63
11:47:06.968750,13.59
11:47:06.984375,68.75
11:47:07,112.03
11:47:07.015625,141.83
11:47:07.031250,158.00
11:47:07.046875,161.11
11:47:07.062500,152.32
11:47:07.078125,133.69
11:47:07.093750,108.60
11:47:07.109375,81.60
11:47:07.125000,57.55
11:47:07.140625,40.37
11:47:07.156250,32.00
11:47:07.171875,31.97
11:47:07.187500,37.87
11:47:07.203125,46.41
11:47:07.218750,54.63
11:47:07.234375,60.65
11:47:07.250000,63.81
11:47:07.265625,64.28
11:47:07.281250,62.43
11:47:07.296875,58.36
11:47:07.312500,51.70
11:47:07.328125,41.91
11:47:07.343750,28.62
11:47:07.359375,12.05
11:47:07.375000,-6.94
11:47:07.390625,-27.05
11:47:07.406250,-46.93
11:47:07.421875,-65.62
11:47:07.437500,-82.81
11:47:07.453125,-98.85
11:47:07.468750,-114.53
11:47:07.484375,-130.85
11:47:07.500000,-148.73
11:47:07.515625,-168.82
11:47:07.531250,-191.13
11:47:07.546875,-214.58
11:47:07.562500,-236.59
11:47:07.578125,-253.17
11:47:07.593750,-259.52
11:47:07.609375,-251.27
11:47:07.625000,-225.81
11:47:07.640625,-183.30
11:47:07.656250,-126.85
11:47:07.671875,-61.89
11:47:07.687500,5.06
11:47:07.703125,67.61
11:47:07.718750,120.44
11:47:07.734375,159.81
11:47:07.750000,183.59
11:47:07.765625,191.31
11:47:07.781250,184.16
11:47:07.796875,164.96
11:47:07.812500,137.92
11:47:07.828125,108.06
11:47:07.843750,80.34
11:47:07.859375,58.63
11:47:07.875000,45.08
11:47:07.890625,39.78
11:47:07.906250,41.19
11:47:07.921875,46.82
11:47:07.937500,54.20
11:47:07.953125,61.45
11:47:07.968750,67.50
11:47:07.984375,71.77
11:47:08,73.87
11:47:08.015625,73.16
11:47:08.031250,68.85
11:47:08.046875,60.15
11:47:08.062500,46.76
11:47:08.078125,29.05
11:47:08.093750,8.07
11:47:08.109375,-14.74
11:47:08.125000,-38.05
11:47:08.140625,-60.96
11:47:08.156250,-83.17
11:47:08.171875,-104.83
11:47:08.187500,-126.29
11:47:08.203125,-147.95
11:47:08.218750,-170.20
11:47:08.234375,-193.33
11:47:08.250000,-217.04
11:47:08.265625,-239.98
11:47:08.281250,-259.32
11:47:08.296875,-271.08
11:47:08.312500,-271.10
11:47:08.328125,-256.38
11:47:08.343750,-226.05
11:47:08.359375,-181.52
11:47:08.375000,-125.84
11:47:08.390625,-62.77
11:47:08.406250,3.69
11:47:08.421875,69.25
11:47:08.437500,129.06
11:47:08.453125,177.85
11:47:08.468750,210.88
11:47:08.484375,225.41
11:47:08.500000,221.88
11:47:08.515625,204.14
11:47:08.531250,178.29
11:47:08.546875,150.82
11:47:08.562500,126.79
11:47:08.578125,108.88
11:47:08.593750,97.49
11:47:08.609375,91.55
11:47:08.625000,89.51
11:47:08.640625,89.98
11:47:08.656250,91.90
11:47:08.671875,94.28
11:47:08.687500,95.86
11:47:08.703125,94.98
11:47:08.718750,89.78
11:47:08.734375,78.68
11:47:08.750000,60.99
11:47:08.765625,37.22
11:47:08.781250,9.14
11:47:08.796875,-20.83
11:47:08.812500,-50.38
11:47:08.828125,-78.04
11:47:08.843750,-103.47
11:47:08.859375,-127.42
11:47:08.875000,-151.11
11:47:08.890625,-175.63
11:47:08.906250,-201.51
11:47:08.921875,-228.60
11:47:08.937500,-256.10
11:47:08.953125,-282.59
11:47:08.968750,-305.99
11:47:08.984375,-323.66
11:47:09,-332.63
11:47:09.015625,-330.33
11:47:09.031250,-315.33
11:47:09.046875,-287.94
11:47:09.062500,-250.05
11:47:09.078125,-204.39
11:47:09.093750,-153.43
11:47:09.109375,-98.67
11:47:09.125000,-40.87
11:47:09.140625,18.77
11:47:09.156250,77.42
11:47:09.171875,130.16
11:47:09.187500,171.01
11:47:09.203125,195.16
11:47:09.218750,201.05
11:47:09.234375,191.43
11:47:09.250000,172.42
11:47:09.265625,151.20
11:47:09.281250,133.48
11:47:09.296875,122.07
11:47:09.312500,116.91
11:47:09.328125,116.43
11:47:09.343750,119.00
11:47:09.359375,123.58
11:47:09.375000,129.41
11:47:09.390625,135.10
11:47:09.406250,138.17
11:47:09.421875,135.55
11:47:09.437500,124.77
11:47:09.453125,105.25
11:47:09.468750,78.75
11:47:09.484375,48.75
11:47:09.500000,19.10
11:47:09.515625,-7.60
11:47:09.531250,-30.82
11:47:09.546875,-52.13
11:47:09.562500,-74.23
11:47:09.578125,-99.79
11:47:09.593750,-130.30
11:47:09.609375,-165.38
11:47:09.625000,-202.54
11:47:09.640625,-237.54
11:47:09.656250,-265.26
11:47:09.671875,-281.04
11:47:09.687500,-281.97
11:47:09.703125,-267.85
11:47:09.718750,-241.05
11:47:09.734375,-205.51
11:47:09.750000,-165.23
11:47:09.765625,-122.86
11:47:09.781250,-79.08
11:47:09.796875,-33.03
11:47:09.812500,16.49
11:47:09.828125,69.39
11:47:09.843750,123.26
11:47:09.859375,173.32
11:47:09.875000,213.65
11:47:09.890625,239.33
11:47:09.906250,248.38
11:47:09.921875,242.78
11:47:09.937500,227.87
11:47:09.953125,210.35
11:47:09.968750,195.80
11:47:09.984375,186.98
11:47:10,183.66
11:47:10.015625,183.83
11:47:10.031250,185.28
11:47:10.046875,186.59
11:47:10.062500,187.04
11:47:10.078125,185.73
11:47:10.093750,180.84
11:47:10.109375,169.77
11:47:10.125000,150.17
11:47:10.140625,121.38
11:47:10.156250,85.13
11:47:10.171875,45.18
11:47:10.187500,6.09
11:47:10.203125,-28.56
11:47:10.218750,-57.42
11:47:10.234375,-81.75
11:47:10.250000,-104.74
11:47:10.265625,-130.24
11:47:10.281250,-161.16
11:47:10.296875,-198.14
11:47:10.312500,-238.86
11:47:10.328125,-278.32
11:47:10.343750,-310.04
11:47:10.359375,-328.02
11:47:10.375000,-328.75
11:47:10.390625,-312.30
11:47:10.406250,-282.06
11:47:10.421875,-243.29
11:47:10.437500,-200.92
11:47:10.453125,-158.06
11:47:10.468750,-115.43
11:47:10.484375,-72.17
11:47:10.500000,-27.01
11:47:10.515625,20.73
11:47:10.531250,70.58
11:47:10.546875,120.90
11:47:10.562500,169.05
11:47:10.578125,211.79
11:47:10.593750,245.93
11:47:10.609375,269.10
11:47:10.625000,280.71
11:47:10.640625,282.27
11:47:10.656250,276.98
11:47:10.671875,268.54
11:47:10.687500,259.84
11:47:10.703125,252.23
11:47:10.718750,245.51
11:47:10.734375,238.69
11:47:10.750000,230.62
11:47:10.765625,220.33
11:47:10.781250,206.85
11:47:10.796875,189.03
11:47:10.812500,165.77
11:47:10.828125,136.60
11:47:10.843750,102.36
11:47:10.859375,65.40
11:47:10.875000,29.00
11:47:10.890625,-3.81
11:47:10.906250,-31.34
11:47:10.921875,-54.04
11:47:10.937500,-74.20
11:47:10.953125,-95.06
11:47:10.968750,-119.46
11:47:10.984375,-148.64
11:47:11,-181.54
11:47:11.015625,-214.76
11:47:11.031250,-243.33
11:47:11.046875,-262.02
11:47:11.062500,-266.87
11:47:11.078125,-256.32
11:47:11.093750,-231.53
11:47:11.109375,-195.78
11:47:11.125000,-152.98
11:47:11.140625,-106.16
11:47:11.156250,-56.41
11:47:11.171875,-3.03
11:47:11.187500,55.07
11:47:11.203125,117.41
11:47:11.218750,180.40
11:47:11.234375,237.37
11:47:11.250000,280.45
11:47:11.265625,303.48
11:47:11.281250,304.66
11:47:11.296875,287.48
11:47:11.312500,259.50
11:47:11.328125,229.37
11:47:11.343750,203.77
11:47:11.359375,185.59
11:47:11.375000,174.11
11:47:11.390625,166.71
11:47:11.406250,160.96
11:47:11.421875,155.74
11:47:11.437500,151.03
11:47:11.453125,146.80
11:47:11.468750,141.94
11:47:11.484375,134.06
11:47:11.500000,120.33
11:47:11.515625,98.89
11:47:11.531250,69.95
11:47:11.546875,36.03
11:47:11.562500,1.22
11:47:11.578125,-30.44
11:47:11.593750,-56.43
11:47:11.609375,-76.66
11:47:11.625000,-93.27
11:47:11.640625,-109.47
11:47:11.656250,-128.10
11:47:11.671875,-150.59
11:47:11.687500,-176.70
11:47:11.703125,-204.92
11:47:11.718750,-233.09
11:47:11.734375,-258.77
11:47:11.750000,-279.24
11:47:11.765625,-291.54
11:47:11.781250,-292.86
11:47:11.796875,-281.16
11:47:11.812500,-256.00
11:47:11.828125,-218.71
11:47:11.843750,-171.80
11:47:11.859375,-117.81
11:47:11.875000,-58.39
11:47:11.890625,5.65
11:47:11.906250,73.15
11:47:11.921875,141.03
11:47:11.937500,203.57
11:47:11.953125,253.39
11:47:11.968750,283.92
11:47:11.984375,292.20
11:47:12,280.45
11:47:12.015625,255.57
11:47:12.031250,226.52
11:47:12.046875,201.11
11:47:12.062500,183.69
11:47:12.078125,174.58
11:47:12.093750,171.37
11:47:12.109375,170.98
11:47:12.125000,171.14
11:47:12.140625,170.79
11:47:12.156250,169.51
11:47:12.171875,166.61
11:47:12.187500,160.78
11:47:12.203125,150.40
11:47:12.218750,134.26
11:47:12.234375,112.27
11:47:12.250000,85.64
11:47:12.265625,56.59
11:47:12.281250,27.56
11:47:12.296875,0.54
11:47:12.312500,-23.52
11:47:12.328125,-44.76
11:47:12.343750,-64.15
11:47:12.359375,-82.96
11:47:12.375000,-102.23
11:47:12.390625,-122.41
11:47:12.406250,-143.51
11:47:12.421875,-165.39
11:47:12.437500,-188.14
11:47:12.453125,-211.77
11:47:12.468750,-235.59
11:47:12.484375,-257.39
11:47:12.500000,-273.24
11:47:12.515625,-278.26
11:47:12.531250,-268.13
11:47:12.546875,-240.59
11:47:12.562500,-196.07
11:47:12.578125,-137.29
11:47:12.593750,-68.24
11:47:12.609375,6.62
11:47:12.625000,82.55
11:47:12.640625,154.16
11:47:12.656250,215.33
11:47:12.671875,259.99
11:47:12.687500,283.75
11:47:12.703125,285.57
11:47:12.718750,268.53
11:47:12.734375,239.10
11:47:12.750000,205.15
11:47:12.765625,173.79
11:47:12.781250,149.76
11:47:12.796875,134.95
11:47:12.812500,128.83
11:47:12.828125,129.36
11:47:12.843750,133.76
11:47:12.859375,139.27
11:47:12.875000,143.41
11:47:12.890625,144.33
11:47:12.906250,140.94
11:47:12.921875,132.83
11:47:12.937500,120.11
11:47:12.953125,103.27
11:47:12.968750,82.84
11:47:12.984375,59.41
11:47:13,33.54
11:47:13.015625,5.92
11:47:13.031250,-22.59
11:47:13.046875,-50.92
11:47:13.062500,-77.94
11:47:13.078125,-102.59
11:47:13.093750,-124.12
11:47:13.109375,-142.26
11:47:13.125000,-157.36
11:47:13.140625,-170.37
11:47:13.156250,-182.80
11:47:13.171875,-196.67
11:47:13.187500,-214.08
11:47:13.203125,-236.43
11:47:13.218750,-263.42
11:47:13.234375,-292.22
11:47:13.250000,-317.46
11:47:13.265625,-332.41
11:47:13.281250,-330.88
11:47:13.296875,-309.15
11:47:13.312500,-267.04
11:47:13.328125,-207.69
11:47:13.343750,-136.45
11:47:13.359375,-59.55
11:47:13.375000,16.81
11:47:13.390625,86.70
11:47:13.406250,144.61
11:47:13.421875,185.90
11:47:13.437500,207.62
11:47:13.453125,209.68
11:47:13.468750,195.23
11:47:13.484375,170.16
11:47:13.500000,141.60
11:47:13.515625,116.04
11:47:13.531250,97.92
11:47:13.546875,88.94
11:47:13.562500,88.35
11:47:13.578125,93.77
11:47:13.593750,102.16
11:47:13.609375,110.74
11:47:13.625000,117.40
11:47:13.640625,120.86
11:47:13.656250,120.53
11:47:13.671875,116.10
11:47:13.687500,107.42
11:47:13.703125,94.38
11:47:13.718750,77.01
11:47:13.734375,55.74
11:47:13.750000,31.45
11:47:13.765625,5.50
11:47:13.781250,-20.59
11:47:13.796875,-45.43
11:47:13.812500,-68.09
11:47:13.828125,-88.21
11:47:13.843750,-105.95
11:47:13.859375,-121.92
11:47:13.875000,-137.02
11:47:13.890625,-152.45
11:47:13.906250,-169.53
11:47:13.921875,-189.31
11:47:13.937500,-211.72
11:47:13.953125,-234.86
11:47:13.968750,-254.73
11:47:13.984375,-265.80
11:47:14,-262.48
11:47:14.015625,-240.85
11:47:14.031250,-200.06
11:47:14.046875,-142.80
11:47:14.062500,-74.60
11:47:14.078125,-2.51
11:47:14.093750,66.47
11:47:14.109375,126.49
11:47:14.125000,173.35
11:47:14.140625,204.54
11:47:14.156250,219.13
11:47:14.171875,217.79
11:47:14.187500,202.80
11:47:14.203125,178.02
11:47:14.218750,148.54
11:47:14.234375,119.87
11:47:14.250000,96.84
11:47:14.265625,82.63
11:47:14.281250,78.01
11:47:14.296875,81.43
11:47:14.312500,89.66
11:47:14.328125,98.95
11:47:14.343750,106.12
11:47:14.359375,109.27
11:47:14.375000,107.79
11:47:14.390625,102.04
11:47:14.406250,92.71
11:47:14.421875,80.37
11:47:14.437500,65.26
11:47:14.453125,47.36
11:47:14.468750,26.73
11:47:14.484375,3.76
11:47:14.500000,-20.66
11:47:14.515625,-45.33
11:47:14.531250,-68.96
11:47:14.546875,-90.69
11:47:14.562500,-110.21
11:47:14.578125,-127.80
11:47:14.593750,-144.10
11:47:14.609375,-159.84
11:47:14.625000,-175.80
11:47:14.640625,-192.87
11:47:14.656250,-212.04
11:47:14.671875,-234.07
11:47:14.687500,-258.67
11:47:14.703125,-283.72
11:47:14.718750,-304.91
11:47:14.734375,-316.64
11:47:14.750000,-313.56
11:47:14.765625,-292.34
11:47:14.781250,-252.73
11:47:14.796875,-197.40
11:47:14.812500,-130.90
11:47:14.828125,-58.47
11:47:14.843750,14.72
11:47:14.859375,83.78
11:47:14.875000,143.92
11:47:14.890625,190.79
11:47:14.906250,221.07
11:47:14.921875,233.56
11:47:14.937500,229.79
11:47:14.953125,213.83
11:47:14.968750,191.23
11:47:14.984375,167.72
11:47:15,147.84
11:47:15.015625,134.31
11:47:15.031250,127.80
11:47:15.046875,127.22
11:47:15.062500,130.36
11:47:15.078125,134.50
11:47:15.093750,137.16
11:47:15.109375,136.57
11:47:15.125000,131.95
11:47:15.140625,123.39
11:47:15.156250,111.44
11:47:15.171875,96.75
11:47:15.187500,79.70
11:47:15.203125,60.31
11:47:15.218750,38.46
11:47:15.234375,14.17
11:47:15.250000,-12.06
11:47:15.265625,-39.17
11:47:15.281250,-65.78
11:47:15.296875,-90.57
11:47:15.312500,-112.79
11:47:15.328125,-132.46
11:47:15.343750,-150.38
11:47:15.359375,-167.77
11:47:15.375000,-185.87
11:47:15.390625,-205.70
11:47:15.406250,-228.00
11:47:15.421875,-253.13
11:47:15.437500,-280.70
11:47:15.453125,-309.09
11:47:15.468750,-335.02
11:47:15.484375,-353.82
11:47:15.500000,-360.51
11:47:15.515625,-351.35
11:47:15.531250,-325.23
11:47:15.546875,-283.97
11:47:15.562500,-231.38
11:47:15.578125,-171.55
11:47:15.593750,-107.50
11:47:15.609375,-41.00
11:47:15.625000,26.34
11:47:15.640625,91.66
11:47:15.656250,150.13
11:47:15.671875,195.81
11:47:15.687500,223.76
11:47:15.703125,232.18
11:47:15.718750,223.55
11:47:15.734375,203.91
11:47:15.750000,180.75
11:47:15.765625,160.64
11:47:15.781250,147.49
11:47:15.796875,142.20
11:47:15.812500,143.28
11:47:15.828125,148.17
11:47:15.843750,154.14
11:47:15.859375,158.99
11:47:15.875000,161.06
11:47:15.890625,159.23
11:47:15.906250,152.88
11:47:15.921875,141.80
11:47:15.937500,126.16
11:47:15.953125,106.42
11:47:15.968750,83.26
11:47:15.984375,57.43
11:47:16,29.82
11:47:16.015625,1.42
11:47:16.031250,-26.60
11:47:16.046875,-53.11
11:47:16.062500,-77.22
11:47:16.078125,-98.60
11:47:16.093750,-117.55
11:47:16.109375,-134.99
11:47:16.125000,-152.20
11:47:16.140625,-170.52
11:47:16.156250,-191.11
11:47:16.171875,-214.77
11:47:16.187500,-241.55
11:47:16.203125,-270.31
11:47:16.218750,-298.37
11:47:16.234375,-321.57
11:47:16.250000,-335.08
11:47:16.265625,-334.83
11:47:16.281250,-318.85
11:47:16.296875,-288.00
11:47:16.312500,-245.58
11:47:16.328125,-195.91
11:47:16.343750,-142.62
11:47:16.359375,-87.42
11:47:16.375000,-30.17
11:47:16.390625,29.74
11:47:16.406250,91.48
11:47:16.421875,151.56
11:47:16.437500,204.07
11:47:16.453125,242.57
11:47:16.468750,262.71
11:47:16.484375,264.25
11:47:16.500000,251.44
11:47:16.515625,231.46
11:47:16.531250,211.81
11:47:16.546875,197.75
11:47:16.562500,191.03
11:47:16.578125,190.27
11:47:16.593750,192.54
11:47:16.609375,194.90
11:47:16.625000,195.43
11:47:16.640625,193.22
11:47:16.656250,187.80
11:47:16.671875,178.76
11:47:16.687500,165.63
11:47:16.703125,148.14
11:47:16.718750,126.55
11:47:16.734375,101.63
11:47:16.750000,74.51
11:47:16.765625,46.36
11:47:16.781250,18.09
11:47:16.796875,-9.55
11:47:16.812500,-35.97
11:47:16.828125,-60.60
11:47:16.843750,-82.98
11:47:16.859375,-102.89
11:47:16.875000,-120.58
11:47:16.890625,-136.88
11:47:16.906250,-153.14
11:47:16.921875,-170.97
11:47:16.937500,-191.94
11:47:16.953125,-216.98
11:47:16.968750,-245.74
11:47:16.984375,-276.02
11:47:17,-303.76
11:47:17.015625,-323.74
11:47:17.031250,-330.96
11:47:17.046875,-322.36
11:47:17.062500,-297.81
11:47:17.078125,-260.06
11:47:17.093750,-213.53
11:47:17.109375,-162.56
11:47:17.125000,-109.90
11:47:17.140625,-56.03
11:47:17.156250,0.04
11:47:17.171875,59.14
11:47:17.187500,120.13
11:47:17.203125,179.04
11:47:17.218750,229.73
11:47:17.234375,265.91
11:47:17.250000,283.71
11:47:17.265625,283.43
11:47:17.281250,269.76
11:47:17.296875,250.04
11:47:17.312500,231.59
11:47:17.328125,219.23
11:47:17.343750,214.24
11:47:17.359375,214.90
11:47:17.375000,218.03
11:47:17.390625,220.69
11:47:17.406250,220.96
11:47:17.421875,217.91
11:47:17.437500,211.02
11:47:17.453125,199.79
11:47:17.468750,183.74
11:47:17.484375,162.71
11:47:17.500000,137.13
11:47:17.515625,107.98
11:47:17.531250,76.71
11:47:17.546875,44.82
11:47:17.562500,13.63
11:47:17.578125,-15.85
11:47:17.593750,-42.94
11:47:17.609375,-67.38
11:47:17.625000,-89.25
11:47:17.640625,-109.04
11:47:17.656250,-127.55
11:47:17.671875,-145.75
11:47:17.687500,-164.66
11:47:17.703125,-185.26
11:47:17.718750,-208.35
11:47:17.734375,-234.29
11:47:17.750000,-262.37
11:47:17.765625,-290.37
11:47:17.781250,-314.44
11:47:17.796875,-329.73
11:47:17.812500,-331.78
11:47:17.828125,-318.00
11:47:17.843750,-288.64
11:47:17.859375,-246.62
11:47:17.875000,-196.26
11:47:17.890625,-141.50
11:47:17.906250,-84.45
11:47:17.921875,-25.26
11:47:17.937500,36.60
11:47:17.953125,100.44
11:47:17.968750,162.79
11:47:17.984375,217.55
11:47:18,257.81
11:47:18.015625,278.61
11:47:18.031250,279.31
11:47:18.046875,264.08
11:47:18.062500,240.49
11:47:18.078125,216.75
11:47:18.093750,198.90
11:47:18.109375,189.38
11:47:18.125000,187.28
11:47:18.140625,189.85
11:47:18.156250,194.14
11:47:18.171875,197.94
11:47:18.187500,199.84
11:47:18.203125,198.73
11:47:18.218750,193.44
11:47:18.234375,182.89
11:47:18.250000,166.55
11:47:18.265625,144.84
11:47:18.281250,119.03
11:47:18.296875,90.91
11:47:18.312500,62.11
11:47:18.328125,33.71
11:47:18.343750,6.10
11:47:18.359375,-20.64
11:47:18.375000,-46.43
11:47:18.390625,-70.95
11:47:18.406250,-93.67
11:47:18.421875,-114.20
11:47:18.437500,-132.60
11:47:18.453125,-149.59
11:47:18.468750,-166.42
11:47:18.484375,-184.64
11:47:18.500000,-205.73
11:47:18.515625,-230.49
11:47:18.531250,-258.45
11:47:18.546875,-287.35
11:47:18.562500,-313.13
11:47:18.578125,-330.59
11:47:18.593750,-334.87
11:47:18.609375,-323.03
11:47:18.625000,-295.00
11:47:18.640625,-253.61
11:47:18.656250,-203.22
11:47:18.671875,-147.92
11:47:18.687500,-89.92
11:47:18.703125,-29.41
11:47:18.718750,34.17
11:47:18.734375,100.05
11:47:18.750000,164.58
11:47:18.765625,221.26
11:47:18.781250,262.72
11:47:18.796875,283.70
11:47:18.812500,283.43
11:47:18.828125,266.32
11:47:18.843750,240.33
11:47:18.859375,214.10
11:47:18.875000,194.03
11:47:18.890625,182.81
11:47:18.906250,179.63
11:47:18.921875,181.80
11:47:18.937500,186.38
11:47:18.953125,191.09
11:47:18.968750,194.38
11:47:18.984375,194.88
11:47:19,191.14
11:47:19.015625,181.81
11:47:19.031250,166.30
11:47:19.046875,145.09
11:47:19.062500,119.71
11:47:19.078125,92.18
11:47:19.093750,64.26
11:47:19.109375,36.93
11:47:19.125000,10.35
11:47:19.140625,-15.70
11:47:19.156250,-41.32
11:47:19.171875,-66.17
11:47:19.187500,-89.56
11:47:19.203125,-110.86
11:47:19.218750,-129.95
11:47:19.234375,-147.39
11:47:19.250000,-164.41
11:47:19.265625,-182.47
11:47:19.281250,-202.98
11:47:19.296875,-226.82
11:47:19.312500,-253.79
11:47:19.328125,-282.13
11:47:19.343750,-308.29
11:47:19.359375,-327.39
11:47:19.375000,-334.41
11:47:19.390625,-325.76
11:47:19.406250,-300.53
11:47:19.421875,-260.76
11:47:19.437500,-210.44
11:47:19.453125,-153.71
11:47:19.468750,-93.28
11:47:19.484375,-29.94
11:47:19.500000,36.28
11:47:19.515625,104.09
11:47:19.531250,169.50
11:47:19.546875,225.89
11:47:19.562500,266.03
11:47:19.578125,284.98
11:47:19.593750,282.45
11:47:19.609375,263.19
11:47:19.625000,235.33
11:47:19.640625,207.46
11:47:19.656250,185.89
11:47:19.671875,173.31
11:47:19.687500,169.09
11:47:19.703125,170.75
11:47:19.718750,175.45
11:47:19.734375,180.82
11:47:19.750000,185.03
11:47:19.765625,186.46
11:47:19.781250,183.55
11:47:19.796875,175.05
11:47:19.812500,160.49
11:47:19.828125,140.48
11:47:19.843750,116.45
11:47:19.859375,90.22
11:47:19.875000,63.23
11:47:19.890625,36.26
11:47:19.906250,9.37
11:47:19.921875,-17.55
11:47:19.937500,-44.38
11:47:19.953125,-70.50
11:47:19.968750,-94.96
11:47:19.984375,-116.95
11:47:20,-136.27
11:47:20.015625,-153.51
11:47:20.031250,-169.86
11:47:20.046875,-186.82
11:47:20.062500,-205.77
11:47:20.078125,-227.69
11:47:20.093750,-252.70
11:47:20.109375,-279.57
11:47:20.125000,-305.33
11:47:20.140625,-325.45
11:47:20.156250,-334.78
11:47:20.171875,-329.13
11:47:20.187500,-306.74
11:47:20.203125,-268.85
11:47:20.218750,-219.13
11:47:20.234375,-161.85
11:47:20.250000,-100.18
11:47:20.265625,-35.48
11:47:20.281250,31.82
11:47:20.296875,100.32
11:47:20.312500,166.13
11:47:20.328125,222.82
11:47:20.343750,263.32
11:47:20.359375,282.73
11:47:20.375000,280.64
11:47:20.390625,261.60
11:47:20.406250,233.51
11:47:20.421875,204.76
11:47:20.437500,181.65
11:47:20.453125,167.07
11:47:20.468750,160.74
11:47:20.484375,160.60
11:47:20.500000,164.12
11:47:20.515625,169.10
11:47:20.531250,173.73
11:47:20.546875,176.33
11:47:20.562500,175.23
11:47:20.578125,169.06
11:47:20.593750,157.13
11:47:20.609375,139.63
11:47:20.625000,117.62
11:47:20.640625,92.59
11:47:20.656250,65.92
11:47:20.671875,38.58
11:47:20.687500,11.08
11:47:20.703125,-16.27
11:47:20.718750,-43.14
11:47:20.734375,-68.95
11:47:20.750000,-93.09
11:47:20.765625,-115.08
11:47:20.781250,-134.91
11:47:20.796875,-153.12
11:47:20.812500,-170.65
11:47:20.828125,-188.72
11:47:20.843750,-208.61
11:47:20.859375,-231.32
11:47:20.875000,-257.03
11:47:20.890625,-284.48
11:47:20.906250,-310.44
11:47:20.921875,-330.03
11:47:20.937500,-337.91
11:47:20.953125,-329.94
11:47:20.968750,-304.71
11:47:20.984375,-264.02
11:47:21,-211.91
11:47:21.015625,-152.69
11:47:21.031250,-89.36
11:47:21.046875,-23.19
11:47:21.062500,45.09
11:47:21.078125,113.36
11:47:21.093750,176.90
11:47:21.109375,228.88
11:47:21.125000,262.66
11:47:21.140625,274.52
11:47:21.156250,265.56
11:47:21.171875,241.56
11:47:21.187500,210.90
11:47:21.203125,181.70
11:47:21.218750,159.52
11:47:21.234375,146.43
11:47:21.250000,141.59
11:47:21.265625,142.68
11:47:21.281250,147.13
11:47:21.296875,152.75
11:47:21.312500,157.73
11:47:21.328125,160.43
11:47:21.343750,159.36
11:47:21.359375,153.31
11:47:21.375000,141.71
11:47:21.390625,124.73
11:47:21.406250,103.22
11:47:21.421875,78.38
11:47:21.437500,51.44
11:47:21.453125,23.46
11:47:21.468750,-4.72
11:47:21.484375,-32.37
11:47:21.500000,-58.84
11:47:21.515625,-83.64
11:47:21.531250,-106.53
11:47:21.546875,-127.66
11:47:21.562500,-147.50
11:47:21.578125,-166.77
11:47:21.593750,-186.31
11:47:21.609375,-207.01
11:47:21.625000,-229.67
11:47:21.640625,-254.62
11:47:21.656250,-281.00
11:47:21.671875,-306.29
11:47:21.687500,-326.20
11:47:21.703125,-335.70
11:47:21.718750,-330.52
11:47:21.734375,-308.72
11:47:21.750000,-271.47
11:47:21.765625,-222.34
11:47:21.781250,-165.60
11:47:21.796875,-104.41
11:47:21.812500,-40.17
11:47:21.828125,26.66
11:47:21.843750,94.61
11:47:21.859375,159.70
11:47:21.875000,215.42
11:47:21.890625,254.61
11:47:21.906250,272.37
11:47:21.921875,268.32
11:47:21.937500,247.15
11:47:21.953125,216.92
11:47:21.968750,186.30
11:47:21.984375,161.88
11:47:22,146.74
11:47:22.015625,140.72
11:47:22.031250,141.60
11:47:22.046875,146.60
11:47:22.062500,153.26
11:47:22.078125,159.59
11:47:22.093750,163.90
11:47:22.109375,164.69
11:47:22.125000,160.65
11:47:22.140625,150.95
11:47:22.156250,135.39
11:47:22.171875,114.44
11:47:22.187500,89.11
11:47:22.203125,60.74
11:47:22.218750,30.78
11:47:22.234375,0.65
11:47:22.250000,-28.41
11:47:22.265625,-55.58
11:47:22.281250,-80.53
11:47:22.296875,-103.44
11:47:22.312500,-124.93
11:47:22.328125,-145.79
11:47:22.343750,-166.77
11:47:22.359375,-188.51
11:47:22.375000,-211.56
11:47:22.390625,-236.26
11:47:22.406250,-262.46
11:47:22.421875,-288.96
11:47:22.437500,-313.03
11:47:22.453125,-330.53
11:47:22.468750,-336.90
11:47:22.484375,-328.57
11:47:22.500000,-304.36
11:47:22.515625,-265.85
11:47:22.531250,-216.69
11:47:22.546875,-160.89
11:47:22.562500,-101.14
11:47:22.578125,-38.33
11:47:22.593750,27.49
11:47:22.609375,95.13
11:47:22.625000,160.66
11:47:22.640625,217.40
11:47:22.656250,257.85
11:47:22.671875,276.74
11:47:22.687500,273.44
11:47:22.703125,252.64
11:47:22.718750,222.74
11:47:22.734375,192.74
11:47:22.750000,169.36
11:47:22.765625,155.39
11:47:22.781250,149.96
11:47:22.796875,150.25
11:47:22.812500,153.18
11:47:22.828125,156.64
11:47:22.843750,159.41
11:47:22.859375,160.70
11:47:22.875000,159.50
11:47:22.890625,154.45
11:47:22.906250,144.23
11:47:22.921875,128.02
11:47:22.937500,105.87
11:47:22.953125,78.85
11:47:22.968750,48.73
11:47:22.984375,17.56
11:47:23,-12.75
11:47:23.015625,-40.84
11:47:23.031250,-66.14
11:47:23.046875,-88.86
11:47:23.062500,-109.89
11:47:23.078125,-130.38
11:47:23.093750,-151.38
11:47:23.109375,-173.55
11:47:23.125000,-197.15
11:47:23.140625,-222.15
11:47:23.156250,-248.18
11:47:23.171875,-274.23
11:47:23.187500,-298.24
11:47:23.203125,-316.83
11:47:23.218750,-325.93
11:47:23.234375,-321.85
11:47:23.250000,-302.66
11:47:23.265625,-268.98
11:47:23.281250,-223.70
11:47:23.296875,-170.59
11:47:23.312500,-112.63
11:47:23.328125,-51.14
11:47:23.343750,13.65
11:47:23.359375,80.78
11:47:23.375000,146.84
11:47:23.390625,205.45
11:47:23.406250,248.92
11:47:23.421875,271.18
11:47:23.437500,270.59
11:47:23.453125,251.04
11:47:23.468750,220.68
11:47:23.484375,188.85
11:47:23.500000,162.92
11:47:23.515625,146.32
11:47:23.531250,138.51
11:47:23.546875,136.73
11:47:23.562500,138.03
11:47:23.578125,140.53
11:47:23.593750,143.52
11:47:23.609375,146.60
11:47:23.625000,148.80
11:47:23.640625,148.15
11:47:23.656250,142.18
11:47:23.671875,128.86
11:47:23.687500,107.51
11:47:23.703125,79.33
11:47:23.718750,47.14
11:47:23.734375,14.43
11:47:23.750000,-15.77
11:47:23.765625,-41.89
11:47:23.781250,-64.18
11:47:23.796875,-84.37
11:47:23.812500,-104.77
11:47:23.828125,-127.20
11:47:23.843750,-152.40
11:47:23.859375,-180.01
11:47:23.875000,-208.97
11:47:23.890625,-237.85
11:47:23.906250,-264.91
11:47:23.921875,-287.81
11:47:23.937500,-303.51
11:47:23.953125,-308.69
11:47:23.968750,-300.64
11:47:23.984375,-278.28
11:47:24,-242.72
11:47:24.015625,-196.71
11:47:24.031250,-143.39
11:47:24.046875,-84.97
11:47:24.062500,-22.42
11:47:24.078125,43.61
11:47:24.093750,111.04
11:47:24.109375,175.13
11:47:24.125000,228.80
11:47:24.140625,264.70
11:47:24.156250,278.18
11:47:24.171875,269.53
11:47:24.187500,244.31
11:47:24.203125,211.41
11:47:24.218750,179.99
11:47:24.234375,156.54
11:47:24.250000,143.42
11:47:24.265625,139.32
11:47:24.281250,140.97
11:47:24.296875,144.98
11:47:24.312500,149.02
11:47:24.328125,151.83
11:47:24.343750,152.72
11:47:24.359375,150.91
11:47:24.375000,145.31
11:47:24.390625,134.66
11:47:24.406250,118.02
11:47:24.421875,95.21
11:47:24.437500,67.10
11:47:24.453125,35.55
11:47:24.468750,2.92
11:47:24.484375,-28.41
11:47:24.500000,-56.85
11:47:24.515625,-81.87
11:47:24.531250,-104.12
11:47:24.546875,-125.04
11:47:24.562500,-146.22
11:47:24.578125,-168.88
11:47:24.593750,-193.66
11:47:24.609375,-220.69
11:47:24.625000,-249.51
11:47:24.640625,-278.90
11:47:24.656250,-306.44
11:47:24.671875,-328.52
11:47:24.687500,-340.78
11:47:24.703125,-339.40
11:47:24.718750,-322.49
11:47:24.734375,-290.84
11:47:24.750000,-247.62
11:47:24.765625,-197.08
11:47:24.781250,-142.72
11:47:24.796875,-86.12
11:47:24.812500,-26.95
11:47:24.828125,35.63
11:47:24.843750,100.97
11:47:24.859375,165.46
11:47:24.875000,222.65
11:47:24.890625,265.19
11:47:24.906250,287.62
11:47:24.921875,288.88
11:47:24.937500,273.03
11:47:24.953125,247.90
11:47:24.968750,222.16
11:47:24.984375,202.35
11:47:25,191.05
11:47:25.015625,187.10
11:47:25.031250,187.29
11:47:25.046875,188.41
11:47:25.062500,188.53
11:47:25.078125,187.02
11:47:25.093750,183.74
11:47:25.109375,178.16
11:47:25.125000,169.00
11:47:25.140625,154.71
11:47:25.156250,134.22
11:47:25.171875,107.64
11:47:25.187500,76.46
11:47:25.203125,43.27
11:47:25.218750,10.96
11:47:25.234375,-18.13
11:47:25.250000,-42.91
11:47:25.265625,-63.73
11:47:25.281250,-82.05
11:47:25.296875,-99.74
11:47:25.312500,-118.28
11:47:25.328125,-138.33
11:47:25.343750,-159.85
11:47:25.359375,-182.61
11:47:25.375000,-206.59
11:47:25.390625,-231.78
11:47:25.406250,-257.43
11:47:25.421875,-281.20
11:47:25.437500,-298.96
11:47:25.453125,-305.75
11:47:25.468750,-297.44
11:47:25.484375,-272.44
11:47:25.500000,-232.28
11:47:25.515625,-180.73
11:47:25.531250,-121.94
11:47:25.546875,-58.75
11:47:25.562500,7.63
11:47:25.578125,76.34
11:47:25.593750,145.03
11:47:25.609375,208.62
11:47:25.625000,260.01
11:47:25.640625,292.40
11:47:25.656250,302.19
11:47:25.671875,290.87
11:47:25.687500,264.69
11:47:25.703125,232.48
11:47:25.718750,202.58
11:47:25.734375,180.47
11:47:25.750000,167.82
11:47:25.765625,163.29
11:47:25.781250,164.11
11:47:25.796875,167.52
11:47:25.812500,171.42
11:47:25.828125,174.30
11:47:25.843750,174.82
11:47:25.859375,171.56
11:47:25.875000,163.17
11:47:25.890625,148.68
11:47:25.906250,127.92
11:47:25.921875,101.68
11:47:25.937500,71.50
11:47:25.953125,39.38
11:47:25.968750,7.27
11:47:25.984375,-23.24
11:47:26,-51.24
11:47:26.015625,-76.48
11:47:26.031250,-99.32
11:47:26.046875,-120.43
11:47:26.062500,-140.51
11:47:26.078125,-160.11
11:47:26.093750,-179.59
11:47:26.109375,-199.31
11:47:26.125000,-219.85
11:47:26.140625,-241.90
11:47:26.156250,-265.69
11:47:26.171875,-290.15
11:47:26.187500,-312.31
11:47:26.203125,-327.56
11:47:26.218750,-330.81
11:47:26.234375,-318.25
11:47:26.250000,-288.80
11:47:26.265625,-244.25
11:47:26.281250,-188.26
11:47:26.296875,-124.59
11:47:26.312500,-56.00
11:47:26.328125,15.60
11:47:26.343750,87.78
11:47:26.359375,156.14
11:47:26.375000,214.15
11:47:26.390625,254.67
11:47:26.406250,272.77
11:47:26.421875,268.05
11:47:26.437500,245.28
11:47:26.453125,212.89
11:47:26.468750,180.01
11:47:26.484375,153.63
11:47:26.500000,137.02
11:47:26.515625,129.86
11:47:26.531250,129.70
11:47:26.546875,133.50
