18:29:24,-0.00
18:29:24.015625,-0.00
18:29:24.031250,-0.00
18:29:24.046875,-0.00
18:29:24.062500,-0.00
18:29:24.078125,-0.00
18:29:24.093750,-0.00
18:29:24.109375,-0.00
18:29:24.125000,-0.00
18:29:24.140625,-0.01
18:29:24.156250,-0.00
18:29:24.171875,0.00
18:29:24.187500,0.01
18:29:24.203125,0.01
18:29:24.218750,-0.00
18:29:24.234375,-0.03
18:29:24.250000,-0.05
18:29:24.265625,-0.05
18:29:24.281250,-0.00
18:29:24.296875,0.13
18:29:24.312500,0.36
18:29:24.328125,0.66
18:29:24.343750,1.01
18:29:24.359375,1.37
18:29:24.375000,1.72
18:29:24.390625,2.06
18:29:24.406250,2.40
18:29:24.421875,2.77
18:29:24.437500,3.24
18:29:24.453125,3.80
18:29:24.468750,4.42
18:29:24.484375,5.06
18:29:24.500000,5.66
18:29:24.515625,6.20
18:29:24.531250,6.68
18:29:24.546875,7.15
18:29:24.562500,7.64
18:29:24.578125,8.31
18:29:24.593750,9.14
18:29:24.609375,10.09
18:29:24.625000,11.04
18:29:24.640625,11.88
18:29:24.656250,12.56
18:29:24.671875,13.14
18:29:24.687500,13.76
18:29:24.703125,14.58
18:29:24.718750,15.96
18:29:24.734375,17.91
18:29:24.750000,20.32
18:29:24.765625,22.90
18:29:24.781250,25.38
18:29:24.796875,27.58
18:29:24.812500,29.57
18:29:24.828125,31.68
18:29:24.843750,34.20
18:29:24.859375,37.81
18:29:24.875000,42.54
18:29:24.890625,48.15
18:29:24.906250,54.10
18:29:24.921875,59.83
18:29:24.937500,64.97
18:29:24.953125,69.58
18:29:24.968750,74.14
18:29:24.984375,79.19
18:29:25,85.71
18:29:25.015625,93.76
18:29:25.031250,103.00
18:29:25.046875,112.62
18:29:25.062500,121.73
18:29:25.078125,129.77
18:29:25.093750,136.75
18:29:25.109375,144.29
18:29:25.125000,150.58
18:29:25.140625,157.77
18:29:25.156250,166.64
18:29:25.171875,177.95
18:29:25.187500,191.79
18:29:25.203125,206.97
18:29:25.218750,220.57
18:29:25.234375,228.25
18:29:25.250000,225.36
18:29:25.265625,208.37
18:29:25.281250,176.87
18:29:25.296875,132.76
18:29:25.312500,80.05
18:29:25.328125,23.07
18:29:25.343750,-34.94
18:29:25.359375,-92.44
18:29:25.375000,-149.16
18:29:25.390625,-205.23
18:29:25.406250,-260.49
18:29:25.421875,-313.74
18:29:25.437500,-363.87
18:29:25.453125,-409.83
18:29:25.468750,-450.91
18:29:25.484375,-486.50
18:29:25.500000,-515.74
18:29:25.515625,-537.23
18:29:25.531250,-549.22
18:29:25.546875,-550.04
18:29:25.562500,-538.37
18:29:25.578125,-514.20
18:29:25.593750,-478.67
18:29:25.609375,-433.88
18:29:25.625000,-382.45
18:29:25.640625,-327.02
18:29:25.656250,-269.84
18:29:25.671875,-212.63
18:29:25.687500,-156.70
18:29:25.703125,-102.95
18:29:25.718750,-52.37
18:29:25.734375,-5.90
18:29:25.750000,35.58
18:29:25.765625,71.43
18:29:25.781250,101.35
18:29:25.796875,125.50
18:29:25.812500,144.38
18:29:25.828125,158.68
18:29:25.843750,169.15
18:29:25.859375,176.37
18:29:25.875000,180.75
18:29:25.890625,182.57
18:29:25.906250,182.07
18:29:25.921875,179.52
18:29:25.937500,175.26
18:29:25.953125,169.69
18:29:25.968750,163.20
18:29:25.984375,156.13
18:29:26,148.72
18:29:26.015625,141.11
18:29:26.031250,133.41
18:29:26.046875,125.68
18:29:26.062500,117.96
18:29:26.078125,110.33
18:29:26.093750,102.82
18:29:26.109375,95.48
18:29:26.125000,88.34
18:29:26.140625,81.42
18:29:26.156250,74.75
18:29:26.171875,68.37
18:29:26.187500,62.31
18:29:26.203125,56.61
18:29:26.218750,51.26
18:29:26.234375,46.23
18:29:26.250000,41.48
18:29:26.265625,36.95
18:29:26.281250,32.65
18:29:26.296875,28.58
18:29:26.312500,24.81
18:29:26.328125,21.41
18:29:26.343750,18.42
18:29:26.359375,15.80
18:29:26.375000,13.46
18:29:26.390625,11.26
18:29:26.406250,9.09
18:29:26.421875,6.91
18:29:26.437500,4.80
18:29:26.453125,2.92
18:29:26.468750,1.43
18:29:26.484375,0.42
18:29:26.500000,-0.17
18:29:26.515625,-0.58
18:29:26.531250,-1.10
18:29:26.546875,-1.96
18:29:26.562500,-3.24
18:29:26.578125,-4.77
18:29:26.593750,-6.22
18:29:26.609375,-7.24
18:29:26.625000,-7.62
18:29:26.640625,-7.47
18:29:26.656250,-7.13
18:29:26.671875,-7.08
18:29:26.687500,-7.73
18:29:26.703125,-9.15
18:29:26.718750,-11.09
18:29:26.734375,-13.01
18:29:26.750000,-14.40
18:29:26.765625,-14.96
18:29:26.781250,-14.76
18:29:26.796875,-14.20
18:29:26.812500,-13.77
18:29:26.828125,-13.93
18:29:26.843750,-15.00
18:29:26.859375,-17.19
18:29:26.875000,-20.49
18:29:26.890625,-24.42
18:29:26.906250,-27.85
18:29:26.921875,-29.04
18:29:26.937500,-26.19
18:29:26.953125,-18.31
18:29:26.968750,-5.99
18:29:26.984375,8.60
18:29:27,22.34
18:29:27.015625,32.49
18:29:27.031250,37.71
18:29:27.046875,38.46
18:29:27.062500,36.34
18:29:27.078125,33.16
18:29:27.093750,30.00
18:29:27.109375,27.00
18:29:27.125000,23.87
18:29:27.140625,20.42
18:29:27.156250,16.94
18:29:27.171875,14.03
18:29:27.187500,12.21
18:29:27.203125,11.51
18:29:27.218750,11.50
18:29:27.234375,11.56
18:29:27.250000,11.19
18:29:27.265625,10.32
18:29:27.281250,9.26
18:29:27.296875,8.45
18:29:27.312500,8.20
18:29:27.328125,8.58
18:29:27.343750,9.35
18:29:27.359375,10.16
18:29:27.375000,10.64
18:29:27.390625,10.60
18:29:27.406250,10.01
18:29:27.421875,9.04
18:29:27.437500,7.96
18:29:27.453125,7.07
18:29:27.468750,6.58
18:29:27.484375,6.57
18:29:27.500000,6.97
18:29:27.515625,7.61
18:29:27.531250,8.40
18:29:27.546875,9.32
18:29:27.562500,10.46
18:29:27.578125,11.91
18:29:27.593750,13.67
18:29:27.609375,15.56
18:29:27.625000,17.29
18:29:27.640625,18.53
18:29:27.656250,19.06
18:29:27.671875,18.78
18:29:27.687500,17.67
18:29:27.703125,15.75
18:29:27.718750,13.13
18:29:27.734375,9.75
18:29:27.750000,5.73
18:29:27.765625,1.40
18:29:27.781250,-2.84
18:29:27.796875,-6.60
18:29:27.812500,-9.65
18:29:27.828125,-11.97
18:29:27.843750,-13.65
18:29:27.859375,-14.88
18:29:27.875000,-15.79
18:29:27.890625,-16.43
18:29:27.906250,-16.83
18:29:27.921875,-16.96
18:29:27.937500,-16.81
18:29:27.953125,-16.36
18:29:27.968750,-15.63
18:29:27.984375,-14.65
18:29:28,-13.54
18:29:28.015625,-12.47
18:29:28.031250,-11.58
18:29:28.046875,-10.95
18:29:28.062500,-10.54
18:29:28.078125,-10.24
18:29:28.093750,-9.89
18:29:28.109375,-9.40
18:29:28.125000,-8.76
18:29:28.140625,-8.03
18:29:28.156250,-7.36
18:29:28.171875,-6.82
18:29:28.187500,-6.51
18:29:28.203125,-6.45
18:29:28.218750,-6.66
18:29:28.234375,-7.05
18:29:28.250000,-7.56
18:29:28.265625,-8.04
18:29:28.281250,-8.31
18:29:28.296875,-8.15
18:29:28.312500,-7.39
18:29:28.328125,-5.98
18:29:28.343750,-4.03
18:29:28.359375,-1.85
18:29:28.375000,0.16
18:29:28.390625,1.63
18:29:28.406250,2.35
18:29:28.421875,2.34
18:29:28.437500,1.83
18:29:28.453125,1.16
18:29:28.468750,0.60
18:29:28.484375,0.29
18:29:28.500000,0.15
18:29:28.515625,0.02
18:29:28.531250,-0.27
18:29:28.546875,-0.75
18:29:28.562500,-1.31
18:29:28.578125,-1.71
18:29:28.593750,-1.71
18:29:28.609375,-1.20
18:29:28.625000,-0.31
18:29:28.640625,0.77
18:29:28.656250,1.81
18:29:28.671875,2.76
18:29:28.687500,3.75
18:29:28.703125,5.00
18:29:28.718750,6.49
18:29:28.734375,8.12
18:29:28.750000,9.59
18:29:28.765625,10.57
18:29:28.781250,10.81
18:29:28.796875,10.32
18:29:28.812500,9.32
18:29:28.828125,8.10
18:29:28.843750,6.92
18:29:28.859375,5.84
18:29:28.875000,4.86
18:29:28.890625,3.88
18:29:28.906250,2.80
18:29:28.921875,1.65
18:29:28.937500,0.45
18:29:28.953125,-0.77
18:29:28.968750,-2.07
18:29:28.984375,-3.56
18:29:29,-5.32
18:29:29.015625,-7.30
18:29:29.031250,-9.28
18:29:29.046875,-10.87
18:29:29.062500,-11.63
18:29:29.078125,-11.20
18:29:29.093750,-9.47
18:29:29.109375,-6.64
18:29:29.125000,-3.26
18:29:29.140625,-0.04
18:29:29.156250,2.36
18:29:29.171875,3.56
18:29:29.187500,3.52
18:29:29.203125,2.52
18:29:29.218750,1.05
18:29:29.234375,-0.38
18:29:29.250000,-1.31
18:29:29.265625,-1.42
18:29:29.281250,-0.57
18:29:29.296875,1.19
18:29:29.312500,3.65
18:29:29.328125,6.45
18:29:29.343750,9.22
18:29:29.359375,11.57
18:29:29.375000,13.19
18:29:29.390625,13.80
18:29:29.406250,13.24
18:29:29.421875,11.50
18:29:29.437500,8.83
18:29:29.453125,5.75
18:29:29.468750,2.92
18:29:29.484375,0.89
18:29:29.500000,-0.11
18:29:29.515625,-0.29
18:29:29.531250,-0.16
18:29:29.546875,-0.30
18:29:29.562500,-1.04
18:29:29.578125,-2.36
18:29:29.593750,-3.94
18:29:29.609375,-5.44
18:29:29.625000,-6.63
18:29:29.640625,-7.56
18:29:29.656250,-8.45
18:29:29.671875,-9.57
18:29:29.687500,-11.13
18:29:29.703125,-13.14
18:29:29.718750,-15.39
18:29:29.734375,-17.56
18:29:29.750000,-19.25
18:29:29.765625,-20.07
18:29:29.781250,-19.85
18:29:29.796875,-18.57
18:29:29.812500,-16.47
18:29:29.828125,-13.87
18:29:29.843750,-11.10
18:29:29.859375,-8.35
18:29:29.875000,-5.69
18:29:29.890625,-3.12
18:29:29.906250,-0.70
18:29:29.921875,1.43
18:29:29.937500,3.08
18:29:29.953125,4.05
18:29:29.968750,4.36
18:29:29.984375,4.23
18:29:30,4.07
18:29:30.015625,4.32
18:29:30.031250,5.28
18:29:30.046875,6.95
18:29:30.062500,9.06
18:29:30.078125,11.17
18:29:30.093750,12.86
18:29:30.109375,13.89
18:29:30.125000,14.21
18:29:30.140625,13.88
18:29:30.156250,13.01
18:29:30.171875,11.66
18:29:30.187500,9.88
18:29:30.203125,7.72
18:29:30.218750,5.36
18:29:30.234375,3.05
18:29:30.250000,1.00
18:29:30.265625,-0.69
18:29:30.281250,-2.08
18:29:30.296875,-3.32
18:29:30.312500,-4.49
18:29:30.328125,-5.58
18:29:30.343750,-6.45
18:29:30.359375,-7.00
18:29:30.375000,-7.27
18:29:30.390625,-7.50
18:29:30.406250,-8.05
18:29:30.421875,-9.20
18:29:30.437500,-10.94
18:29:30.453125,-12.97
18:29:30.468750,-14.77
18:29:30.484375,-15.78
18:29:30.500000,-15.65
18:29:30.515625,-14.29
18:29:30.531250,-11.88
18:29:30.546875,-8.78
18:29:30.562500,-5.36
18:29:30.578125,-1.92
18:29:30.593750,1.34
18:29:30.609375,4.35
18:29:30.625000,7.11
18:29:30.640625,9.63
18:29:30.656250,11.91
18:29:30.671875,13.92
18:29:30.687500,15.64
18:29:30.703125,17.04
18:29:30.718750,18.11
18:29:30.734375,18.85
18:29:30.750000,19.27
18:29:30.765625,19.41
18:29:30.781250,19.31
18:29:30.796875,19.06
18:29:30.812500,18.75
18:29:30.828125,18.48
18:29:30.843750,18.35
18:29:30.859375,18.47
18:29:30.875000,18.92
18:29:30.890625,19.76
18:29:30.906250,20.93
18:29:30.921875,22.25
18:29:30.937500,23.45
18:29:30.953125,24.26
18:29:30.968750,24.58
18:29:30.984375,24.48
18:29:31,24.14
18:29:31.015625,23.76
18:29:31.031250,23.42
18:29:31.046875,23.08
18:29:31.062500,22.60
18:29:31.078125,21.87
18:29:31.093750,20.81
18:29:31.109375,19.32
18:29:31.125000,17.26
18:29:31.140625,14.45
18:29:31.156250,10.80
18:29:31.171875,6.49
18:29:31.187500,1.98
18:29:31.203125,-2.02
18:29:31.218750,-4.87
18:29:31.234375,-6.18
18:29:31.250000,-6.00
18:29:31.265625,-4.77
18:29:31.281250,-3.16
18:29:31.296875,-1.82
18:29:31.312500,-1.16
18:29:31.328125,-1.31
18:29:31.343750,-2.17
18:29:31.359375,-3.54
18:29:31.375000,-5.27
18:29:31.390625,-7.32
18:29:31.406250,-9.71
18:29:31.421875,-12.43
18:29:31.437500,-15.33
18:29:31.453125,-18.10
18:29:31.468750,-20.36
18:29:31.484375,-21.82
18:29:31.500000,-22.37
18:29:31.515625,-22.16
18:29:31.531250,-21.49
18:29:31.546875,-20.66
18:29:31.562500,-19.89
18:29:31.578125,-19.20
18:29:31.593750,-18.52
18:29:31.609375,-17.73
18:29:31.625000,-16.79
18:29:31.640625,-15.77
18:29:31.656250,-14.83
18:29:31.671875,-14.14
18:29:31.687500,-13.89
18:29:31.703125,-14.22
18:29:31.718750,-15.24
18:29:31.734375,-17.01
18:29:31.750000,-19.54
18:29:31.765625,-22.72
18:29:31.781250,-26.34
18:29:31.796875,-30.15
18:29:31.812500,-33.90
18:29:31.828125,-37.44
18:29:31.843750,-40.58
18:29:31.859375,-43.10
18:29:31.875000,-44.63
18:29:31.890625,-44.73
18:29:31.906250,-42.93
18:29:31.921875,-38.98
18:29:31.937500,-32.93
18:29:31.953125,-25.17
18:29:31.968750,-16.38
18:29:31.984375,-7.33
18:29:32,1.27
18:29:32.015625,8.87
18:29:32.031250,15.16
18:29:32.046875,20.07
18:29:32.062500,23.69
18:29:32.078125,26.22
18:29:32.093750,27.87
18:29:32.109375,28.84
18:29:32.125000,29.29
18:29:32.140625,29.31
18:29:32.156250,28.96
18:29:32.171875,28.29
18:29:32.187500,27.32
18:29:32.203125,26.05
18:29:32.218750,24.46
18:29:32.234375,22.51
18:29:32.250000,20.22
18:29:32.265625,17.70
18:29:32.281250,15.20
18:29:32.296875,13.03
18:29:32.312500,11.44
18:29:32.328125,10.46
18:29:32.343750,9.87
18:29:32.359375,9.30
18:29:32.375000,8.36
18:29:32.390625,6.81
18:29:32.406250,4.64
18:29:32.421875,2.04
18:29:32.437500,-0.75
18:29:32.453125,-3.46
18:29:32.468750,-5.92
18:29:32.484375,-8.02
18:29:32.500000,-9.76
18:29:32.515625,-11.27
18:29:32.531250,-12.83
18:29:32.546875,-14.74
18:29:32.562500,-17.22
18:29:32.578125,-20.20
18:29:32.593750,-23.28
18:29:32.609375,-25.84
18:29:32.625000,-27.22
18:29:32.640625,-26.98
18:29:32.656250,-25.08
18:29:32.671875,-21.80
18:29:32.687500,-17.64
18:29:32.703125,-13.10
18:29:32.718750,-8.56
18:29:32.734375,-4.27
18:29:32.750000,-0.35
18:29:32.765625,3.09
18:29:32.781250,5.97
18:29:32.796875,8.21
18:29:32.812500,9.80
18:29:32.828125,10.80
18:29:32.843750,11.38
18:29:32.859375,11.70
18:29:32.875000,11.91
18:29:32.890625,12.06
18:29:32.906250,12.12
18:29:32.921875,12.01
18:29:32.937500,11.61
18:29:32.953125,10.84
18:29:32.968750,9.75
18:29:32.984375,8.48
18:29:33,7.26
18:29:33.015625,6.32
18:29:33.031250,5.74
18:29:33.046875,5.40
18:29:33.062500,4.97
18:29:33.078125,4.04
18:29:33.093750,2.37
18:29:33.109375,-0.06
18:29:33.125000,-2.97
18:29:33.140625,-5.96
18:29:33.156250,-8.66
18:29:33.171875,-10.91
18:29:33.187500,-12.71
18:29:33.203125,-14.23
18:29:33.218750,-15.71
18:29:33.234375,-17.35
18:29:33.250000,-19.33
18:29:33.265625,-21.75
18:29:33.281250,-24.57
18:29:33.296875,-27.59
18:29:33.312500,-30.35
18:29:33.328125,-32.19
18:29:33.343750,-32.42
18:29:33.359375,-30.53
18:29:33.375000,-26.49
18:29:33.390625,-20.69
18:29:33.406250,-13.95
18:29:33.421875,-7.17
18:29:33.437500,-1.12
18:29:33.453125,3.78
18:29:33.468750,7.49
18:29:33.484375,10.18
18:29:33.500000,12.14
18:29:33.515625,13.53
18:29:33.531250,14.46
18:29:33.546875,14.97
18:29:33.562500,15.15
18:29:33.578125,15.23
18:29:33.593750,15.51
18:29:33.609375,16.29
18:29:33.625000,17.70
18:29:33.640625,19.70
18:29:33.656250,22.13
18:29:33.671875,24.93
18:29:33.687500,28.22
18:29:33.703125,32.32
18:29:33.718750,37.61
18:29:33.734375,44.28
18:29:33.750000,52.11
18:29:33.765625,60.50
18:29:33.781250,68.61
18:29:33.796875,75.58
18:29:33.812500,80.79
18:29:33.828125,83.95
18:29:33.843750,85.05
18:29:33.859375,84.19
18:29:33.875000,81.42
18:29:33.890625,76.69
18:29:33.906250,69.92
18:29:33.921875,61.16
18:29:33.937500,50.81
18:29:33.953125,39.58
18:29:33.968750,28.42
18:29:33.984375,18.17
18:29:34,9.35
18:29:34.015625,2.10
18:29:34.031250,-3.60
18:29:34.046875,-7.77
18:29:34.062500,-10.23
18:29:34.078125,-10.75
18:29:34.093750,-9.26
18:29:34.109375,-6.15
18:29:34.125000,-2.31
18:29:34.140625,1.12
18:29:34.156250,3.02
18:29:34.171875,2.72
18:29:34.187500,0.10
18:29:34.203125,-4.45
18:29:34.218750,-10.28
18:29:34.234375,-16.68
18:29:34.250000,-23.01
18:29:34.265625,-28.79
18:29:34.281250,-33.63
18:29:34.296875,-37.19
18:29:34.312500,-39.18
18:29:34.328125,-39.49
18:29:34.343750,-38.28
18:29:34.359375,-36.02
18:29:34.375000,-33.43
18:29:34.390625,-31.19
18:29:34.406250,-29.77
18:29:34.421875,-29.17
18:29:34.437500,-29.08
18:29:34.453125,-29.04
18:29:34.468750,-28.77
18:29:34.484375,-28.37
18:29:34.500000,-28.31
18:29:34.515625,-29.11
18:29:34.531250,-31.10
18:29:34.546875,-34.19
18:29:34.562500,-37.82
18:29:34.578125,-41.17
18:29:34.593750,-43.51
18:29:34.609375,-44.46
18:29:34.625000,-44.05
18:29:34.640625,-42.72
18:29:34.656250,-41.09
18:29:34.671875,-39.74
18:29:34.687500,-39.08
18:29:34.703125,-39.26
18:29:34.718750,-40.10
18:29:34.734375,-41.19
18:29:34.750000,-41.89
18:29:34.765625,-41.56
18:29:34.781250,-39.70
18:29:34.796875,-36.14
18:29:34.812500,-31.07
18:29:34.828125,-24.92
18:29:34.843750,-18.23
18:29:34.859375,-11.42
18:29:34.875000,-4.79
18:29:34.890625,1.51
18:29:34.906250,7.31
18:29:34.921875,12.43
18:29:34.937500,16.67
18:29:34.953125,19.89
18:29:34.968750,22.04
18:29:34.984375,23.25
18:29:35,23.73
18:29:35.015625,23.77
18:29:35.031250,23.63
18:29:35.046875,23.57
18:29:35.062500,23.73
18:29:35.078125,24.24
18:29:35.093750,25.15
18:29:35.109375,26.49
18:29:35.125000,28.26
18:29:35.140625,30.40
18:29:35.156250,32.75
18:29:35.171875,35.14
18:29:35.187500,37.32
18:29:35.203125,39.12
18:29:35.218750,40.41
18:29:35.234375,41.16
18:29:35.250000,41.40
18:29:35.265625,41.23
18:29:35.281250,40.86
18:29:35.296875,40.58
18:29:35.312500,40.71
18:29:35.328125,41.49
18:29:35.343750,42.98
18:29:35.359375,44.97
18:29:35.375000,47.05
18:29:35.390625,48.71
18:29:35.406250,49.57
18:29:35.421875,49.48
18:29:35.437500,48.57
18:29:35.453125,47.15
18:29:35.468750,45.55
18:29:35.484375,44.08
18:29:35.500000,42.88
18:29:35.515625,41.92
18:29:35.531250,40.90
18:29:35.546875,39.22
18:29:35.562500,36.05
18:29:35.578125,30.56
18:29:35.593750,22.34
18:29:35.609375,11.74
18:29:35.625000,0.12
18:29:35.640625,-10.51
18:29:35.656250,-18.11
18:29:35.671875,-21.40
18:29:35.687500,-20.35
18:29:35.703125,-16.16
18:29:35.718750,-10.64
18:29:35.734375,-5.50
18:29:35.750000,-1.66
18:29:35.765625,0.83
18:29:35.781250,2.39
18:29:35.796875,3.30
18:29:35.812500,3.31
18:29:35.828125,1.61
18:29:35.843750,-2.68
18:29:35.859375,-9.96
18:29:35.875000,-19.74
18:29:35.890625,-30.73
18:29:35.906250,-41.22
18:29:35.921875,-49.71
18:29:35.937500,-55.46
18:29:35.953125,-58.65
18:29:35.968750,-60.36
18:29:35.984375,-62.14
18:29:36,-65.50
18:29:36.015625,-71.39
18:29:36.031250,-79.81
18:29:36.046875,-89.79
18:29:36.062500,-99.71
18:29:36.078125,-107.83
18:29:36.093750,-112.97
18:29:36.109375,-114.87
18:29:36.125000,-114.18
18:29:36.140625,-112.00
18:29:36.156250,-109.26
18:29:36.171875,-106.40
18:29:36.187500,-103.35
18:29:36.203125,-99.89
18:29:36.218750,-96.00
18:29:36.234375,-92.10
18:29:36.250000,-88.83
18:29:36.265625,-86.73
18:29:36.281250,-85.90
18:29:36.296875,-85.93
18:29:36.312500,-86.04
18:29:36.328125,-85.40
18:29:36.343750,-83.52
18:29:36.359375,-80.36
18:29:36.375000,-76.44
18:29:36.390625,-72.58
18:29:36.406250,-69.58
18:29:36.421875,-67.87
18:29:36.437500,-67.30
18:29:36.453125,-67.05
18:29:36.468750,-65.91
18:29:36.484375,-62.66
18:29:36.500000,-56.49
18:29:36.515625,-47.33
18:29:36.531250,-35.93
18:29:36.546875,-23.63
18:29:36.562500,-11.94
18:29:36.578125,-2.06
18:29:36.593750,5.40
18:29:36.609375,10.41
18:29:36.625000,13.37
18:29:36.640625,14.75
18:29:36.656250,14.95
18:29:36.671875,14.39
18:29:36.687500,13.71
18:29:36.703125,13.95
18:29:36.718750,16.48
18:29:36.734375,22.55
18:29:36.750000,32.76
18:29:36.765625,46.59
18:29:36.781250,62.52
18:29:36.796875,78.41
18:29:36.812500,92.26
18:29:36.828125,102.81
18:29:36.843750,109.82
18:29:36.859375,113.79
18:29:36.875000,115.57
18:29:36.890625,115.90
18:29:36.906250,115.03
18:29:36.921875,112.77
18:29:36.937500,108.76
18:29:36.953125,102.81
18:29:36.968750,95.16
18:29:36.984375,86.55
18:29:37,77.99
18:29:37.015625,70.40
18:29:37.031250,64.42
18:29:37.046875,60.27
18:29:37.062500,57.99
18:29:37.078125,57.58
18:29:37.093750,59.08
18:29:37.109375,62.37
18:29:37.125000,66.93
18:29:37.140625,71.67
18:29:37.156250,75.09
18:29:37.171875,75.84
18:29:37.187500,73.30
18:29:37.203125,67.92
18:29:37.218750,61.09
18:29:37.234375,54.40
18:29:37.250000,48.92
18:29:37.265625,44.66
18:29:37.281250,40.70
18:29:37.296875,35.86
18:29:37.312500,29.41
18:29:37.328125,21.54
18:29:37.343750,13.29
18:29:37.359375,5.98
18:29:37.375000,0.63
18:29:37.390625,-2.33
18:29:37.406250,-3.03
18:29:37.421875,-1.81
18:29:37.437500,0.98
18:29:37.453125,5.05
18:29:37.468750,9.90
18:29:37.484375,14.58
18:29:37.500000,17.78
18:29:37.515625,18.21
18:29:37.531250,15.15
18:29:37.546875,8.86
18:29:37.562500,0.48
18:29:37.578125,-8.41
18:29:37.593750,-16.48
18:29:37.609375,-23.23
18:29:37.625000,-28.96
18:29:37.640625,-34.35
18:29:37.656250,-39.87
18:29:37.671875,-45.29
18:29:37.687500,-49.62
18:29:37.703125,-51.60
18:29:37.718750,-50.34
18:29:37.734375,-45.65
18:29:37.750000,-38.19
18:29:37.765625,-29.08
18:29:37.781250,-19.48
18:29:37.796875,-10.36
18:29:37.812500,-2.48
18:29:37.828125,3.58
18:29:37.843750,7.39
18:29:37.859375,8.78
18:29:37.875000,7.99
18:29:37.890625,5.68
18:29:37.906250,2.66
18:29:37.921875,-0.41
18:29:37.937500,-3.32
18:29:37.953125,-6.11
18:29:37.968750,-8.69
18:29:37.984375,-10.46
18:29:38,-10.36
18:29:38.015625,-7.21
18:29:38.031250,-0.43
18:29:38.046875,9.58
18:29:38.062500,21.46
18:29:38.078125,33.50
18:29:38.093750,44.39
18:29:38.109375,53.74
18:29:38.125000,62.04
18:29:38.140625,70.13
18:29:38.156250,78.52
18:29:38.171875,86.83
18:29:38.187500,93.88
18:29:38.203125,98.05
18:29:38.218750,97.99
18:29:38.234375,93.23
18:29:38.250000,84.30
18:29:38.265625,72.59
18:29:38.281250,59.84
18:29:38.296875,47.77
18:29:38.312500,37.60
18:29:38.328125,29.99
18:29:38.343750,25.02
18:29:38.359375,22.18
18:29:38.375000,20.44
18:29:38.390625,18.22
18:29:38.406250,13.65
18:29:38.421875,4.93
18:29:38.437500,-9.15
18:29:38.453125,-28.63
18:29:38.468750,-52.15
18:29:38.484375,-77.12
18:29:38.500000,-100.27
18:29:38.515625,-118.62
18:29:38.531250,-130.23
18:29:38.546875,-134.70
18:29:38.562500,-133.10
18:29:38.578125,-127.38
18:29:38.593750,-119.61
18:29:38.609375,-111.23
18:29:38.625000,-102.77
18:29:38.640625,-94.08
18:29:38.656250,-84.80
18:29:38.671875,-74.86
18:29:38.687500,-64.77
18:29:38.703125,-55.45
18:29:38.718750,-47.79
18:29:38.734375,-42.23
18:29:38.750000,-38.54
18:29:38.765625,-36.03
18:29:38.781250,-33.96
18:29:38.796875,-31.95
18:29:38.812500,-30.15
18:29:38.828125,-29.16
18:29:38.843750,-29.64
18:29:38.859375,-31.90
18:29:38.875000,-35.73
18:29:38.890625,-40.48
18:29:38.906250,-45.30
18:29:38.921875,-49.34
18:29:38.937500,-51.95
18:29:38.953125,-52.66
18:29:38.968750,-51.14
18:29:38.984375,-47.23
18:29:39,-41.05
18:29:39.015625,-33.08
18:29:39.031250,-24.20
18:29:39.046875,-15.50
18:29:39.062500,-7.89
18:29:39.078125,-1.85
18:29:39.093750,2.62
18:29:39.109375,5.89
18:29:39.125000,8.47
18:29:39.140625,10.73
18:29:39.156250,12.91
18:29:39.171875,15.10
18:29:39.187500,17.32
18:29:39.203125,19.53
18:29:39.218750,21.61
18:29:39.234375,23.35
18:29:39.250000,24.52
18:29:39.265625,24.98
18:29:39.281250,24.85
18:29:39.296875,24.50
18:29:39.312500,24.38
18:29:39.328125,24.91
18:29:39.343750,26.24
18:29:39.359375,28.23
18:29:39.375000,30.43
18:29:39.390625,32.26
18:29:39.406250,33.16
18:29:39.421875,32.74
18:29:39.437500,30.96
18:29:39.453125,28.08
18:29:39.468750,24.61
18:29:39.484375,21.14
18:29:39.500000,18.16
18:29:39.515625,15.95
18:29:39.531250,14.54
18:29:39.546875,13.74
18:29:39.562500,13.19
18:29:39.578125,12.55
18:29:39.593750,11.53
18:29:39.609375,10.07
18:29:39.625000,8.37
18:29:39.640625,6.82
18:29:39.656250,5.83
18:29:39.671875,5.66
18:29:39.687500,6.27
18:29:39.703125,7.31
18:29:39.718750,8.25
18:29:39.734375,8.61
18:29:39.750000,8.15
18:29:39.765625,6.92
18:29:39.781250,5.23
18:29:39.796875,3.48
18:29:39.812500,1.97
18:29:39.828125,0.81
18:29:39.843750,-0.09
18:29:39.859375,-0.96
18:29:39.875000,-2.03
18:29:39.890625,-3.44
18:29:39.906250,-5.14
18:29:39.921875,-6.91
18:29:39.937500,-8.38
18:29:39.953125,-9.14
18:29:39.968750,-8.87
18:29:39.984375,-7.45
18:29:40,-4.99
18:29:40.015625,-1.84
18:29:40.031250,1.55
18:29:40.046875,4.73
18:29:40.062500,7.37
18:29:40.078125,9.35
18:29:40.093750,10.70
18:29:40.109375,11.58
18:29:40.125000,12.17
18:29:40.140625,12.57
18:29:40.156250,12.82
18:29:40.171875,12.87
18:29:40.187500,12.69
18:29:40.203125,12.30
18:29:40.218750,11.78
18:29:40.234375,11.27
18:29:40.250000,10.90
18:29:40.265625,10.69
18:29:40.281250,10.63
18:29:40.296875,10.67
18:29:40.312500,10.79
18:29:40.328125,11.04
18:29:40.343750,11.46
18:29:40.359375,12.00
18:29:40.375000,12.58
18:29:40.390625,13.04
18:29:40.406250,13.30
18:29:40.421875,13.33
18:29:40.437500,13.18
18:29:40.453125,12.85
18:29:40.468750,12.26
18:29:40.484375,11.30
18:29:40.500000,9.92
18:29:40.515625,8.20
18:29:40.531250,6.35
18:29:40.546875,4.62
18:29:40.562500,3.18
18:29:40.578125,2.02
18:29:40.593750,1.02
18:29:40.609375,-0.00
18:29:40.625000,-1.13
18:29:40.640625,-2.27
18:29:40.656250,-3.21
18:29:40.671875,-3.67
18:29:40.687500,-3.42
18:29:40.703125,-2.36
18:29:40.718750,-0.54
18:29:40.734375,1.90
18:29:40.750000,4.74
18:29:40.765625,7.76
18:29:40.781250,10.76
18:29:40.796875,13.53
18:29:40.812500,15.83
18:29:40.828125,17.47
18:29:40.843750,18.36
18:29:40.859375,18.52
18:29:40.875000,18.16
18:29:40.890625,17.63
18:29:40.906250,17.32
18:29:40.921875,17.54
18:29:40.937500,18.38
18:29:40.953125,19.69
18:29:40.968750,21.06
18:29:40.984375,21.96
18:29:41,21.95
18:29:41.015625,20.92
18:29:41.031250,19.20
18:29:41.046875,17.48
18:29:41.062500,16.50
18:29:41.078125,16.74
18:29:41.093750,18.15
18:29:41.109375,20.12
18:29:41.125000,21.71
18:29:41.140625,21.98
18:29:41.156250,20.32
18:29:41.171875,16.63
18:29:41.187500,11.30
18:29:41.203125,5.02
18:29:41.218750,-1.41
18:29:41.234375,-7.36
18:29:41.250000,-12.43
18:29:41.265625,-16.54
18:29:41.281250,-19.86
18:29:41.296875,-22.74
18:29:41.312500,-25.57
18:29:41.328125,-28.70
18:29:41.343750,-32.41
18:29:41.359375,-36.83
18:29:41.375000,-41.86
18:29:41.390625,-47.13
18:29:41.406250,-52.07
18:29:41.421875,-55.98
18:29:41.437500,-58.33
18:29:41.453125,-58.86
18:29:41.468750,-57.75
18:29:41.484375,-55.52
18:29:41.500000,-52.80
18:29:41.515625,-50.12
18:29:41.531250,-47.72
18:29:41.546875,-45.55
18:29:41.562500,-43.37
18:29:41.578125,-40.87
18:29:41.593750,-37.68
18:29:41.609375,-33.36
18:29:41.625000,-27.41
18:29:41.640625,-19.43
18:29:41.656250,-9.28
18:29:41.671875,2.57
18:29:41.687500,15.14
18:29:41.703125,27.13
18:29:41.718750,37.35
18:29:41.734375,45.13
18:29:41.750000,50.40
18:29:41.765625,53.61
18:29:41.781250,55.35
18:29:41.796875,56.07
18:29:41.812500,55.95
18:29:41.828125,55.01
18:29:41.843750,53.19
18:29:41.859375,50.43
18:29:41.875000,46.75
18:29:41.890625,42.21
18:29:41.906250,37.06
18:29:41.921875,31.78
18:29:41.937500,27.03
18:29:41.953125,23.34
18:29:41.968750,20.83
18:29:41.984375,19.06
18:29:42,17.16
18:29:42.015625,14.34
18:29:42.031250,10.37
18:29:42.046875,5.72
18:29:42.062500,1.29
18:29:42.078125,-2.13
18:29:42.093750,-4.29
18:29:42.109375,-5.54
18:29:42.125000,-6.48
18:29:42.140625,-7.54
18:29:42.156250,-8.69
18:29:42.171875,-9.54
18:29:42.187500,-9.68
18:29:42.203125,-9.00
18:29:42.218750,-7.78
18:29:42.234375,-6.57
18:29:42.250000,-5.85
18:29:42.265625,-5.85
18:29:42.281250,-6.52
18:29:42.296875,-7.60
18:29:42.312500,-8.87
18:29:42.328125,-10.25
18:29:42.343750,-11.85
18:29:42.359375,-13.79
18:29:42.375000,-16.10
18:29:42.390625,-18.59
18:29:42.406250,-20.84
18:29:42.421875,-22.37
18:29:42.437500,-22.85
18:29:42.453125,-22.27
18:29:42.468750,-21.00
18:29:42.484375,-19.53
18:29:42.500000,-18.32
18:29:42.515625,-17.58
18:29:42.531250,-17.23
18:29:42.546875,-17.03
18:29:42.562500,-16.79
18:29:42.578125,-16.46
18:29:42.593750,-16.14
18:29:42.609375,-15.97
18:29:42.625000,-16.04
18:29:42.640625,-16.35
18:29:42.656250,-16.84
18:29:42.671875,-17.47
18:29:42.687500,-18.19
18:29:42.703125,-18.98
18:29:42.718750,-19.86
18:29:42.734375,-20.87
18:29:42.750000,-22.11
18:29:42.765625,-23.68
18:29:42.781250,-25.65
18:29:42.796875,-27.98
18:29:42.812500,-30.48
18:29:42.828125,-32.83
18:29:42.843750,-34.73
18:29:42.859375,-35.94
18:29:42.875000,-36.38
18:29:42.890625,-36.07
18:29:42.906250,-35.08
18:29:42.921875,-33.34
18:29:42.937500,-30.64
18:29:42.953125,-26.74
18:29:42.968750,-21.46
18:29:42.984375,-14.85
18:29:43,-7.17
18:29:43.015625,1.21
18:29:43.031250,9.85
18:29:43.046875,18.29
18:29:43.062500,25.97
18:29:43.078125,32.24
18:29:43.093750,36.46
18:29:43.109375,38.33
18:29:43.125000,38.08
18:29:43.140625,36.52
18:29:43.156250,34.79
18:29:43.171875,33.88
18:29:43.187500,34.21
18:29:43.203125,35.51
18:29:43.218750,37.02
18:29:43.234375,37.97
18:29:43.250000,37.92
18:29:43.265625,36.87
18:29:43.281250,35.09
18:29:43.296875,32.86
18:29:43.312500,30.32
18:29:43.328125,27.47
18:29:43.343750,24.33
18:29:43.359375,21.08
18:29:43.375000,18.03
18:29:43.390625,15.48
18:29:43.406250,13.58
18:29:43.421875,12.27
18:29:43.437500,11.32
18:29:43.453125,10.61
18:29:43.468750,10.17
18:29:43.484375,10.20
18:29:43.500000,10.91
18:29:43.515625,12.34
18:29:43.531250,14.21
18:29:43.546875,16.06
18:29:43.562500,17.43
18:29:43.578125,18.10
18:29:43.593750,18.19
18:29:43.609375,17.97
18:29:43.625000,17.73
18:29:43.640625,17.53
18:29:43.656250,17.23
18:29:43.671875,16.62
18:29:43.687500,15.59
18:29:43.703125,14.23
18:29:43.718750,12.80
18:29:43.734375,11.55
18:29:43.750000,10.58
18:29:43.765625,9.79
18:29:43.781250,8.97
18:29:43.796875,7.99
18:29:43.812500,6.80
18:29:43.828125,5.39
18:29:43.843750,3.62
18:29:43.859375,1.21
18:29:43.875000,-2.18
18:29:43.890625,-6.70
18:29:43.906250,-12.04
18:29:43.921875,-17.47
18:29:43.937500,-22.07
18:29:43.953125,-25.18
18:29:43.968750,-26.62
18:29:43.984375,-26.72
18:29:44,-26.08
18:29:44.015625,-25.13
18:29:44.031250,-24.03
18:29:44.046875,-22.69
18:29:44.062500,-21.05
18:29:44.078125,-19.25
18:29:44.093750,-17.66
18:29:44.109375,-16.71
18:29:44.125000,-16.59
18:29:44.140625,-17.18
18:29:44.156250,-18.04
18:29:44.171875,-18.66
18:29:44.187500,-18.68
18:29:44.203125,-17.94
18:29:44.218750,-16.59
18:29:44.234375,-14.96
18:29:44.250000,-13.55
18:29:44.265625,-12.83
18:29:44.281250,-13.12
18:29:44.296875,-14.45
18:29:44.312500,-16.51
18:29:44.328125,-18.75
18:29:44.343750,-20.47
18:29:44.359375,-21.13
18:29:44.375000,-20.39
18:29:44.390625,-18.18
18:29:44.406250,-14.65
18:29:44.421875,-10.10
18:29:44.437500,-4.92
18:29:44.453125,0.46
18:29:44.468750,5.59
18:29:44.484375,9.99
18:29:44.500000,13.27
18:29:44.515625,15.13
18:29:44.531250,15.44
18:29:44.546875,14.34
18:29:44.562500,12.15
18:29:44.578125,9.44
18:29:44.593750,6.86
18:29:44.609375,4.96
18:29:44.625000,4.11
18:29:44.640625,4.33
18:29:44.656250,5.39
18:29:44.671875,6.89
18:29:44.687500,8.35
18:29:44.703125,9.41
18:29:44.718750,9.85
18:29:44.734375,9.62
18:29:44.750000,8.82
18:29:44.765625,7.65
18:29:44.781250,6.37
18:29:44.796875,5.19
18:29:44.812500,4.21
18:29:44.828125,3.43
18:29:44.843750,2.72
18:29:44.859375,1.97
18:29:44.875000,1.13
18:29:44.890625,0.23
18:29:44.906250,-0.65
18:29:44.921875,-1.48
18:29:44.937500,-2.30
18:29:44.953125,-3.20
18:29:44.968750,-4.30
18:29:44.984375,-5.64
18:29:45,-7.21
18:29:45.015625,-8.91
18:29:45.031250,-10.63
18:29:45.046875,-12.14
18:29:45.062500,-13.21
18:29:45.078125,-13.54
18:29:45.093750,-12.85
18:29:45.109375,-10.98
18:29:45.125000,-8.02
18:29:45.140625,-4.32
18:29:45.156250,-0.43
18:29:45.171875,3.09
18:29:45.187500,5.88
18:29:45.203125,7.82
18:29:45.218750,9.06
18:29:45.234375,9.85
18:29:45.250000,10.32
18:29:45.265625,10.47
18:29:45.281250,10.23
18:29:45.296875,9.55
18:29:45.312500,8.57
18:29:45.328125,7.52
18:29:45.343750,6.71
18:29:45.359375,6.30
18:29:45.375000,6.26
18:29:45.390625,6.39
18:29:45.406250,6.40
18:29:45.421875,6.06
18:29:45.437500,5.34
18:29:45.453125,4.28
18:29:45.468750,2.97
18:29:45.484375,1.44
18:29:45.500000,-0.34
18:29:45.515625,-2.36
18:29:45.531250,-4.40
18:29:45.546875,-5.90
18:29:45.562500,-6.16
18:29:45.578125,-4.48
18:29:45.593750,-0.57
18:29:45.609375,5.24
18:29:45.625000,12.03
18:29:45.640625,18.54
18:29:45.656250,23.65
18:29:45.671875,26.68
18:29:45.687500,27.54
18:29:45.703125,26.61
18:29:45.718750,24.45
18:29:45.734375,21.62
18:29:45.750000,18.61
18:29:45.765625,15.83
18:29:45.781250,13.67
18:29:45.796875,12.47
18:29:45.812500,12.42
18:29:45.828125,13.41
18:29:45.843750,15.00
18:29:45.859375,16.59
18:29:45.875000,17.57
18:29:45.890625,17.62
18:29:45.906250,16.78
18:29:45.921875,15.40
18:29:45.937500,13.95
18:29:45.953125,12.78
18:29:45.968750,11.96
18:29:45.984375,11.32
18:29:46,10.59
18:29:46.015625,9.58
18:29:46.031250,8.29
18:29:46.046875,6.89
18:29:46.062500,5.59
18:29:46.078125,4.55
18:29:46.093750,3.83
18:29:46.109375,3.39
18:29:46.125000,3.20
18:29:46.140625,3.20
18:29:46.156250,3.31
18:29:46.171875,3.37
18:29:46.187500,3.18
18:29:46.203125,2.59
18:29:46.218750,1.60
18:29:46.234375,0.40
18:29:46.250000,-0.70
18:29:46.265625,-1.49
18:29:46.281250,-2.01
18:29:46.296875,-2.55
18:29:46.312500,-3.55
18:29:46.328125,-5.32
18:29:46.343750,-7.91
18:29:46.359375,-11.09
18:29:46.375000,-14.46
18:29:46.390625,-17.63
18:29:46.406250,-20.33
18:29:46.421875,-22.40
18:29:46.437500,-23.78
18:29:46.453125,-24.38
18:29:46.468750,-24.13
18:29:46.484375,-22.98
18:29:46.500000,-21.04
18:29:46.515625,-18.51
18:29:46.531250,-15.74
18:29:46.546875,-13.07
18:29:46.562500,-10.81
18:29:46.578125,-9.17
18:29:46.593750,-8.18
18:29:46.609375,-7.83
18:29:46.625000,-7.97
18:29:46.640625,-8.44
18:29:46.656250,-9.07
18:29:46.671875,-9.66
18:29:46.687500,-10.05
18:29:46.703125,-10.09
18:29:46.718750,-9.69
18:29:46.734375,-8.89
18:29:46.750000,-7.81
18:29:46.765625,-6.71
18:29:46.781250,-5.87
18:29:46.796875,-5.57
18:29:46.812500,-6.01
18:29:46.828125,-7.23
18:29:46.843750,-9.15
18:29:46.859375,-11.58
18:29:46.875000,-14.22
18:29:46.890625,-16.77
18:29:46.906250,-18.91
18:29:46.921875,-20.46
18:29:46.937500,-21.35
18:29:46.953125,-21.68
18:29:46.968750,-21.69
18:29:46.984375,-21.61
18:29:47,-21.60
18:29:47.015625,-21.69
18:29:47.031250,-21.74
18:29:47.046875,-21.53
18:29:47.062500,-20.85
18:29:47.078125,-19.51
18:29:47.093750,-17.40
18:29:47.109375,-14.48
18:29:47.125000,-10.75
18:29:47.140625,-6.28
18:29:47.156250,-1.28
18:29:47.171875,3.99
18:29:47.187500,9.19
18:29:47.203125,13.97
18:29:47.218750,18.13
18:29:47.234375,21.55
18:29:47.250000,24.29
18:29:47.265625,26.39
18:29:47.281250,27.88
18:29:47.296875,28.70
18:29:47.312500,28.75
18:29:47.328125,27.97
18:29:47.343750,26.37
18:29:47.359375,24.09
18:29:47.375000,21.36
18:29:47.390625,18.45
18:29:47.406250,15.63
18:29:47.421875,13.16
18:29:47.437500,11.22
18:29:47.453125,9.91
18:29:47.468750,9.25
18:29:47.484375,9.10
18:29:47.500000,9.25
18:29:47.515625,9.42
18:29:47.531250,9.39
18:29:47.546875,9.01
18:29:47.562500,8.24
18:29:47.578125,7.18
18:29:47.593750,6.01
18:29:47.609375,4.93
18:29:47.625000,4.06
18:29:47.640625,3.41
18:29:47.656250,2.80
18:29:47.671875,1.96
18:29:47.687500,0.62
18:29:47.703125,-1.30
18:29:47.718750,-3.60
18:29:47.734375,-5.88
18:29:47.750000,-7.57
18:29:47.765625,-8.19
18:29:47.781250,-7.50
18:29:47.796875,-5.57
18:29:47.812500,-2.70
18:29:47.828125,0.62
18:29:47.843750,3.91
18:29:47.859375,6.75
18:29:47.875000,8.85
18:29:47.890625,10.08
18:29:47.906250,10.41
18:29:47.921875,9.96
18:29:47.937500,8.95
18:29:47.953125,7.68
18:29:47.968750,6.47
18:29:47.984375,5.61
18:29:48,5.30
18:29:48.015625,5.62
18:29:48.031250,6.49
18:29:48.046875,7.70
18:29:48.062500,8.94
18:29:48.078125,9.89
18:29:48.093750,10.31
18:29:48.109375,10.10
18:29:48.125000,9.25
18:29:48.140625,7.91
18:29:48.156250,6.25
18:29:48.171875,4.44
18:29:48.187500,2.61
18:29:48.203125,0.79
18:29:48.218750,-1.01
18:29:48.234375,-2.85
18:29:48.250000,-4.72
18:29:48.265625,-6.60
18:29:48.281250,-8.41
18:29:48.296875,-10.11
18:29:48.312500,-11.75
18:29:48.328125,-13.48
18:29:48.343750,-15.51
18:29:48.359375,-17.98
18:29:48.375000,-20.82
18:29:48.390625,-23.67
18:29:48.406250,-25.98
18:29:48.421875,-27.15
18:29:48.437500,-26.80
18:29:48.453125,-24.89
18:29:48.468750,-21.73
18:29:48.484375,-17.83
18:29:48.500000,-13.73
18:29:48.515625,-9.81
18:29:48.531250,-6.28
18:29:48.546875,-3.18
18:29:48.562500,-0.51
18:29:48.578125,1.75
18:29:48.593750,3.59
18:29:48.609375,5.07
18:29:48.625000,6.22
18:29:48.640625,7.07
18:29:48.656250,7.63
18:29:48.671875,7.85
18:29:48.687500,7.66
18:29:48.703125,7.04
18:29:48.718750,6.03
18:29:48.734375,4.78
18:29:48.750000,3.43
18:29:48.765625,2.11
18:29:48.781250,0.83
18:29:48.796875,-0.48
18:29:48.812500,-1.91
18:29:48.828125,-3.42
18:29:48.843750,-4.80
18:29:48.859375,-5.66
18:29:48.875000,-5.52
18:29:48.890625,-4.08
18:29:48.906250,-1.31
18:29:48.921875,2.42
18:29:48.937500,6.48
18:29:48.953125,10.16
18:29:48.968750,12.84
18:29:48.984375,14.20
18:29:49,14.13
18:29:49.015625,12.72
18:29:49.031250,10.17
18:29:49.046875,6.76
18:29:49.062500,2.86
18:29:49.078125,-1.02
18:29:49.093750,-4.32
18:29:49.109375,-6.54
18:29:49.125000,-7.37
18:29:49.140625,-6.78
18:29:49.156250,-4.99
18:29:49.171875,-2.38
18:29:49.187500,0.63
18:29:49.203125,3.71
18:29:49.218750,6.66
18:29:49.234375,9.39
18:29:49.250000,11.87
18:29:49.265625,14.14
18:29:49.281250,16.20
18:29:49.296875,18.03
18:29:49.312500,19.56
18:29:49.328125,20.66
18:29:49.343750,21.16
18:29:49.359375,20.89
18:29:49.375000,19.77
18:29:49.390625,17.84
18:29:49.406250,15.24
18:29:49.421875,12.28
18:29:49.437500,9.37
18:29:49.453125,6.92
18:29:49.468750,5.26
18:29:49.484375,4.56
18:29:49.500000,4.78
18:29:49.515625,5.65
18:29:49.531250,6.77
18:29:49.546875,7.71
18:29:49.562500,8.16
18:29:49.578125,7.98
18:29:49.593750,7.21
18:29:49.609375,5.98
18:29:49.625000,4.43
18:29:49.640625,2.60
18:29:49.656250,0.38
18:29:49.671875,-2.32
18:29:49.687500,-5.57
18:29:49.703125,-9.24
18:29:49.718750,-13.04
18:29:49.734375,-16.50
18:29:49.750000,-19.10
18:29:49.765625,-20.45
18:29:49.781250,-20.39
18:29:49.796875,-19.04
18:29:49.812500,-16.74
18:29:49.828125,-13.90
18:29:49.843750,-10.86
18:29:49.859375,-7.82
18:29:49.875000,-4.91
18:29:49.890625,-2.23
18:29:49.906250,0.08
18:29:49.921875,1.84
18:29:49.937500,2.89
18:29:49.953125,3.22
18:29:49.968750,2.95
18:29:49.984375,2.32
18:29:50,1.55
18:29:50.015625,0.77
18:29:50.031250,-0.02
18:29:50.046875,-0.89
18:29:50.062500,-1.90
18:29:50.078125,-2.97
18:29:50.093750,-3.95
18:29:50.109375,-4.63
18:29:50.125000,-4.83
18:29:50.140625,-4.51
18:29:50.156250,-3.79
18:29:50.171875,-2.88
18:29:50.187500,-2.04
18:29:50.203125,-1.45
18:29:50.218750,-1.15
18:29:50.234375,-1.08
18:29:50.250000,-1.19
18:29:50.265625,-1.41
18:29:50.281250,-1.82
18:29:50.296875,-2.49
18:29:50.312500,-3.50
18:29:50.328125,-4.87
18:29:50.343750,-6.56
18:29:50.359375,-8.46
18:29:50.375000,-10.45
18:29:50.390625,-12.33
18:29:50.406250,-13.86
18:29:50.421875,-14.77
18:29:50.437500,-14.85
18:29:50.453125,-14.05
18:29:50.468750,-12.45
18:29:50.484375,-10.35
18:29:50.500000,-8.04
18:29:50.515625,-5.78
18:29:50.531250,-3.69
18:29:50.546875,-1.75
18:29:50.562500,0.12
18:29:50.578125,1.96
18:29:50.593750,3.71
18:29:50.609375,5.22
18:29:50.625000,6.30
18:29:50.640625,6.81
18:29:50.656250,6.68
18:29:50.671875,5.94
18:29:50.687500,4.69
18:29:50.703125,3.10
18:29:50.718750,1.34
18:29:50.734375,-0.50
18:29:50.750000,-2.40
18:29:50.765625,-4.41
18:29:50.781250,-6.54
18:29:50.796875,-8.63
18:29:50.812500,-10.41
18:29:50.828125,-11.48
18:29:50.843750,-11.52
18:29:50.859375,-10.47
18:29:50.875000,-8.55
18:29:50.890625,-6.20
18:29:50.906250,-3.88
18:29:50.921875,-1.87
18:29:50.937500,-0.21
18:29:50.953125,1.21
18:29:50.968750,2.55
18:29:50.984375,3.79
18:29:51,4.73
18:29:51.015625,5.11
18:29:51.031250,4.72
18:29:51.046875,3.64
18:29:51.062500,2.21
18:29:51.078125,0.94
18:29:51.093750,0.31
18:29:51.109375,0.62
18:29:51.125000,1.83
18:29:51.140625,3.69
18:29:51.156250,5.83
18:29:51.171875,7.95
18:29:51.187500,9.95
18:29:51.203125,11.84
18:29:51.218750,13.71
18:29:51.234375,15.54
18:29:51.250000,17.19
18:29:51.265625,18.40
18:29:51.281250,18.95
18:29:51.296875,18.73
18:29:51.312500,17.82
18:29:51.328125,16.48
18:29:51.343750,15.01
18:29:51.359375,13.66
18:29:51.375000,12.57
18:29:51.390625,11.69
18:29:51.406250,10.88
18:29:51.421875,9.98
18:29:51.437500,8.90
18:29:51.453125,7.66
18:29:51.468750,6.37
18:29:51.484375,5.14
18:29:51.500000,4.03
18:29:51.515625,2.98
18:29:51.531250,1.87
18:29:51.546875,0.60
18:29:51.562500,-0.83
18:29:51.578125,-2.34
18:29:51.593750,-3.79
18:29:51.609375,-5.08
18:29:51.625000,-6.19
18:29:51.640625,-7.15
18:29:51.656250,-8.06
18:29:51.671875,-9.01
18:29:51.687500,-10.07
18:29:51.703125,-11.30
18:29:51.718750,-12.68
18:29:51.734375,-14.10
18:29:51.750000,-15.38
18:29:51.765625,-16.26
18:29:51.781250,-16.46
18:29:51.796875,-15.81
18:29:51.812500,-14.24
18:29:51.828125,-11.86
18:29:51.843750,-8.91
18:29:51.859375,-5.68
18:29:51.875000,-2.42
18:29:51.890625,0.64
18:29:51.906250,3.37
18:29:51.921875,5.64
18:29:51.937500,7.41
18:29:51.953125,8.67
18:29:51.968750,9.45
18:29:51.984375,9.80
18:29:52,9.84
18:29:52.015625,9.70
18:29:52.031250,9.53
18:29:52.046875,9.44
18:29:52.062500,9.52
18:29:52.078125,9.80
18:29:52.093750,10.22
18:29:52.109375,10.70
18:29:52.125000,11.13
18:29:52.140625,11.51
18:29:52.156250,11.85
18:29:52.171875,12.21
18:29:52.187500,12.61
18:29:52.203125,13.00
18:29:52.218750,13.26
18:29:52.234375,13.27
18:29:52.250000,13.01
18:29:52.265625,12.57
18:29:52.281250,12.15
18:29:52.296875,11.92
18:29:52.312500,12.04
18:29:52.328125,12.49
18:29:52.343750,13.20
18:29:52.359375,13.95
18:29:52.375000,14.44
18:29:52.390625,14.38
18:29:52.406250,13.58
18:29:52.421875,12.03
18:29:52.437500,9.99
18:29:52.453125,7.91
18:29:52.468750,6.23
18:29:52.484375,5.27
18:29:52.500000,5.15
18:29:52.515625,5.81
18:29:52.531250,7.18
18:29:52.546875,9.26
18:29:52.562500,12.10
18:29:52.578125,15.72
18:29:52.593750,20.03
18:29:52.609375,24.72
18:29:52.625000,29.39
18:29:52.640625,33.71
18:29:52.656250,37.60
18:29:52.671875,41.18
18:29:52.687500,44.75
18:29:52.703125,48.54
18:29:52.718750,52.47
18:29:52.734375,56.08
18:29:52.750000,58.61
18:29:52.765625,59.27
18:29:52.781250,57.56
18:29:52.796875,53.45
18:29:52.812500,47.28
18:29:52.828125,39.57
18:29:52.843750,30.72
18:29:52.859375,20.99
18:29:52.875000,10.73
18:29:52.890625,0.59
18:29:52.906250,-8.48
18:29:52.921875,-15.55
18:29:52.937500,-20.06
18:29:52.953125,-22.24
18:29:52.968750,-22.88
18:29:52.984375,-22.67
18:29:53,-21.50
18:29:53.015625,-18.46
18:29:53.031250,-12.63
18:29:53.046875,-4.38
18:29:53.062500,3.95
18:29:53.078125,8.70
18:29:53.093750,6.58
18:29:53.109375,-3.27
18:29:53.125000,-18.52
18:29:53.140625,-34.40
18:29:53.156250,-45.82
18:29:53.171875,-49.51
18:29:53.187500,-45.08
18:29:53.203125,-34.45
18:29:53.218750,-20.46
18:29:53.234375,-5.50
18:29:53.250000,8.92
18:29:53.265625,21.86
18:29:53.281250,32.49
18:29:53.296875,40.09
18:29:53.312500,44.65
18:29:53.328125,47.54
18:29:53.343750,51.35
18:29:53.359375,58.80
18:29:53.375000,71.42
18:29:53.390625,88.53
18:29:53.406250,107.17
18:29:53.421875,123.16
18:29:53.437500,132.67
18:29:53.453125,133.56
18:29:53.468750,126.00
18:29:53.484375,112.24
18:29:53.500000,95.57
18:29:53.515625,79.16
18:29:53.531250,65.17
18:29:53.546875,54.43
18:29:53.562500,46.60
18:29:53.578125,40.69
18:29:53.593750,35.64
18:29:53.609375,30.53
18:29:53.625000,24.67
18:29:53.640625,17.46
18:29:53.656250,8.42
18:29:53.671875,-2.62
18:29:53.687500,-15.32
18:29:53.703125,-28.59
18:29:53.718750,-40.96
18:29:53.734375,-51.10
18:29:53.750000,-58.35
18:29:53.765625,-62.94
18:29:53.781250,-65.66
18:29:53.796875,-67.24
18:29:53.812500,-67.93
18:29:53.828125,-67.41
18:29:53.843750,-65.23
18:29:53.859375,-61.40
18:29:53.875000,-56.57
18:29:53.890625,-51.86
18:29:53.906250,-48.26
18:29:53.921875,-46.12
18:29:53.937500,-45.07
18:29:53.953125,-44.41
18:29:53.968750,-43.69
18:29:53.984375,-43.16
18:29:54,-43.62
18:29:54.015625,-46.00
18:29:54.031250,-50.69
18:29:54.046875,-57.28
18:29:54.062500,-64.64
18:29:54.078125,-71.51
18:29:54.093750,-77.09
18:29:54.109375,-81.27
18:29:54.125000,-84.45
18:29:54.140625,-86.95
18:29:54.156250,-88.57
18:29:54.171875,-88.50
18:29:54.187500,-85.71
18:29:54.203125,-79.62
18:29:54.218750,-70.60
18:29:54.234375,-59.93
18:29:54.250000,-49.12
18:29:54.265625,-39.10
18:29:54.281250,-29.63
18:29:54.296875,-19.38
18:29:54.312500,-6.74
18:29:54.328125,9.13
18:29:54.343750,27.52
18:29:54.359375,46.11
18:29:54.375000,61.68
18:29:54.390625,71.29
18:29:54.406250,73.34
18:29:54.421875,68.19
18:29:54.437500,57.86
18:29:54.453125,45.14
18:29:54.468750,32.47
18:29:54.484375,21.18
18:29:54.500000,11.17
18:29:54.515625,1.29
18:29:54.531250,-10.13
18:29:54.546875,-24.65
18:29:54.562500,-43.29
18:29:54.578125,-65.86
18:29:54.593750,-90.66
18:29:54.609375,-114.64
18:29:54.625000,-134.03
18:29:54.640625,-145.80
18:29:54.656250,-149.03
18:29:54.671875,-145.19
18:29:54.687500,-137.58
18:29:54.703125,-129.83
18:29:54.718750,-124.71
18:29:54.734375,-123.56
18:29:54.750000,-126.39
18:29:54.765625,-131.79
18:29:54.781250,-136.70
18:29:54.796875,-136.65
18:29:54.812500,-127.17
18:29:54.828125,-106.10
18:29:54.843750,-75.59
18:29:54.859375,-41.90
18:29:54.875000,-12.31
18:29:54.890625,9.35
18:29:54.906250,25.40
18:29:54.921875,43.10
18:29:54.937500,69.72
18:29:54.953125,107.13
18:29:54.968750,149.77
18:29:54.984375,187.67
18:29:55,212.34
18:29:55.015625,221.70
18:29:55.031250,220.47
18:29:55.046875,215.91
18:29:55.062500,212.02
18:29:55.078125,206.50
18:29:55.093750,192.32
18:29:55.109375,162.40
18:29:55.125000,114.79
18:29:55.140625,54.38
18:29:55.156250,-9.30
18:29:55.171875,-66.30
18:29:55.187500,-110.25
18:29:55.203125,-139.79
18:29:55.218750,-157.31
18:29:55.234375,-166.28
18:29:55.250000,-169.12
18:29:55.265625,-166.44
18:29:55.281250,-157.60
18:29:55.296875,-142.26
18:29:55.312500,-121.59
18:29:55.328125,-98.42
18:29:55.343750,-76.44
18:29:55.359375,-58.83
18:29:55.375000,-47.18
18:29:55.390625,-40.99
18:29:55.406250,-38.16
18:29:55.421875,-35.96
18:29:55.437500,-32.16
18:29:55.453125,-25.67
18:29:55.468750,-16.89
18:29:55.484375,-7.31
18:29:55.500000,1.07
18:29:55.515625,6.34
18:29:55.531250,7.17
18:29:55.546875,3.06
18:29:55.562500,-5.72
18:29:55.578125,-18.32
18:29:55.593750,-33.53
18:29:55.609375,-50.11
18:29:55.625000,-66.84
18:29:55.640625,-82.62
18:29:55.656250,-96.52
18:29:55.671875,-107.81
18:29:55.687500,-116.09
18:29:55.703125,-121.28
18:29:55.718750,-123.64
18:29:55.734375,-123.62
18:29:55.750000,-121.64
18:29:55.765625,-117.82
18:29:55.781250,-111.87
18:29:55.796875,-103.21
18:29:55.812500,-91.25
18:29:55.828125,-75.82
18:29:55.843750,-57.35
18:29:55.859375,-37.00
18:29:55.875000,-16.33
18:29:55.890625,3.05
18:29:55.906250,19.92
18:29:55.921875,33.64
18:29:55.937500,44.22
18:29:55.953125,52.13
18:29:55.968750,58.14
18:29:55.984375,63.02
18:29:56,67.42
18:29:56.015625,71.74
18:29:56.031250,76.12
18:29:56.046875,80.50
18:29:56.062500,84.77
18:29:56.078125,88.81
18:29:56.093750,92.51
18:29:56.109375,95.78
18:29:56.125000,98.49
18:29:56.140625,100.45
18:29:56.156250,101.49
18:29:56.171875,101.50
18:29:56.187500,100.53
18:29:56.203125,98.71
18:29:56.218750,96.22
18:29:56.234375,93.23
18:29:56.250000,89.86
18:29:56.265625,86.15
18:29:56.281250,82.12
18:29:56.296875,77.73
18:29:56.312500,72.99
18:29:56.328125,67.90
18:29:56.343750,62.56
18:29:56.359375,57.10
18:29:56.375000,51.75
18:29:56.390625,46.65
18:29:56.406250,41.89
18:29:56.421875,37.40
18:29:56.437500,33.06
18:29:56.453125,28.87
18:29:56.468750,25.01
18:29:56.484375,21.86
18:29:56.500000,19.87
18:29:56.515625,19.36
18:29:56.531250,20.42
18:29:56.546875,22.81
18:29:56.562500,26.12
18:29:56.578125,29.96
18:29:56.593750,34.00
18:29:56.609375,38.04
18:29:56.625000,41.90
18:29:56.640625,45.37
18:29:56.656250,48.21
18:29:56.671875,50.25
18:29:56.687500,51.49
18:29:56.703125,52.15
18:29:56.718750,52.58
18:29:56.734375,53.01
18:29:56.750000,53.45
18:29:56.765625,53.60
18:29:56.781250,52.99
18:29:56.796875,51.16
18:29:56.812500,47.85
18:29:56.828125,43.06
18:29:56.843750,36.97
18:29:56.859375,29.77
18:29:56.875000,21.58
18:29:56.890625,12.39
18:29:56.906250,2.13
18:29:56.921875,-9.23
18:29:56.937500,-21.59
18:29:56.953125,-34.58
18:29:56.968750,-47.65
18:29:56.984375,-60.11
18:29:57,-71.25
18:29:57.015625,-80.60
18:29:57.031250,-87.93
18:29:57.046875,-93.29
18:29:57.062500,-96.98
18:29:57.078125,-99.39
18:29:57.093750,-100.84
18:29:57.109375,-101.53
18:29:57.125000,-101.42
18:29:57.140625,-100.22
18:29:57.156250,-97.44
18:29:57.171875,-92.44
18:29:57.187500,-84.74
18:29:57.203125,-74.24
18:29:57.218750,-61.39
18:29:57.234375,-47.26
18:29:57.250000,-33.23
18:29:57.265625,-20.67
18:29:57.281250,-10.57
18:29:57.296875,-3.38
18:29:57.312500,1.01
18:29:57.328125,2.98
18:29:57.343750,3.06
18:29:57.359375,1.77
18:29:57.375000,-0.37
18:29:57.390625,-2.89
18:29:57.406250,-5.41
18:29:57.421875,-7.64
18:29:57.437500,-9.53
18:29:57.453125,-11.15
18:29:57.468750,-12.64
18:29:57.484375,-14.16
18:29:57.500000,-15.76
18:29:57.515625,-17.45
18:29:57.531250,-19.21
18:29:57.546875,-20.95
18:29:57.562500,-22.56
18:29:57.578125,-23.93
18:29:57.593750,-25.00
18:29:57.609375,-25.82
18:29:57.625000,-26.54
18:29:57.640625,-27.32
18:29:57.656250,-28.24
18:29:57.671875,-29.24
18:29:57.687500,-30.10
18:29:57.703125,-30.64
18:29:57.718750,-30.81
18:29:57.734375,-30.80
18:29:57.750000,-30.98
18:29:57.765625,-31.74
18:29:57.781250,-33.26
18:29:57.796875,-35.41
18:29:57.812500,-37.67
18:29:57.828125,-39.34
18:29:57.843750,-39.68
18:29:57.859375,-38.25
18:29:57.875000,-34.99
18:29:57.890625,-30.24
18:29:57.906250,-24.63
18:29:57.921875,-18.86
18:29:57.937500,-13.49
18:29:57.953125,-8.83
18:29:57.968750,-4.91
18:29:57.984375,-1.58
18:29:58,1.37
18:29:58.015625,4.10
18:29:58.031250,6.65
18:29:58.046875,8.92
18:29:58.062500,10.77
18:29:58.078125,12.06
18:29:58.093750,12.76
18:29:58.109375,12.92
18:29:58.125000,12.68
18:29:58.140625,12.09
18:29:58.156250,11.16
18:29:58.171875,9.84
18:29:58.187500,8.07
18:29:58.203125,5.94
18:29:58.218750,3.67
18:29:58.234375,1.53
18:29:58.250000,-0.28
18:29:58.265625,-1.70
18:29:58.281250,-2.85
18:29:58.296875,-3.85
18:29:58.312500,-4.76
18:29:58.328125,-5.55
18:29:58.343750,-6.09
18:29:58.359375,-6.28
18:29:58.375000,-6.12
18:29:58.390625,-5.73
18:29:58.406250,-5.29
18:29:58.421875,-5.01
18:29:58.437500,-5.02
18:29:58.453125,-5.37
18:29:58.468750,-5.94
18:29:58.484375,-6.46
18:29:58.500000,-6.52
18:29:58.515625,-5.60
18:29:58.531250,-3.25
18:29:58.546875,0.80
18:29:58.562500,6.51
18:29:58.578125,13.49
18:29:58.593750,21.09
18:29:58.609375,28.52
18:29:58.625000,35.03
18:29:58.640625,40.06
18:29:58.656250,43.31
18:29:58.671875,44.73
18:29:58.687500,44.46
18:29:58.703125,42.78
18:29:58.718750,40.09
18:29:58.734375,36.80
18:29:58.750000,33.38
18:29:58.765625,30.23
18:29:58.781250,27.69
18:29:58.796875,25.88
18:29:58.812500,24.79
18:29:58.828125,24.26
18:29:58.843750,24.11
18:29:58.859375,24.25
18:29:58.875000,24.65
18:29:58.890625,25.32
18:29:58.906250,26.20
18:29:58.921875,27.08
18:29:58.937500,27.66
18:29:58.953125,27.59
18:29:58.968750,26.64
18:29:58.984375,24.72
18:29:59,21.98
18:29:59.015625,18.71
18:29:59.031250,15.29
18:29:59.046875,12.06
18:29:59.062500,9.21
18:29:59.078125,6.69
18:29:59.093750,4.35
18:29:59.109375,1.91
18:29:59.125000,-0.78
18:29:59.140625,-3.75
18:29:59.156250,-6.84
18:29:59.171875,-9.72
18:29:59.187500,-11.97
18:29:59.203125,-13.12
18:29:59.218750,-12.84
18:29:59.234375,-11.02
18:29:59.250000,-7.89
18:29:59.265625,-4.02
18:29:59.281250,-0.15
18:29:59.296875,3.03
18:29:59.312500,5.07
18:29:59.328125,5.96
18:29:59.343750,5.99
18:29:59.359375,5.64
18:29:59.375000,5.30
18:29:59.390625,5.19
18:29:59.406250,5.33
18:29:59.421875,5.68
18:29:59.437500,6.13
18:29:59.453125,6.64
18:29:59.468750,7.17
18:29:59.484375,7.66
18:29:59.500000,8.02
18:29:59.515625,8.14
18:29:59.531250,7.95
18:29:59.546875,7.45
18:29:59.562500,6.76
18:29:59.578125,6.05
18:29:59.593750,5.43
18:29:59.609375,4.95
18:29:59.625000,4.51
18:29:59.640625,3.94
18:29:59.656250,3.12
18:29:59.671875,2.04
18:29:59.687500,0.79
18:29:59.703125,-0.48
18:29:59.718750,-1.71
18:29:59.734375,-2.98
18:29:59.750000,-4.40
18:29:59.765625,-6.11
18:29:59.781250,-8.10
18:29:59.796875,-10.35
18:29:59.812500,-12.75
18:29:59.828125,-15.26
18:29:59.843750,-17.76
18:29:59.859375,-20.03
18:29:59.875000,-21.68
18:29:59.890625,-22.34
18:29:59.906250,-21.77
18:29:59.921875,-20.14
18:29:59.937500,-17.91
18:29:59.953125,-15.72
18:29:59.968750,-14.06
18:29:59.984375,-13.10
18:30:00,-12.78
18:30:00.015625,-12.85
18:30:00.031250,-13.12
18:30:00.046875,-13.51
18:30:00.062500,-14.01
18:30:00.078125,-14.64
18:30:00.093750,-15.37
18:30:00.109375,-16.07
18:30:00.125000,-16.51
18:30:00.140625,-16.35
18:30:00.156250,-15.17
18:30:00.171875,-12.70
18:30:00.187500,-8.91
18:30:00.203125,-4.12
18:30:00.218750,1.09
18:30:00.234375,6.00
18:30:00.250000,10.11
18:30:00.265625,13.18
18:30:00.281250,15.36
18:30:00.296875,16.91
18:30:00.312500,18.13
18:30:00.328125,19.13
18:30:00.343750,19.88
18:30:00.359375,20.29
18:30:00.375000,20.29
18:30:00.390625,19.87
18:30:00.406250,19.08
18:30:00.421875,18.03
18:30:00.437500,16.73
18:30:00.453125,15.10
18:30:00.468750,12.92
18:30:00.484375,10.00
18:30:00.500000,6.32
18:30:00.515625,2.29
18:30:00.531250,-1.32
18:30:00.546875,-3.53
18:30:00.562500,-3.55
18:30:00.578125,-1.10
18:30:00.593750,3.38
18:30:00.609375,8.94
18:30:00.625000,14.45
18:30:00.640625,19.03
18:30:00.656250,22.31
18:30:00.671875,24.39
18:30:00.687500,25.66
18:30:00.703125,26.47
18:30:00.718750,26.95
18:30:00.734375,27.08
18:30:00.750000,26.81
18:30:00.765625,26.21
18:30:00.781250,25.55
18:30:00.796875,25.24
18:30:00.812500,25.63
18:30:00.828125,26.97
18:30:00.843750,29.25
18:30:00.859375,32.29
18:30:00.875000,35.68
18:30:00.890625,38.84
18:30:00.906250,41.08
18:30:00.921875,41.70
18:30:00.937500,40.20
18:30:00.953125,36.47
18:30:00.968750,30.89
18:30:00.984375,24.34
18:30:01,18.00
18:30:01.015625,12.97
18:30:01.031250,9.94
18:30:01.046875,8.98
18:30:01.062500,9.54
18:30:01.078125,10.67
18:30:01.093750,11.32
18:30:01.109375,10.74
18:30:01.125000,8.56
18:30:01.140625,4.89
18:30:01.156250,0.14
18:30:01.171875,-5.06
18:30:01.187500,-9.93
18:30:01.203125,-13.68
18:30:01.218750,-15.70
18:30:01.234375,-15.70
18:30:01.250000,-13.91
18:30:01.265625,-11.05
18:30:01.281250,-8.06
18:30:01.296875,-5.78
18:30:01.312500,-4.62
18:30:01.328125,-4.58
18:30:01.343750,-5.28
18:30:01.359375,-6.37
18:30:01.375000,-7.58
18:30:01.390625,-8.86
18:30:01.406250,-10.19
18:30:01.421875,-11.45
18:30:01.437500,-12.36
18:30:01.453125,-12.50
18:30:01.468750,-11.55
18:30:01.484375,-9.33
18:30:01.500000,-6.00
18:30:01.515625,-1.96
18:30:01.531250,2.22
18:30:01.546875,5.97
18:30:01.562500,8.92
18:30:01.578125,10.93
18:30:01.593750,12.07
18:30:01.609375,12.49
18:30:01.625000,12.27
18:30:01.640625,11.41
18:30:01.656250,9.85
18:30:01.671875,7.64
18:30:01.687500,5.02
18:30:01.703125,2.35
18:30:01.718750,-0.06
18:30:01.734375,-2.10
18:30:01.750000,-4.03
18:30:01.765625,-6.24
18:30:01.781250,-9.07
18:30:01.796875,-12.50
18:30:01.812500,-16.04
18:30:01.828125,-18.89
18:30:01.843750,-20.22
18:30:01.859375,-19.46
18:30:01.875000,-16.58
18:30:01.890625,-12.05
18:30:01.906250,-6.70
18:30:01.921875,-1.42
18:30:01.937500,3.09
18:30:01.953125,6.43
18:30:01.968750,8.55
18:30:01.984375,9.58
18:30:02,9.75
18:30:02.015625,9.26
18:30:02.031250,8.31
18:30:02.046875,7.04
18:30:02.062500,5.61
18:30:02.078125,4.20
18:30:02.093750,2.98
18:30:02.109375,2.07
18:30:02.125000,1.55
18:30:02.140625,1.41
18:30:02.156250,1.57
18:30:02.171875,1.96
18:30:02.187500,2.55
18:30:02.203125,3.33
18:30:02.218750,4.26
18:30:02.234375,5.20
18:30:02.250000,5.95
18:30:02.265625,6.24
18:30:02.281250,5.87
18:30:02.296875,4.82
18:30:02.312500,3.27
18:30:02.328125,1.58
18:30:02.343750,0.11
18:30:02.359375,-0.95
18:30:02.375000,-1.66
18:30:02.390625,-2.26
18:30:02.406250,-3.05
18:30:02.421875,-4.16
18:30:02.437500,-5.46
18:30:02.453125,-6.57
18:30:02.468750,-6.94
18:30:02.484375,-6.08
18:30:02.500000,-3.80
18:30:02.515625,-0.30
18:30:02.531250,3.85
18:30:02.546875,7.88
18:30:02.562500,11.10
18:30:02.578125,13.14
18:30:02.593750,14.01
18:30:02.609375,14.00
18:30:02.625000,13.49
18:30:02.640625,12.67
18:30:02.656250,11.57
18:30:02.671875,10.10
18:30:02.687500,8.23
18:30:02.703125,6.08
18:30:02.718750,3.90
18:30:02.734375,1.91
18:30:02.750000,0.22
18:30:02.765625,-1.20
18:30:02.781250,-2.43
18:30:02.796875,-3.45
18:30:02.812500,-4.13
18:30:02.828125,-4.27
18:30:02.843750,-3.74
18:30:02.859375,-2.58
18:30:02.875000,-1.05
18:30:02.890625,0.49
18:30:02.906250,1.63
18:30:02.921875,2.06
18:30:02.937500,1.56
18:30:02.953125,0.06
18:30:02.968750,-2.41
18:30:02.984375,-5.64
18:30:03,-9.40
18:30:03.015625,-13.42
18:30:03.031250,-17.38
18:30:03.046875,-20.95
18:30:03.062500,-23.73
18:30:03.078125,-25.28
18:30:03.093750,-25.25
18:30:03.109375,-23.50
18:30:03.125000,-20.23
18:30:03.140625,-15.95
18:30:03.156250,-11.36
18:30:03.171875,-7.06
18:30:03.187500,-3.45
18:30:03.203125,-0.62
18:30:03.218750,1.57
18:30:03.234375,3.32
18:30:03.250000,4.79
18:30:03.265625,5.99
18:30:03.281250,6.90
18:30:03.296875,7.48
18:30:03.312500,7.85
18:30:03.328125,8.19
18:30:03.343750,8.79
18:30:03.359375,9.82
18:30:03.375000,11.34
18:30:03.390625,13.20
18:30:03.406250,15.13
18:30:03.421875,16.84
18:30:03.437500,18.13
18:30:03.453125,18.92
18:30:03.468750,19.25
18:30:03.484375,19.16
18:30:03.500000,18.60
18:30:03.515625,17.47
18:30:03.531250,15.66
18:30:03.546875,13.10
18:30:03.562500,9.89
18:30:03.578125,6.19
18:30:03.593750,2.20
18:30:03.609375,-1.95
18:30:03.625000,-6.20
18:30:03.640625,-10.52
18:30:03.656250,-14.76
18:30:03.671875,-18.56
18:30:03.687500,-21.41
18:30:03.703125,-22.78
18:30:03.718750,-22.36
18:30:03.734375,-20.20
18:30:03.750000,-16.70
18:30:03.765625,-12.44
18:30:03.781250,-7.99
18:30:03.796875,-3.72
18:30:03.812500,0.25
18:30:03.828125,3.91
18:30:03.843750,7.30
18:30:03.859375,10.41
18:30:03.875000,13.13
18:30:03.890625,15.28
18:30:03.906250,16.72
18:30:03.921875,17.34
18:30:03.937500,17.17
18:30:03.953125,16.38
18:30:03.968750,15.32
18:30:03.984375,14.34
18:30:04,13.69
18:30:04.015625,13.47
18:30:04.031250,13.54
18:30:04.046875,13.65
18:30:04.062500,13.56
18:30:04.078125,13.13
18:30:04.093750,12.40
18:30:04.109375,11.47
18:30:04.125000,10.45
18:30:04.140625,9.36
18:30:04.156250,8.17
18:30:04.171875,6.82
18:30:04.187500,5.27
18:30:04.203125,3.48
18:30:04.218750,1.44
18:30:04.234375,-0.92
18:30:04.250000,-3.66
18:30:04.265625,-6.75
18:30:04.281250,-9.97
18:30:04.296875,-12.90
18:30:04.312500,-14.97
18:30:04.328125,-15.65
18:30:04.343750,-14.66
18:30:04.359375,-12.10
18:30:04.375000,-8.35
18:30:04.390625,-3.99
18:30:04.406250,0.43
18:30:04.421875,4.55
18:30:04.437500,8.21
18:30:04.453125,11.38
18:30:04.468750,14.09
18:30:04.484375,16.32
18:30:04.500000,17.99
18:30:04.515625,19.04
18:30:04.531250,19.44
18:30:04.546875,19.27
18:30:04.562500,18.73
18:30:04.578125,18.06
18:30:04.593750,17.57
18:30:04.609375,17.45
18:30:04.625000,17.81
18:30:04.640625,18.58
18:30:04.656250,19.56
18:30:04.671875,20.44
18:30:04.687500,20.92
18:30:04.703125,20.81
18:30:04.718750,20.06
18:30:04.734375,18.75
18:30:04.750000,17.08
18:30:04.765625,15.24
18:30:04.781250,13.39
18:30:04.796875,11.57
18:30:04.812500,9.70
18:30:04.828125,7.61
18:30:04.843750,5.12
18:30:04.859375,2.04
18:30:04.875000,-1.76
18:30:04.890625,-6.29
18:30:04.906250,-11.39
18:30:04.921875,-16.65
18:30:04.937500,-21.50
18:30:04.953125,-25.28
18:30:04.968750,-27.48
18:30:04.984375,-27.87
18:30:05,-26.62
18:30:05.015625,-24.23
18:30:05.031250,-21.32
18:30:05.046875,-18.49
18:30:05.062500,-16.13
18:30:05.078125,-14.37
18:30:05.093750,-13.11
18:30:05.109375,-12.15
18:30:05.125000,-11.31
18:30:05.140625,-10.48
18:30:05.156250,-9.65
18:30:05.171875,-8.89
18:30:05.187500,-8.28
18:30:05.203125,-7.90
18:30:05.218750,-7.79
18:30:05.234375,-7.89
18:30:05.250000,-8.04
18:30:05.265625,-8.02
18:30:05.281250,-7.62
18:30:05.296875,-6.74
18:30:05.312500,-5.41
18:30:05.328125,-3.86
18:30:05.343750,-2.35
18:30:05.359375,-1.12
18:30:05.375000,-0.28
18:30:05.390625,0.21
18:30:05.406250,0.45
18:30:05.421875,0.53
18:30:05.437500,0.43
18:30:05.453125,0.12
18:30:05.468750,-0.41
18:30:05.484375,-1.12
18:30:05.500000,-2.02
18:30:05.515625,-3.14
18:30:05.531250,-4.64
18:30:05.546875,-6.69
18:30:05.562500,-9.32
18:30:05.578125,-12.26
18:30:05.593750,-14.99
18:30:05.609375,-16.84
18:30:05.625000,-17.24
18:30:05.640625,-15.93
18:30:05.656250,-13.05
18:30:05.671875,-9.05
18:30:05.687500,-4.57
18:30:05.703125,-0.19
18:30:05.718750,3.68
18:30:05.734375,6.87
18:30:05.750000,9.39
18:30:05.765625,11.36
18:30:05.781250,12.86
18:30:05.796875,13.92
18:30:05.812500,14.57
18:30:05.828125,14.85
18:30:05.843750,14.90
18:30:05.859375,14.93
18:30:05.875000,15.08
18:30:05.890625,15.37
18:30:05.906250,15.64
18:30:05.921875,15.65
18:30:05.937500,15.19
18:30:05.953125,14.15
18:30:05.968750,12.61
18:30:05.984375,10.70
18:30:06,8.50
18:30:06.015625,6.03
18:30:06.031250,3.24
18:30:06.046875,0.08
18:30:06.062500,-3.38
18:30:06.078125,-6.96
18:30:06.093750,-10.38
18:30:06.109375,-13.38
18:30:06.125000,-15.82
18:30:06.140625,-17.72
18:30:06.156250,-19.23
18:30:06.171875,-20.60
18:30:06.187500,-22.03
18:30:06.203125,-23.66
18:30:06.218750,-25.45
18:30:06.234375,-27.25
18:30:06.250000,-28.75
18:30:06.265625,-29.58
18:30:06.281250,-29.31
18:30:06.296875,-27.58
18:30:06.312500,-24.14
18:30:06.328125,-19.03
18:30:06.343750,-12.58
18:30:06.359375,-5.35
18:30:06.375000,2.01
18:30:06.390625,8.89
18:30:06.406250,14.85
18:30:06.421875,19.67
18:30:06.437500,23.31
18:30:06.453125,25.83
18:30:06.468750,27.37
18:30:06.484375,28.12
18:30:06.500000,28.29
18:30:06.515625,28.07
18:30:06.531250,27.60
18:30:06.546875,26.93
18:30:06.562500,25.98
18:30:06.578125,24.65
18:30:06.593750,22.83
18:30:06.609375,20.53
18:30:06.625000,17.86
18:30:06.640625,15.05
18:30:06.656250,12.36
18:30:06.671875,9.95
18:30:06.687500,7.89
18:30:06.703125,6.17
18:30:06.718750,4.73
18:30:06.734375,3.50
18:30:06.750000,2.42
18:30:06.765625,1.40
18:30:06.781250,0.34
18:30:06.796875,-0.82
18:30:06.812500,-2.07
18:30:06.828125,-3.28
18:30:06.843750,-4.27
18:30:06.859375,-4.90
18:30:06.875000,-5.15
18:30:06.890625,-5.18
18:30:06.906250,-5.24
18:30:06.921875,-5.57
18:30:06.937500,-6.23
18:30:06.953125,-7.03
18:30:06.968750,-7.56
18:30:06.984375,-7.34
18:30:07,-6.01
18:30:07.015625,-3.51
18:30:07.031250,-0.08
18:30:07.046875,3.82
18:30:07.062500,7.70
18:30:07.078125,11.21
18:30:07.093750,14.20
18:30:07.109375,16.63
18:30:07.125000,18.49
18:30:07.140625,19.71
18:30:07.156250,20.17
18:30:07.171875,19.75
18:30:07.187500,18.53
18:30:07.203125,16.77
18:30:07.218750,14.91
18:30:07.234375,13.37
18:30:07.250000,12.38
18:30:07.265625,11.84
18:30:07.281250,11.41
18:30:07.296875,10.63
18:30:07.312500,9.19
18:30:07.328125,7.10
18:30:07.343750,4.72
18:30:07.359375,2.64
18:30:07.375000,1.41
18:30:07.390625,1.32
18:30:07.406250,2.32
18:30:07.421875,4.03
18:30:07.437500,5.97
18:30:07.453125,7.76
18:30:07.468750,9.23
18:30:07.484375,10.35
18:30:07.500000,11.15
18:30:07.515625,11.54
18:30:07.531250,11.35
18:30:07.546875,10.40
18:30:07.562500,8.67
18:30:07.578125,6.36
18:30:07.593750,3.84
18:30:07.609375,1.44
18:30:07.625000,-0.71
18:30:07.640625,-2.72
18:30:07.656250,-4.73
18:30:07.671875,-6.70
18:30:07.687500,-8.27
18:30:07.703125,-8.86
18:30:07.718750,-8.07
18:30:07.734375,-5.96
18:30:07.750000,-3.17
18:30:07.765625,-0.63
18:30:07.781250,0.87
18:30:07.796875,1.11
18:30:07.812500,0.49
18:30:07.828125,-0.28
18:30:07.843750,-0.62
18:30:07.859375,-0.38
18:30:07.875000,0.10
18:30:07.890625,0.34
18:30:07.906250,0.04
18:30:07.921875,-0.68
18:30:07.937500,-1.38
18:30:07.953125,-1.58
18:30:07.968750,-1.05
18:30:07.984375,0.06
18:30:08,1.33
18:30:08.015625,2.30
18:30:08.031250,2.66
18:30:08.046875,2.39
18:30:08.062500,1.69
18:30:08.078125,0.87
18:30:08.093750,0.22
18:30:08.109375,-0.10
18:30:08.125000,-0.08
18:30:08.140625,0.17
18:30:08.156250,0.52
18:30:08.171875,0.87
18:30:08.187500,1.21
18:30:08.203125,1.63
18:30:08.218750,2.22
18:30:08.234375,3.03
18:30:08.250000,3.96
18:30:08.265625,4.85
18:30:08.281250,5.46
18:30:08.296875,5.57
18:30:08.312500,5.08
18:30:08.328125,4.08
18:30:08.343750,2.83
18:30:08.359375,1.76
18:30:08.375000,1.35
18:30:08.390625,2.06
18:30:08.406250,4.11
18:30:08.421875,7.45
18:30:08.437500,11.74
18:30:08.453125,16.46
18:30:08.468750,21.05
18:30:08.484375,25.08
18:30:08.500000,28.31
18:30:08.515625,30.65
18:30:08.531250,32.10
18:30:08.546875,32.68
18:30:08.562500,32.36
18:30:08.578125,31.18
18:30:08.593750,29.29
18:30:08.609375,26.96
18:30:08.625000,24.55
18:30:08.640625,22.37
18:30:08.656250,20.53
18:30:08.671875,18.92
18:30:08.687500,17.25
18:30:08.703125,15.15
18:30:08.718750,12.40
18:30:08.734375,8.95
18:30:08.750000,4.93
18:30:08.765625,0.51
18:30:08.781250,-4.18
18:30:08.796875,-9.19
18:30:08.812500,-14.60
18:30:08.828125,-20.43
18:30:08.843750,-26.51
18:30:08.859375,-32.50
18:30:08.875000,-37.98
18:30:08.890625,-42.62
18:30:08.906250,-46.28
18:30:08.921875,-49.08
18:30:08.937500,-51.27
18:30:08.953125,-53.19
18:30:08.968750,-55.06
18:30:08.984375,-57.05
18:30:09,-59.16
18:30:09.015625,-61.29
18:30:09.031250,-63.17
18:30:09.046875,-64.41
18:30:09.062500,-64.53
18:30:09.078125,-63.14
18:30:09.093750,-60.06
18:30:09.109375,-55.49
18:30:09.125000,-49.90
18:30:09.140625,-43.96
18:30:09.156250,-38.27
18:30:09.171875,-33.24
18:30:09.187500,-29.01
18:30:09.203125,-25.50
18:30:09.218750,-22.53
18:30:09.234375,-19.91
18:30:09.250000,-17.48
18:30:09.265625,-15.20
18:30:09.281250,-13.03
18:30:09.296875,-11.00
18:30:09.312500,-9.06
18:30:09.328125,-7.16
18:30:09.343750,-5.23
18:30:09.359375,-3.23
18:30:09.375000,-1.22
18:30:09.390625,0.65
18:30:09.406250,2.16
18:30:09.421875,3.21
18:30:09.437500,3.77
18:30:09.453125,3.96
18:30:09.468750,3.94
18:30:09.484375,3.77
18:30:09.500000,3.42
18:30:09.515625,2.78
18:30:09.531250,1.76
18:30:09.546875,0.39
18:30:09.562500,-1.20
18:30:09.578125,-2.81
18:30:09.593750,-4.22
18:30:09.609375,-5.35
18:30:09.625000,-6.18
18:30:09.640625,-6.80
18:30:09.656250,-7.30
18:30:09.671875,-7.76
18:30:09.687500,-8.23
18:30:09.703125,-8.70
18:30:09.718750,-9.14
18:30:09.734375,-9.43
18:30:09.750000,-9.40
18:30:09.765625,-8.86
18:30:09.781250,-7.58
18:30:09.796875,-5.41
18:30:09.812500,-2.39
18:30:09.828125,1.28
18:30:09.843750,5.22
18:30:09.859375,9.06
18:30:09.875000,12.49
18:30:09.890625,15.33
18:30:09.906250,17.56
18:30:09.921875,19.24
18:30:09.937500,20.42
18:30:09.953125,21.12
18:30:09.968750,21.32
18:30:09.984375,21.03
18:30:10,20.30
18:30:10.015625,19.31
18:30:10.031250,18.27
18:30:10.046875,17.35
18:30:10.062500,16.64
18:30:10.078125,16.16
18:30:10.093750,15.82
18:30:10.109375,15.56
18:30:10.125000,15.30
18:30:10.140625,15.04
18:30:10.156250,14.77
18:30:10.171875,14.50
18:30:10.187500,14.22
18:30:10.203125,13.95
18:30:10.218750,13.67
18:30:10.234375,13.31
18:30:10.250000,12.76
18:30:10.265625,11.89
18:30:10.281250,10.65
18:30:10.296875,9.08
18:30:10.312500,7.36
18:30:10.328125,5.62
18:30:10.343750,3.91
18:30:10.359375,2.09
18:30:10.375000,-0.02
18:30:10.390625,-2.55
18:30:10.406250,-5.45
18:30:10.421875,-8.48
18:30:10.437500,-11.35
18:30:10.453125,-13.86
18:30:10.468750,-15.87
18:30:10.484375,-17.31
18:30:10.500000,-18.05
18:30:10.515625,-17.86
18:30:10.531250,-16.54
18:30:10.546875,-14.07
18:30:10.562500,-10.64
18:30:10.578125,-6.68
18:30:10.593750,-2.61
18:30:10.609375,1.17
18:30:10.625000,4.43
18:30:10.640625,7.02
18:30:10.656250,8.85
18:30:10.671875,9.84
18:30:10.687500,9.99
18:30:10.703125,9.37
18:30:10.718750,8.18
18:30:10.734375,6.69
18:30:10.750000,5.20
18:30:10.765625,4.02
18:30:10.781250,3.39
18:30:10.796875,3.52
18:30:10.812500,4.48
18:30:10.828125,6.19
18:30:10.843750,8.31
18:30:10.859375,10.31
18:30:10.875000,11.67
18:30:10.890625,12.03
18:30:10.906250,11.34
18:30:10.921875,9.84
18:30:10.937500,7.85
18:30:10.953125,5.62
18:30:10.968750,3.21
18:30:10.984375,0.54
18:30:11,-2.47
18:30:11.015625,-5.77
18:30:11.031250,-9.14
18:30:11.046875,-12.33
18:30:11.062500,-15.17
18:30:11.078125,-17.64
18:30:11.093750,-19.87
18:30:11.109375,-21.99
18:30:11.125000,-24.04
18:30:11.140625,-25.93
18:30:11.156250,-27.46
18:30:11.171875,-28.35
18:30:11.187500,-28.30
18:30:11.203125,-27.03
18:30:11.218750,-24.36
18:30:11.234375,-20.31
18:30:11.250000,-15.11
18:30:11.265625,-9.20
18:30:11.281250,-3.06
18:30:11.296875,2.89
18:30:11.312500,8.36
18:30:11.328125,13.21
18:30:11.343750,17.32
18:30:11.359375,20.55
18:30:11.375000,22.70
18:30:11.390625,23.63
18:30:11.406250,23.35
18:30:11.421875,22.15
18:30:11.437500,20.53
18:30:11.453125,19.02
18:30:11.468750,18.00
18:30:11.484375,17.51
18:30:11.500000,17.32
18:30:11.515625,17.01
18:30:11.531250,16.21
18:30:11.546875,14.72
18:30:11.562500,12.58
18:30:11.578125,10.03
18:30:11.593750,7.37
18:30:11.609375,4.82
18:30:11.625000,2.49
18:30:11.640625,0.32
18:30:11.656250,-1.89
18:30:11.671875,-4.34
18:30:11.687500,-7.17
18:30:11.703125,-10.38
18:30:11.718750,-13.85
18:30:11.734375,-17.39
18:30:11.750000,-20.86
18:30:11.765625,-24.29
18:30:11.781250,-27.80
18:30:11.796875,-31.55
18:30:11.812500,-35.59
18:30:11.828125,-39.84
18:30:11.843750,-44.12
18:30:11.859375,-48.26
18:30:11.875000,-52.12
18:30:11.890625,-55.58
18:30:11.906250,-58.45
18:30:11.921875,-60.43
18:30:11.937500,-61.11
18:30:11.953125,-60.10
18:30:11.968750,-57.17
18:30:11.984375,-52.32
18:30:12,-45.79
18:30:12.015625,-37.97
18:30:12.031250,-29.27
18:30:12.046875,-20.03
18:30:12.062500,-10.52
18:30:12.078125,-1.05
18:30:12.093750,8.04
18:30:12.109375,16.28
18:30:12.125000,23.20
18:30:12.140625,28.52
18:30:12.156250,32.27
18:30:12.171875,34.87
18:30:12.187500,36.91
18:30:12.203125,38.93
18:30:12.218750,41.20
18:30:12.234375,43.63
18:30:12.250000,45.88
18:30:12.265625,47.59
18:30:12.281250,48.59
18:30:12.296875,48.90
18:30:12.312500,48.64
18:30:12.328125,47.92
18:30:12.343750,46.68
18:30:12.359375,44.78
18:30:12.375000,42.10
18:30:12.390625,38.64
18:30:12.406250,34.58
18:30:12.421875,30.22
18:30:12.437500,25.85
18:30:12.453125,21.71
18:30:12.468750,17.95
18:30:12.484375,14.57
18:30:12.500000,11.49
18:30:12.515625,8.51
18:30:12.531250,5.41
18:30:12.546875,1.97
18:30:12.562500,-1.86
18:30:12.578125,-5.90
18:30:12.593750,-9.77
18:30:12.609375,-12.90
18:30:12.625000,-14.79
18:30:12.640625,-15.14
18:30:12.656250,-13.93
18:30:12.671875,-11.45
18:30:12.687500,-8.17
18:30:12.703125,-4.55
18:30:12.718750,-0.96
18:30:12.734375,2.39
18:30:12.750000,5.41
18:30:12.765625,8.03
18:30:12.781250,10.18
18:30:12.796875,11.78
18:30:12.812500,12.75
18:30:12.828125,13.10
18:30:12.843750,12.91
18:30:12.859375,12.39
18:30:12.875000,11.80
18:30:12.890625,11.37
18:30:12.906250,11.23
18:30:12.921875,11.42
18:30:12.937500,11.81
18:30:12.953125,12.26
18:30:12.968750,12.62
18:30:12.984375,12.78
18:30:13,12.69
18:30:13.015625,12.34
18:30:13.031250,11.67
18:30:13.046875,10.59
18:30:13.062500,9.02
18:30:13.078125,6.93
18:30:13.093750,4.33
18:30:13.109375,1.39
18:30:13.125000,-1.65
18:30:13.140625,-4.51
18:30:13.156250,-6.91
18:30:13.171875,-8.68
18:30:13.187500,-9.81
18:30:13.203125,-10.43
18:30:13.218750,-10.81
18:30:13.234375,-11.33
18:30:13.250000,-12.35
18:30:13.265625,-14.12
18:30:13.281250,-16.66
18:30:13.296875,-19.73
18:30:13.312500,-22.82
18:30:13.328125,-25.29
18:30:13.343750,-26.57
18:30:13.359375,-26.27
18:30:13.375000,-24.33
18:30:13.390625,-20.94
18:30:13.406250,-16.52
18:30:13.421875,-11.54
18:30:13.437500,-6.48
18:30:13.453125,-1.76
18:30:13.468750,2.31
18:30:13.484375,5.54
18:30:13.500000,7.89
18:30:13.515625,9.41
18:30:13.531250,10.24
18:30:13.546875,10.55
18:30:13.562500,10.48
18:30:13.578125,10.08
18:30:13.593750,9.41
18:30:13.609375,8.53
18:30:13.625000,7.57
18:30:13.640625,6.68
18:30:13.656250,6.06
18:30:13.671875,5.78
18:30:13.687500,5.79
18:30:13.703125,5.96
18:30:13.718750,6.09
18:30:13.734375,6.04
18:30:13.750000,5.76
18:30:13.765625,5.24
18:30:13.781250,4.54
18:30:13.796875,3.64
18:30:13.812500,2.49
18:30:13.828125,1.02
18:30:13.843750,-0.72
18:30:13.859375,-2.57
18:30:13.875000,-4.28
18:30:13.890625,-5.71
18:30:13.906250,-6.84
18:30:13.921875,-7.86
18:30:13.937500,-9.08
18:30:13.953125,-10.67
18:30:13.968750,-12.61
18:30:13.984375,-14.58
18:30:14,-16.08
18:30:14.015625,-16.61
18:30:14.031250,-15.85
18:30:14.046875,-13.76
18:30:14.062500,-10.61
18:30:14.078125,-6.80
18:30:14.093750,-2.77
18:30:14.109375,1.12
18:30:14.125000,4.67
18:30:14.140625,7.79
18:30:14.156250,10.42
18:30:14.171875,12.48
18:30:14.187500,13.88
18:30:14.203125,14.58
18:30:14.218750,14.63
18:30:14.234375,14.19
18:30:14.250000,13.53
18:30:14.265625,12.88
18:30:14.281250,12.38
18:30:14.296875,11.99
18:30:14.312500,11.57
18:30:14.328125,10.94
18:30:14.343750,10.09
18:30:14.359375,9.14
18:30:14.375000,8.38
18:30:14.390625,8.02
18:30:14.406250,8.15
18:30:14.421875,8.58
18:30:14.437500,8.98
18:30:14.453125,9.01
18:30:14.468750,8.46
18:30:14.484375,7.37
18:30:14.500000,5.89
18:30:14.515625,4.25
18:30:14.531250,2.62
18:30:14.546875,1.07
18:30:14.562500,-0.43
18:30:14.578125,-1.94
18:30:14.593750,-3.59
18:30:14.609375,-5.52
18:30:14.625000,-7.88
18:30:14.640625,-10.72
18:30:14.656250,-13.90
18:30:14.671875,-17.09
18:30:14.687500,-19.76
18:30:14.703125,-21.38
18:30:14.718750,-21.52
18:30:14.734375,-20.07
18:30:14.750000,-17.18
18:30:14.765625,-13.28
18:30:14.781250,-8.88
18:30:14.796875,-4.49
18:30:14.812500,-0.54
18:30:14.828125,2.67
18:30:14.843750,4.94
18:30:14.859375,6.27
18:30:14.875000,6.77
18:30:14.890625,6.69
18:30:14.906250,6.32
18:30:14.921875,5.93
18:30:14.937500,5.70
18:30:14.953125,5.66
18:30:14.968750,5.75
18:30:14.984375,5.86
18:30:15,5.94
18:30:15.015625,5.95
18:30:15.031250,5.91
18:30:15.046875,5.84
18:30:15.062500,5.74
18:30:15.078125,5.67
18:30:15.093750,5.67
18:30:15.109375,5.78
18:30:15.125000,5.93
18:30:15.140625,5.94
18:30:15.156250,5.57
18:30:15.171875,4.63
18:30:15.187500,3.11
18:30:15.203125,1.19
18:30:15.218750,-0.79
18:30:15.234375,-2.55
18:30:15.250000,-3.92
18:30:15.265625,-4.96
18:30:15.281250,-5.89
18:30:15.296875,-6.96
18:30:15.312500,-8.39
18:30:15.328125,-10.25
18:30:15.343750,-12.44
18:30:15.359375,-14.71
18:30:15.375000,-16.67
18:30:15.390625,-17.85
18:30:15.406250,-17.87
18:30:15.421875,-16.57
18:30:15.437500,-14.06
18:30:15.453125,-10.68
18:30:15.468750,-6.87
18:30:15.484375,-3.07
18:30:15.500000,0.40
18:30:15.515625,3.38
18:30:15.531250,5.78
18:30:15.546875,7.58
18:30:15.562500,8.73
18:30:15.578125,9.26
18:30:15.593750,9.21
18:30:15.609375,8.77
18:30:15.625000,8.19
18:30:15.640625,7.74
18:30:15.656250,7.60
18:30:15.671875,7.81
18:30:15.687500,8.25
18:30:15.703125,8.80
18:30:15.718750,9.40
18:30:15.734375,10.02
18:30:15.750000,10.66
18:30:15.765625,11.27
18:30:15.781250,11.64
18:30:15.796875,11.47
18:30:15.812500,10.51
18:30:15.828125,8.66
18:30:15.843750,6.01
18:30:15.859375,2.81
18:30:15.875000,-0.66
18:30:15.890625,-4.21
18:30:15.906250,-7.72
18:30:15.921875,-11.19
18:30:15.937500,-14.56
18:30:15.953125,-17.81
18:30:15.968750,-20.92
18:30:15.984375,-23.89
18:30:16,-26.73
18:30:16.015625,-29.39
18:30:16.031250,-31.64
18:30:16.046875,-33.07
18:30:16.062500,-33.18
18:30:16.078125,-31.57
18:30:16.093750,-28.13
18:30:16.109375,-23.16
18:30:16.125000,-17.26
18:30:16.140625,-11.11
18:30:16.156250,-5.32
18:30:16.171875,-0.19
18:30:16.187500,4.14
18:30:16.203125,7.69
18:30:16.218750,10.46
18:30:16.234375,12.37
18:30:16.250000,13.37
18:30:16.265625,13.49
18:30:16.281250,12.94
18:30:16.296875,12.01
18:30:16.312500,11.02
18:30:16.328125,10.12
18:30:16.343750,9.30
18:30:16.359375,8.42
18:30:16.375000,7.37
18:30:16.390625,6.17
18:30:16.406250,5.00
18:30:16.421875,4.12
18:30:16.437500,3.73
18:30:16.453125,3.83
18:30:16.468750,4.21
18:30:16.484375,4.57
18:30:16.500000,4.61
18:30:16.515625,4.19
18:30:16.531250,3.29
18:30:16.546875,1.99
18:30:16.562500,0.46
18:30:16.578125,-1.13
18:30:16.593750,-2.59
18:30:16.609375,-3.84
18:30:16.625000,-4.94
18:30:16.640625,-6.14
18:30:16.656250,-7.77
18:30:16.671875,-10.04
18:30:16.687500,-12.92
18:30:16.703125,-15.99
18:30:16.718750,-18.61
18:30:16.734375,-20.09
18:30:16.750000,-19.95
18:30:16.765625,-18.10
18:30:16.781250,-14.77
18:30:16.796875,-10.46
18:30:16.812500,-5.75
18:30:16.828125,-1.13
18:30:16.843750,2.99
18:30:16.859375,6.40
18:30:16.875000,9.00
18:30:16.890625,10.84
18:30:16.906250,12.02
18:30:16.921875,12.72
18:30:16.937500,13.07
18:30:16.953125,13.21
18:30:16.968750,13.21
18:30:16.984375,13.11
18:30:17,12.95
18:30:17.015625,12.75
18:30:17.031250,12.53
18:30:17.046875,12.30
18:30:17.062500,12.03
18:30:17.078125,11.67
18:30:17.093750,11.15
18:30:17.109375,10.49
18:30:17.125000,9.75
18:30:17.140625,9.01
18:30:17.156250,8.34
18:30:17.171875,7.72
18:30:17.187500,7.03
18:30:17.203125,6.16
18:30:17.218750,5.01
18:30:17.234375,3.59
18:30:17.250000,2.05
18:30:17.265625,0.51
18:30:17.281250,-0.88
18:30:17.296875,-2.13
18:30:17.312500,-3.26
18:30:17.328125,-4.39
18:30:17.343750,-5.62
18:30:17.359375,-6.99
18:30:17.375000,-8.48
18:30:17.390625,-9.91
18:30:17.406250,-11.02
18:30:17.421875,-11.48
18:30:17.437500,-10.98
18:30:17.453125,-9.34
18:30:17.468750,-6.57
18:30:17.484375,-2.82
18:30:17.500000,1.61
18:30:17.515625,6.38
18:30:17.531250,11.05
18:30:17.546875,15.19
18:30:17.562500,18.29
18:30:17.578125,20.00
18:30:17.593750,20.17
18:30:17.609375,18.95
18:30:17.625000,16.80
18:30:17.640625,14.25
18:30:17.656250,11.78
18:30:17.671875,9.57
18:30:17.687500,7.58
18:30:17.703125,5.66
18:30:17.718750,3.74
18:30:17.734375,1.92
18:30:17.750000,0.45
18:30:17.765625,-0.44
18:30:17.781250,-0.71
18:30:17.796875,-0.54
18:30:17.812500,-0.25
18:30:17.828125,-0.09
18:30:17.843750,-0.22
18:30:17.859375,-0.61
18:30:17.875000,-1.23
18:30:17.890625,-2.05
18:30:17.906250,-3.13
18:30:17.921875,-4.55
18:30:17.937500,-6.28
18:30:17.953125,-8.19
18:30:17.968750,-9.98
18:30:17.984375,-11.41
18:30:18,-12.34
18:30:18.015625,-12.84
18:30:18.031250,-13.11
18:30:18.046875,-13.31
18:30:18.062500,-13.42
18:30:18.078125,-13.17
18:30:18.093750,-12.18
18:30:18.109375,-10.14
18:30:18.125000,-6.96
18:30:18.140625,-2.88
18:30:18.156250,1.71
18:30:18.171875,6.42
18:30:18.187500,11.08
18:30:18.203125,15.70
18:30:18.218750,20.42
18:30:18.234375,25.37
18:30:18.250000,30.46
18:30:18.265625,35.49
18:30:18.281250,40.18
18:30:18.296875,44.33
18:30:18.312500,47.88
18:30:18.328125,50.79
18:30:18.343750,52.94
18:30:18.359375,54.03
18:30:18.375000,53.66
18:30:18.390625,51.44
18:30:18.406250,47.20
18:30:18.421875,41.12
18:30:18.437500,33.68
18:30:18.453125,25.51
18:30:18.468750,17.32
18:30:18.484375,9.74
18:30:18.500000,3.30
18:30:18.515625,-1.63
18:30:18.531250,-4.94
18:30:18.546875,-6.82
18:30:18.562500,-7.83
18:30:18.578125,-8.71
18:30:18.593750,-10.19
18:30:18.609375,-12.69
18:30:18.625000,-16.31
18:30:18.640625,-20.86
18:30:18.656250,-26.01
18:30:18.671875,-31.44
18:30:18.687500,-36.92
18:30:18.703125,-42.22
18:30:18.718750,-47.09
18:30:18.734375,-51.18
18:30:18.750000,-54.11
18:30:18.765625,-55.52
18:30:18.781250,-55.14
18:30:18.796875,-52.84
18:30:18.812500,-48.68
18:30:18.828125,-42.95
18:30:18.843750,-36.18
18:30:18.859375,-29.09
18:30:18.875000,-22.42
18:30:18.890625,-16.75
18:30:18.906250,-12.35
18:30:18.921875,-9.21
18:30:18.937500,-7.07
18:30:18.953125,-5.69
18:30:18.968750,-4.86
18:30:18.984375,-4.46
18:30:19,-4.37
18:30:19.015625,-4.49
18:30:19.031250,-4.64
18:30:19.046875,-4.67
18:30:19.062500,-4.48
18:30:19.078125,-4.03
18:30:19.093750,-3.40
18:30:19.109375,-2.68
18:30:19.125000,-1.94
18:30:19.140625,-1.23
18:30:19.156250,-0.53
18:30:19.171875,0.20
18:30:19.187500,0.94
18:30:19.203125,1.63
18:30:19.218750,2.09
18:30:19.234375,2.12
18:30:19.250000,1.53
18:30:19.265625,0.25
18:30:19.281250,-1.57
18:30:19.296875,-3.63
18:30:19.312500,-5.61
18:30:19.328125,-7.26
18:30:19.343750,-8.57
18:30:19.359375,-9.72
18:30:19.375000,-11.01
18:30:19.390625,-12.67
18:30:19.406250,-14.73
18:30:19.421875,-16.94
18:30:19.437500,-18.82
18:30:19.453125,-19.85
18:30:19.468750,-19.54
18:30:19.484375,-17.67
18:30:19.500000,-14.32
18:30:19.515625,-9.85
18:30:19.531250,-4.82
18:30:19.546875,0.19
18:30:19.562500,4.64
18:30:19.578125,8.16
18:30:19.593750,10.53
18:30:19.609375,11.66
18:30:19.625000,11.60
18:30:19.640625,10.51
18:30:19.656250,8.76
18:30:19.671875,6.82
18:30:19.687500,5.12
18:30:19.703125,3.94
18:30:19.718750,3.28
18:30:19.734375,2.85
18:30:19.750000,2.32
18:30:19.765625,1.45
18:30:19.781250,0.33
18:30:19.796875,-0.71
18:30:19.812500,-1.30
18:30:19.828125,-1.26
18:30:19.843750,-0.72
18:30:19.859375,-0.11
18:30:19.875000,0.08
18:30:19.890625,-0.43
18:30:19.906250,-1.63
18:30:19.921875,-3.24
18:30:19.937500,-4.92
18:30:19.953125,-6.44
18:30:19.968750,-7.77
18:30:19.984375,-9.08
18:30:20,-10.54
18:30:20.015625,-12.29
18:30:20.031250,-14.31
18:30:20.046875,-16.52
18:30:20.062500,-18.74
18:30:20.078125,-20.76
18:30:20.093750,-22.34
18:30:20.109375,-23.25
18:30:20.125000,-23.28
18:30:20.140625,-22.34
18:30:20.156250,-20.41
18:30:20.171875,-17.65
18:30:20.187500,-14.29
18:30:20.203125,-10.69
18:30:20.218750,-7.21
18:30:20.234375,-4.21
18:30:20.250000,-1.93
18:30:20.265625,-0.48
18:30:20.281250,0.24
18:30:20.296875,0.45
18:30:20.312500,0.42
18:30:20.328125,0.37
18:30:20.343750,0.44
18:30:20.359375,0.75
18:30:20.375000,1.40
18:30:20.390625,2.42
18:30:20.406250,3.81
18:30:20.421875,5.44
18:30:20.437500,7.15
18:30:20.453125,8.82
18:30:20.468750,10.44
18:30:20.484375,12.09
18:30:20.500000,13.82
18:30:20.515625,15.55
18:30:20.531250,17.03
18:30:20.546875,17.94
18:30:20.562500,18.03
18:30:20.578125,17.26
18:30:20.593750,15.77
18:30:20.609375,13.79
18:30:20.625000,11.53
18:30:20.640625,9.07
18:30:20.656250,6.41
18:30:20.671875,3.49
18:30:20.687500,0.29
18:30:20.703125,-3.11
18:30:20.718750,-6.48
18:30:20.734375,-9.48
18:30:20.750000,-11.69
18:30:20.765625,-12.76
18:30:20.781250,-12.50
18:30:20.796875,-11.04
18:30:20.812500,-8.69
18:30:20.828125,-5.84
18:30:20.843750,-2.77
18:30:20.859375,0.43
18:30:20.875000,3.76
18:30:20.890625,7.22
18:30:20.906250,10.61
18:30:20.921875,13.62
18:30:20.937500,15.92
18:30:20.953125,17.32
18:30:20.968750,17.84
18:30:20.984375,17.74
18:30:21,17.30
18:30:21.015625,16.73
18:30:21.031250,16.09
18:30:21.046875,15.28
18:30:21.062500,14.16
18:30:21.078125,12.66
18:30:21.093750,10.88
18:30:21.109375,9.03
18:30:21.125000,7.33
18:30:21.140625,5.91
18:30:21.156250,4.70
18:30:21.171875,3.56
18:30:21.187500,2.34
18:30:21.203125,1.04
18:30:21.218750,-0.15
18:30:21.234375,-0.98
18:30:21.250000,-1.32
18:30:21.265625,-1.23
18:30:21.281250,-1.01
18:30:21.296875,-1.10
18:30:21.312500,-1.83
18:30:21.328125,-3.35
18:30:21.343750,-5.52
18:30:21.359375,-7.99
18:30:21.375000,-10.27
18:30:21.390625,-11.90
18:30:21.406250,-12.47
18:30:21.421875,-11.78
18:30:21.437500,-9.89
18:30:21.453125,-7.07
18:30:21.468750,-3.76
18:30:21.484375,-0.44
18:30:21.500000,2.52
18:30:21.515625,4.86
18:30:21.531250,6.44
18:30:21.546875,7.22
18:30:21.562500,7.25
18:30:21.578125,6.65
18:30:21.593750,5.62
18:30:21.609375,4.45
18:30:21.625000,3.36
18:30:21.640625,2.56
18:30:21.656250,2.11
18:30:21.671875,2.00
18:30:21.687500,2.17
18:30:21.703125,2.55
18:30:21.718750,3.01
18:30:21.734375,3.45
18:30:21.750000,3.71
18:30:21.765625,3.65
18:30:21.781250,3.22
18:30:21.796875,2.42
18:30:21.812500,1.35
18:30:21.828125,0.11
18:30:21.843750,-1.22
18:30:21.859375,-2.60
18:30:21.875000,-3.98
18:30:21.890625,-5.30
18:30:21.906250,-6.48
18:30:21.921875,-7.47
18:30:21.937500,-8.30
18:30:21.953125,-9.11
18:30:21.968750,-10.09
18:30:21.984375,-11.32
18:30:22,-12.72
18:30:22.015625,-14.00
18:30:22.031250,-14.68
18:30:22.046875,-14.36
18:30:22.062500,-12.81
18:30:22.078125,-10.14
18:30:22.093750,-6.73
18:30:22.109375,-3.09
18:30:22.125000,0.32
18:30:22.140625,3.24
18:30:22.156250,5.62
18:30:22.171875,7.53
18:30:22.187500,9.01
18:30:22.203125,10.05
18:30:22.218750,10.58
18:30:22.234375,10.56
18:30:22.250000,10.03
18:30:22.265625,9.17
18:30:22.281250,8.18
18:30:22.296875,7.29
18:30:22.312500,6.62
18:30:22.328125,6.19
18:30:22.343750,5.94
18:30:22.359375,5.78
18:30:22.375000,5.62
18:30:22.390625,5.41
18:30:22.406250,5.18
18:30:22.421875,4.95
18:30:22.437500,4.72
18:30:22.453125,4.41
18:30:22.468750,3.92
18:30:22.484375,3.11
18:30:22.500000,1.90
18:30:22.515625,0.35
18:30:22.531250,-1.44
18:30:22.546875,-3.35
18:30:22.562500,-5.33
18:30:22.578125,-7.44
18:30:22.593750,-9.76
18:30:22.609375,-12.32
18:30:22.625000,-14.95
18:30:22.640625,-17.28
18:30:22.656250,-18.79
18:30:22.671875,-19.03
18:30:22.687500,-17.78
18:30:22.703125,-15.12
18:30:22.718750,-11.44
18:30:22.734375,-7.26
18:30:22.750000,-3.08
18:30:22.765625,0.72
18:30:22.781250,3.91
18:30:22.796875,6.38
18:30:22.812500,8.03
18:30:22.828125,8.84
18:30:22.843750,8.84
18:30:22.859375,8.22
18:30:22.875000,7.25
18:30:22.890625,6.26
18:30:22.906250,5.47
18:30:22.921875,4.99
18:30:22.937500,4.81
18:30:22.953125,4.82
18:30:22.968750,4.95
18:30:22.984375,5.10
18:30:23,5.19
18:30:23.015625,5.14
18:30:23.031250,4.87
18:30:23.046875,4.37
18:30:23.062500,3.69
18:30:23.078125,2.94
18:30:23.093750,2.22
18:30:23.109375,1.53
18:30:23.125000,0.82
18:30:23.140625,-0.02
18:30:23.156250,-1.06
18:30:23.171875,-2.32
18:30:23.187500,-3.77
18:30:23.203125,-5.35
18:30:23.218750,-7.00
18:30:23.234375,-8.61
18:30:23.250000,-9.97
18:30:23.265625,-10.77
18:30:23.281250,-10.62
18:30:23.296875,-9.20
18:30:23.312500,-6.35
18:30:23.328125,-2.18
18:30:23.343750,2.91
18:30:23.359375,8.30
18:30:23.375000,13.32
18:30:23.390625,17.39
18:30:23.406250,20.15
18:30:23.421875,21.51
18:30:23.437500,21.57
18:30:23.453125,20.58
18:30:23.468750,18.84
18:30:23.484375,16.64
18:30:23.500000,14.27
18:30:23.515625,11.95
18:30:23.531250,9.88
18:30:23.546875,8.17
18:30:23.562500,6.85
18:30:23.578125,5.89
18:30:23.593750,5.18
18:30:23.609375,4.64
18:30:23.625000,4.24
18:30:23.640625,4.04
18:30:23.656250,4.14
18:30:23.671875,4.62
18:30:23.687500,5.48
18:30:23.703125,6.55
18:30:23.718750,7.58
18:30:23.734375,8.28
18:30:23.750000,8.42
18:30:23.765625,7.91
18:30:23.781250,6.75
18:30:23.796875,4.96
18:30:23.812500,2.50
18:30:23.828125,-0.65
18:30:23.843750,-4.43
18:30:23.859375,-8.47
18:30:23.875000,-12.08
18:30:23.890625,-14.46
18:30:23.906250,-14.96
18:30:23.921875,-13.39
18:30:23.937500,-10.14
18:30:23.953125,-6.02
18:30:23.968750,-1.93
18:30:23.984375,1.46
18:30:24,3.87
18:30:24.015625,5.42
18:30:24.031250,6.34
18:30:24.046875,6.86
18:30:24.062500,7.01
18:30:24.078125,6.75
18:30:24.093750,6.01
18:30:24.109375,4.83
18:30:24.125000,3.39
18:30:24.140625,1.91
18:30:24.156250,0.62
18:30:24.171875,-0.33
18:30:24.187500,-0.88
18:30:24.203125,-1.09
18:30:24.218750,-1.12
18:30:24.234375,-1.14
18:30:24.250000,-1.33
18:30:24.265625,-1.77
18:30:24.281250,-2.42
18:30:24.296875,-3.18
18:30:24.312500,-3.91
18:30:24.328125,-4.55
18:30:24.343750,-5.13
18:30:24.359375,-5.76
18:30:24.375000,-6.63
18:30:24.390625,-7.89
18:30:24.406250,-9.63
18:30:24.421875,-11.82
18:30:24.437500,-14.26
18:30:24.453125,-16.61
18:30:24.468750,-18.46
18:30:24.484375,-19.43
18:30:24.500000,-19.23
18:30:24.515625,-17.80
18:30:24.531250,-15.28
18:30:24.546875,-11.96
18:30:24.562500,-8.22
18:30:24.578125,-4.45
18:30:24.593750,-0.97
18:30:24.609375,1.97
18:30:24.625000,4.23
18:30:24.640625,5.77
18:30:24.656250,6.62
18:30:24.671875,6.83
18:30:24.687500,6.54
18:30:24.703125,5.89
18:30:24.718750,5.09
18:30:24.734375,4.40
18:30:24.750000,4.05
18:30:24.765625,4.14
18:30:24.781250,4.64
18:30:24.796875,5.31
18:30:24.812500,5.82
18:30:24.828125,5.85
18:30:24.843750,5.29
18:30:24.859375,4.17
18:30:24.875000,2.71
18:30:24.890625,1.13
18:30:24.906250,-0.34
18:30:24.921875,-1.62
18:30:24.937500,-2.68
18:30:24.953125,-3.57
18:30:24.968750,-4.38
18:30:24.984375,-5.24
18:30:25,-6.24
18:30:25.015625,-7.41
18:30:25.031250,-8.62
18:30:25.046875,-9.58
18:30:25.062500,-9.88
18:30:25.078125,-9.19
18:30:25.093750,-7.35
18:30:25.109375,-4.52
18:30:25.125000,-1.15
18:30:25.140625,2.18
18:30:25.156250,4.97
18:30:25.171875,6.96
18:30:25.187500,8.27
18:30:25.203125,9.30
18:30:25.218750,10.62
18:30:25.234375,12.61
18:30:25.250000,15.36
18:30:25.265625,18.52
18:30:25.281250,21.43
18:30:25.296875,23.47
18:30:25.312500,24.31
18:30:25.328125,24.11
18:30:25.343750,23.41
18:30:25.359375,22.84
18:30:25.375000,22.91
18:30:25.390625,23.78
18:30:25.406250,25.29
18:30:25.421875,27.11
18:30:25.437500,28.85
18:30:25.453125,30.13
18:30:25.468750,30.56
18:30:25.484375,29.78
18:30:25.500000,27.57
18:30:25.515625,23.99
18:30:25.531250,19.44
18:30:25.546875,14.55
18:30:25.562500,9.97
18:30:25.578125,6.15
18:30:25.593750,3.09
18:30:25.609375,0.46
18:30:25.625000,-2.29
18:30:25.640625,-5.66
18:30:25.656250,-9.82
18:30:25.671875,-14.55
18:30:25.687500,-19.32
18:30:25.703125,-23.42
18:30:25.718750,-26.31
18:30:25.734375,-27.76
18:30:25.750000,-27.91
18:30:25.765625,-27.08
18:30:25.781250,-25.59
18:30:25.796875,-23.67
18:30:25.812500,-21.46
18:30:25.828125,-19.18
18:30:25.843750,-17.28
18:30:25.859375,-16.39
18:30:25.875000,-17.07
18:30:25.890625,-19.52
18:30:25.906250,-23.31
18:30:25.921875,-27.51
18:30:25.937500,-31.00
18:30:25.953125,-32.87
18:30:25.968750,-32.75
18:30:25.984375,-30.83
18:30:26,-27.76
18:30:26.015625,-24.25
18:30:26.031250,-20.90
18:30:26.046875,-18.07
18:30:26.062500,-15.89
18:30:26.078125,-14.34
18:30:26.093750,-13.33
18:30:26.109375,-12.70
18:30:26.125000,-12.15
18:30:26.140625,-11.38
18:30:26.156250,-10.14
18:30:26.171875,-8.40
18:30:26.187500,-6.40
18:30:26.203125,-4.65
18:30:26.218750,-3.70
18:30:26.234375,-3.91
18:30:26.250000,-5.33
18:30:26.265625,-7.61
18:30:26.281250,-10.16
18:30:26.296875,-12.28
18:30:26.312500,-13.36
18:30:26.328125,-13.01
18:30:26.343750,-11.11
18:30:26.359375,-7.86
18:30:26.375000,-3.71
18:30:26.390625,0.74
18:30:26.406250,4.87
18:30:26.421875,8.27
18:30:26.437500,10.77
18:30:26.453125,12.44
18:30:26.468750,13.48
18:30:26.484375,14.03
18:30:26.500000,14.13
18:30:26.515625,13.68
18:30:26.531250,12.63
18:30:26.546875,11.06
18:30:26.562500,9.24
18:30:26.578125,7.50
18:30:26.593750,6.12
18:30:26.609375,5.22
18:30:26.625000,4.71
18:30:26.640625,4.33
18:30:26.656250,3.84
18:30:26.671875,3.11
18:30:26.687500,2.16
18:30:26.703125,1.16
18:30:26.718750,0.32
18:30:26.734375,-0.20
18:30:26.750000,-0.38
18:30:26.765625,-0.28
18:30:26.781250,-0.05
18:30:26.796875,0.17
18:30:26.812500,0.27
18:30:26.828125,0.25
18:30:26.843750,0.16
18:30:26.859375,0.15
18:30:26.875000,0.40
18:30:26.890625,1.07
18:30:26.906250,2.28
18:30:26.921875,4.01
18:30:26.937500,6.09
18:30:26.953125,8.31
18:30:26.968750,10.56
18:30:26.984375,12.96
18:30:27,15.86
18:30:27.015625,19.74
18:30:27.031250,24.98
18:30:27.046875,31.78
18:30:27.062500,40.03
18:30:27.078125,49.30
18:30:27.093750,58.80
18:30:27.109375,67.31
18:30:27.125000,73.35
18:30:27.140625,75.48
18:30:27.156250,72.88
18:30:27.171875,65.87
18:30:27.187500,55.95
18:30:27.203125,45.40
18:30:27.218750,36.40
18:30:27.234375,30.27
18:30:27.250000,27.09
18:30:27.265625,26.01
18:30:27.281250,25.94
18:30:27.296875,26.19
18:30:27.312500,26.72
18:30:27.328125,27.81
18:30:27.343750,29.62
18:30:27.359375,31.86
18:30:27.375000,33.86
18:30:27.390625,34.93
18:30:27.406250,34.78
18:30:27.421875,33.70
18:30:27.437500,32.39
18:30:27.453125,31.69
18:30:27.468750,32.23
18:30:27.484375,34.37
18:30:27.500000,38.17
18:30:27.515625,43.47
18:30:27.531250,49.89
18:30:27.546875,56.87
18:30:27.562500,63.63
18:30:27.578125,69.34
18:30:27.593750,73.38
18:30:27.609375,75.61
18:30:27.625000,76.39
18:30:27.640625,76.55
18:30:27.656250,76.95
18:30:27.671875,78.13
18:30:27.687500,79.85
18:30:27.703125,81.01
18:30:27.718750,79.64
18:30:27.734375,73.40
18:30:27.750000,60.19
18:30:27.765625,38.75
18:30:27.781250,9.11
18:30:27.796875,-27.22
18:30:27.812500,-67.59
18:30:27.828125,-108.72
18:30:27.843750,-147.45
18:30:27.859375,-181.30
18:30:27.875000,-208.83
18:30:27.890625,-229.66
18:30:27.906250,-244.05
18:30:27.921875,-252.48
18:30:27.937500,-255.13
18:30:27.953125,-251.81
18:30:27.968750,-242.15
18:30:27.984375,-226.09
18:30:28,-204.41
18:30:28.015625,-178.93
18:30:28.031250,-152.21
18:30:28.046875,-126.83
18:30:28.062500,-104.61
18:30:28.078125,-86.16
18:30:28.093750,-71.03
18:30:28.109375,-58.27
18:30:28.125000,-47.01
18:30:28.140625,-36.90
18:30:28.156250,-27.98
18:30:28.171875,-20.31
18:30:28.187500,-13.61
18:30:28.203125,-7.24
18:30:28.218750,-0.46
18:30:28.234375,7.12
18:30:28.250000,15.26
18:30:28.265625,23.16
18:30:28.281250,29.85
18:30:28.296875,34.69
18:30:28.312500,37.66
18:30:28.328125,39.31
18:30:28.343750,40.41
18:30:28.359375,41.53
18:30:28.375000,42.83
18:30:28.390625,44.01
18:30:28.406250,44.61
18:30:28.421875,44.22
18:30:28.437500,42.67
18:30:28.453125,40.05
18:30:28.468750,36.65
18:30:28.484375,32.81
18:30:28.500000,28.89
18:30:28.515625,25.21
18:30:28.531250,21.96
18:30:28.546875,19.26
18:30:28.562500,17.03
18:30:28.578125,15.03
18:30:28.593750,13.00
18:30:28.609375,10.68
18:30:28.625000,7.96
18:30:28.640625,4.82
18:30:28.656250,1.38
18:30:28.671875,-2.20
18:30:28.687500,-5.67
18:30:28.703125,-8.66
18:30:28.718750,-10.71
18:30:28.734375,-11.37
18:30:28.750000,-10.36
18:30:28.765625,-7.71
18:30:28.781250,-3.80
18:30:28.796875,0.73
18:30:28.812500,5.15
18:30:28.828125,8.91
18:30:28.843750,11.74
18:30:28.859375,13.63
18:30:28.875000,14.77
18:30:28.890625,15.35
18:30:28.906250,15.48
18:30:28.921875,15.21
18:30:28.937500,14.54
18:30:28.953125,13.48
18:30:28.968750,12.11
18:30:28.984375,10.59
18:30:29,9.11
18:30:29.015625,7.85
18:30:29.031250,6.94
18:30:29.046875,6.47
18:30:29.062500,6.48
18:30:29.078125,6.90
18:30:29.093750,7.53
18:30:29.109375,8.13
18:30:29.125000,8.42
18:30:29.140625,8.21
18:30:29.156250,7.44
18:30:29.171875,6.14
18:30:29.187500,4.43
18:30:29.203125,2.44
18:30:29.218750,0.26
18:30:29.234375,-2.00
18:30:29.250000,-4.22
18:30:29.265625,-6.27
18:30:29.281250,-8.08
18:30:29.296875,-9.66
18:30:29.312500,-11.07
18:30:29.328125,-12.28
18:30:29.343750,-13.11
18:30:29.359375,-13.12
18:30:29.375000,-11.85
18:30:29.390625,-8.95
18:30:29.406250,-4.46
18:30:29.421875,1.13
18:30:29.437500,7.01
18:30:29.453125,12.35
18:30:29.468750,16.55
18:30:29.484375,19.38
18:30:29.500000,20.95
18:30:29.515625,21.60
18:30:29.531250,21.74
18:30:29.546875,21.72
18:30:29.562500,21.78
18:30:29.578125,22.07
18:30:29.593750,22.58
18:30:29.609375,23.24
18:30:29.625000,23.90
18:30:29.640625,24.30
18:30:29.656250,24.23
18:30:29.671875,23.54
18:30:29.687500,22.24
18:30:29.703125,20.51
18:30:29.718750,18.57
18:30:29.734375,16.65
18:30:29.750000,14.79
18:30:29.765625,12.85
18:30:29.781250,10.58
18:30:29.796875,7.75
18:30:29.812500,4.34
18:30:29.828125,0.60
18:30:29.843750,-3.06
18:30:29.859375,-6.18
18:30:29.875000,-8.46
18:30:29.890625,-9.87
18:30:29.906250,-10.66
18:30:29.921875,-11.21
18:30:29.937500,-11.96
18:30:29.953125,-13.22
18:30:29.968750,-15.02
18:30:29.984375,-17.09
18:30:30,-18.90
18:30:30.015625,-19.80
18:30:30.031250,-19.32
18:30:30.046875,-17.25
18:30:30.062500,-13.72
18:30:30.078125,-9.12
18:30:30.093750,-3.95
18:30:30.109375,1.35
18:30:30.125000,6.38
18:30:30.140625,10.84
18:30:30.156250,14.44
18:30:30.171875,16.91
18:30:30.187500,18.17
18:30:30.203125,18.32
18:30:30.218750,17.65
18:30:30.234375,16.56
18:30:30.250000,15.44
18:30:30.265625,14.50
18:30:30.281250,13.82
18:30:30.296875,13.28
18:30:30.312500,12.75
18:30:30.328125,12.08
18:30:30.343750,11.22
18:30:30.359375,10.19
18:30:30.375000,9.10
18:30:30.390625,8.07
18:30:30.406250,7.20
18:30:30.421875,6.50
18:30:30.437500,5.88
18:30:30.453125,5.20
18:30:30.468750,4.31
18:30:30.484375,3.18
18:30:30.500000,1.84
18:30:30.515625,0.49
18:30:30.531250,-0.72
18:30:30.546875,-1.69
18:30:30.562500,-2.49
18:30:30.578125,-3.29
18:30:30.593750,-4.36
18:30:30.609375,-5.85
18:30:30.625000,-7.79
18:30:30.640625,-9.99
18:30:30.656250,-12.08
18:30:30.671875,-13.66
18:30:30.687500,-14.39
18:30:30.703125,-14.05
18:30:30.718750,-12.56
18:30:30.734375,-9.98
18:30:30.750000,-6.49
18:30:30.765625,-2.39
18:30:30.781250,1.93
18:30:30.796875,6.00
18:30:30.812500,9.35
18:30:30.828125,11.65
18:30:30.843750,12.80
18:30:30.859375,12.91
18:30:30.875000,12.29
18:30:30.890625,11.30
18:30:30.906250,10.22
18:30:30.921875,9.19
18:30:30.937500,8.23
18:30:30.953125,7.30
18:30:30.968750,6.38
18:30:30.984375,5.50
18:30:31,4.72
18:30:31.015625,4.14
18:30:31.031250,3.82
18:30:31.046875,3.81
18:30:31.062500,4.13
18:30:31.078125,4.72
18:30:31.093750,5.45
18:30:31.109375,6.13
18:30:31.125000,6.48
18:30:31.140625,6.27
18:30:31.156250,5.35
18:30:31.171875,3.71
18:30:31.187500,1.49
18:30:31.203125,-1.07
18:30:31.218750,-3.70
18:30:31.234375,-6.12
18:30:31.250000,-8.19
18:30:31.265625,-9.90
18:30:31.281250,-11.42
18:30:31.296875,-12.98
18:30:31.312500,-14.78
18:30:31.328125,-16.82
18:30:31.343750,-18.77
18:30:31.359375,-20.09
18:30:31.375000,-20.22
18:30:31.390625,-18.83
18:30:31.406250,-15.99
18:30:31.421875,-12.13
18:30:31.437500,-7.93
18:30:31.453125,-4.00
18:30:31.468750,-0.78
18:30:31.484375,1.54
18:30:31.500000,2.97
18:30:31.515625,3.56
18:30:31.531250,3.35
18:30:31.546875,2.31
18:30:31.562500,0.45
18:30:31.578125,-2.16
18:30:31.593750,-5.29
18:30:31.609375,-8.59
18:30:31.625000,-11.65
18:30:31.640625,-14.14
18:30:31.656250,-15.88
18:30:31.671875,-16.91
18:30:31.687500,-17.46
18:30:31.703125,-17.79
18:30:31.718750,-18.15
18:30:31.734375,-18.61
18:30:31.750000,-19.13
18:30:31.765625,-19.65
18:30:31.781250,-20.10
18:30:31.796875,-20.53
18:30:31.812500,-21.01
18:30:31.828125,-21.58
18:30:31.843750,-22.18
18:30:31.859375,-22.68
18:30:31.875000,-22.86
18:30:31.890625,-22.56
18:30:31.906250,-21.75
18:30:31.921875,-20.55
18:30:31.937500,-19.20
18:30:31.953125,-17.94
18:30:31.968750,-16.91
18:30:31.984375,-16.08
18:30:32,-15.24
18:30:32.015625,-14.04
18:30:32.031250,-12.10
18:30:32.046875,-9.15
18:30:32.062500,-5.08
18:30:32.078125,0.02
18:30:32.093750,5.91
18:30:32.109375,12.23
18:30:32.125000,18.61
18:30:32.140625,24.66
18:30:32.156250,29.99
18:30:32.171875,34.25
18:30:32.187500,37.17
18:30:32.203125,38.72
18:30:32.218750,39.13
18:30:32.234375,38.87
18:30:32.250000,38.49
18:30:32.265625,38.36
18:30:32.281250,38.53
18:30:32.296875,38.74
18:30:32.312500,38.54
18:30:32.328125,37.64
18:30:32.343750,36.09
18:30:32.359375,34.36
18:30:32.375000,33.09
18:30:32.390625,32.78
18:30:32.406250,33.51
18:30:32.421875,34.88
18:30:32.437500,36.16
18:30:32.453125,36.56
18:30:32.468750,35.52
18:30:32.484375,32.83
18:30:32.500000,28.62
18:30:32.515625,23.47
18:30:32.531250,18.31
18:30:32.546875,14.44
18:30:32.562500,13.32
18:30:32.578125,16.21
18:30:32.593750,23.66
18:30:32.609375,35.06
18:30:32.625000,48.64
18:30:32.640625,61.99
18:30:32.656250,72.87
18:30:32.671875,80.09
18:30:32.687500,83.69
18:30:32.703125,84.58
18:30:32.718750,83.67
18:30:32.734375,81.12
18:30:32.750000,76.21
18:30:32.765625,67.87
18:30:32.781250,55.60
18:30:32.796875,40.10
18:30:32.812500,23.22
18:30:32.828125,7.23
18:30:32.843750,-6.14
18:30:32.859375,-16.37
18:30:32.875000,-24.09
18:30:32.890625,-30.34
18:30:32.906250,-35.82
18:30:32.921875,-40.46
18:30:32.937500,-43.62
18:30:32.953125,-44.62
18:30:32.968750,-43.33
18:30:32.984375,-40.37
18:30:33,-36.79
18:30:33.015625,-33.50
18:30:33.031250,-30.79
18:30:33.046875,-28.18
18:30:33.062500,-24.67
18:30:33.078125,-19.28
18:30:33.093750,-11.57
18:30:33.109375,-1.99
18:30:33.125000,7.99
18:30:33.140625,16.18
18:30:33.156250,20.11
18:30:33.171875,17.77
18:30:33.187500,8.21
18:30:33.203125,-8.01
18:30:33.218750,-28.99
18:30:33.234375,-51.97
18:30:33.250000,-74.17
18:30:33.265625,-93.47
18:30:33.281250,-108.67
18:30:33.296875,-119.25
18:30:33.312500,-125.03
18:30:33.328125,-125.88
18:30:33.343750,-121.74
18:30:33.359375,-112.94
18:30:33.375000,-100.43
18:30:33.390625,-85.74
18:30:33.406250,-70.60
18:30:33.421875,-56.40
18:30:33.437500,-43.78
18:30:33.453125,-32.63
18:30:33.468750,-22.40
18:30:33.484375,-12.57
18:30:33.500000,-3.00
18:30:33.515625,5.95
18:30:33.531250,13.67
18:30:33.546875,19.57
18:30:33.562500,23.33
18:30:33.578125,24.96
18:30:33.593750,24.84
18:30:33.609375,23.54
18:30:33.625000,21.70
18:30:33.640625,19.87
18:30:33.656250,18.38
18:30:33.671875,17.26
18:30:33.687500,16.25
18:30:33.703125,14.97
18:30:33.718750,13.23
18:30:33.734375,11.20
18:30:33.750000,9.38
18:30:33.765625,8.41
18:30:33.781250,8.63
18:30:33.796875,9.82
18:30:33.812500,11.20
18:30:33.828125,11.75
18:30:33.843750,10.63
18:30:33.859375,7.56
18:30:33.875000,2.84
18:30:33.890625,-2.85
18:30:33.906250,-8.73
18:30:33.921875,-14.24
18:30:33.937500,-18.99
18:30:33.953125,-22.64
18:30:33.968750,-24.84
18:30:33.984375,-25.18
18:30:34,-23.38
18:30:34.015625,-19.49
18:30:34.031250,-14.00
18:30:34.046875,-7.74
18:30:34.062500,-1.61
18:30:34.078125,3.68
18:30:34.093750,7.78
18:30:34.109375,10.74
18:30:34.125000,12.84
18:30:34.140625,14.39
18:30:34.156250,15.61
18:30:34.171875,16.61
18:30:34.187500,17.45
18:30:34.203125,18.17
18:30:34.218750,18.89
18:30:34.234375,19.78
18:30:34.250000,20.94
18:30:34.265625,22.41
18:30:34.281250,24.08
18:30:34.296875,25.67
18:30:34.312500,26.80
18:30:34.328125,27.11
18:30:34.343750,26.37
18:30:34.359375,24.60
18:30:34.375000,22.09
18:30:34.390625,19.24
18:30:34.406250,16.39
18:30:34.421875,13.69
18:30:34.437500,11.05
18:30:34.453125,8.24
18:30:34.468750,4.96
18:30:34.484375,1.01
18:30:34.500000,-3.66
18:30:34.515625,-8.98
18:30:34.531250,-14.81
18:30:34.546875,-20.86
18:30:34.562500,-26.70
18:30:34.578125,-31.72
18:30:34.593750,-35.17
18:30:34.609375,-36.39
18:30:34.625000,-34.93
18:30:34.640625,-30.83
18:30:34.656250,-24.62
18:30:34.671875,-17.16
18:30:34.687500,-9.37
18:30:34.703125,-1.99
18:30:34.718750,4.65
18:30:34.734375,10.56
18:30:34.750000,15.85
18:30:34.765625,20.63
18:30:34.781250,24.83
18:30:34.796875,28.27
18:30:34.812500,30.74
18:30:34.828125,32.13
18:30:34.843750,32.45
18:30:34.859375,31.76
18:30:34.875000,30.16
18:30:34.890625,27.77
18:30:34.906250,24.65
18:30:34.921875,20.86
18:30:34.937500,16.48
18:30:34.953125,11.56
18:30:34.968750,6.18
18:30:34.984375,0.48
18:30:35,-5.34
18:30:35.015625,-10.99
18:30:35.031250,-16.19
18:30:35.046875,-20.77
18:30:35.062500,-24.70
18:30:35.078125,-28.09
18:30:35.093750,-31.09
18:30:35.109375,-33.79
18:30:35.125000,-36.20
18:30:35.140625,-38.19
18:30:35.156250,-39.70
18:30:35.171875,-40.72
18:30:35.187500,-41.22
18:30:35.203125,-41.15
18:30:35.218750,-40.21
18:30:35.234375,-37.95
18:30:35.250000,-33.99
18:30:35.265625,-28.20
18:30:35.281250,-20.96
18:30:35.296875,-13.08
18:30:35.312500,-5.53
18:30:35.328125,0.83
18:30:35.343750,5.56
18:30:35.359375,8.70
18:30:35.375000,10.57
18:30:35.390625,11.64
18:30:35.406250,12.23
18:30:35.421875,12.52
18:30:35.437500,12.54
18:30:35.453125,12.32
18:30:35.468750,11.90
18:30:35.484375,11.44
18:30:35.500000,11.11
18:30:35.515625,11.05
18:30:35.531250,11.32
18:30:35.546875,11.84
18:30:35.562500,12.39
18:30:35.578125,12.74
18:30:35.593750,12.69
18:30:35.609375,12.18
18:30:35.625000,11.26
18:30:35.640625,10.12
18:30:35.656250,8.92
18:30:35.671875,7.83
18:30:35.687500,6.93
18:30:35.703125,6.24
18:30:35.718750,5.63
18:30:35.734375,4.91
18:30:35.750000,3.84
18:30:35.765625,2.18
18:30:35.781250,-0.11
18:30:35.796875,-2.94
18:30:35.812500,-5.96
18:30:35.828125,-8.70
18:30:35.843750,-10.64
18:30:35.859375,-11.35
18:30:35.875000,-10.52
18:30:35.890625,-8.13
18:30:35.906250,-4.42
18:30:35.921875,0.10
18:30:35.937500,4.78
18:30:35.953125,9.00
18:30:35.968750,12.32
18:30:35.984375,14.59
18:30:36,15.94
18:30:36.015625,16.64
18:30:36.031250,16.92
18:30:36.046875,16.90
18:30:36.062500,16.56
18:30:36.078125,15.91
18:30:36.093750,15.00
18:30:36.109375,13.94
18:30:36.125000,12.90
18:30:36.140625,11.96
18:30:36.156250,11.12
18:30:36.171875,10.26
18:30:36.187500,9.30
18:30:36.203125,8.18
18:30:36.218750,6.97
18:30:36.234375,5.78
18:30:36.250000,4.68
18:30:36.265625,3.69
18:30:36.281250,2.77
18:30:36.296875,1.83
18:30:36.312500,0.78
18:30:36.328125,-0.43
18:30:36.343750,-1.90
18:30:36.359375,-3.71
18:30:36.375000,-5.88
18:30:36.390625,-8.33
18:30:36.406250,-10.81
18:30:36.421875,-12.89
18:30:36.437500,-14.15
18:30:36.453125,-14.33
18:30:36.468750,-13.42
18:30:36.484375,-11.64
18:30:36.500000,-9.33
18:30:36.515625,-6.75
18:30:36.531250,-4.07
18:30:36.546875,-1.35
18:30:36.562500,1.28
18:30:36.578125,3.72
18:30:36.593750,5.79
18:30:36.609375,7.40
18:30:36.625000,8.56
18:30:36.640625,9.37
18:30:36.656250,9.93
18:30:36.671875,10.29
18:30:36.687500,10.44
18:30:36.703125,10.34
18:30:36.718750,9.93
18:30:36.734375,9.19
18:30:36.750000,8.11
18:30:36.765625,6.72
18:30:36.781250,5.14
18:30:36.796875,3.51
18:30:36.812500,2.03
18:30:36.828125,0.88
18:30:36.843750,0.14
18:30:36.859375,-0.22
18:30:36.875000,-0.34
18:30:36.890625,-0.42
18:30:36.906250,-0.69
18:30:36.921875,-1.30
18:30:36.937500,-2.33
18:30:36.953125,-3.73
18:30:36.968750,-5.37
18:30:36.984375,-7.09
18:30:37,-8.75
18:30:37.015625,-10.28
18:30:37.031250,-11.56
18:30:37.046875,-12.44
18:30:37.062500,-12.59
18:30:37.078125,-11.67
18:30:37.093750,-9.50
18:30:37.109375,-6.27
18:30:37.125000,-2.54
18:30:37.140625,0.94
18:30:37.156250,3.54
18:30:37.171875,5.08
18:30:37.187500,5.85
18:30:37.203125,6.36
18:30:37.218750,6.99
18:30:37.234375,7.80
18:30:37.250000,8.48
18:30:37.265625,8.65
18:30:37.281250,8.14
18:30:37.296875,7.08
18:30:37.312500,5.85
18:30:37.328125,4.80
18:30:37.343750,4.07
18:30:37.359375,3.55
18:30:37.375000,3.06
18:30:37.390625,2.54
18:30:37.406250,2.05
18:30:37.421875,1.80
18:30:37.437500,1.85
18:30:37.453125,2.10
18:30:37.468750,2.30
18:30:37.484375,2.16
18:30:37.500000,1.59
18:30:37.515625,0.69
18:30:37.531250,-0.32
18:30:37.546875,-1.23
18:30:37.562500,-1.98
18:30:37.578125,-2.59
18:30:37.593750,-3.16
18:30:37.609375,-3.81
18:30:37.625000,-4.60
18:30:37.640625,-5.62
18:30:37.656250,-6.92
18:30:37.671875,-8.46
18:30:37.687500,-10.02
18:30:37.703125,-11.18
18:30:37.718750,-11.46
18:30:37.734375,-10.55
18:30:37.750000,-8.45
18:30:37.765625,-5.51
18:30:37.781250,-2.29
18:30:37.796875,0.66
18:30:37.812500,3.02
18:30:37.828125,4.78
18:30:37.843750,6.18
18:30:37.859375,7.47
18:30:37.875000,8.80
18:30:37.890625,10.10
18:30:37.906250,11.10
18:30:37.921875,11.53
18:30:37.937500,11.23
18:30:37.953125,10.29
18:30:37.968750,9.03
18:30:37.984375,7.89
18:30:38,7.16
18:30:38.015625,6.94
18:30:38.031250,7.06
18:30:38.046875,7.18
18:30:38.062500,6.99
18:30:38.078125,6.34
18:30:38.093750,5.24
18:30:38.109375,3.85
18:30:38.125000,2.33
18:30:38.140625,0.84
18:30:38.156250,-0.57
18:30:38.171875,-1.86
18:30:38.187500,-3.07
18:30:38.203125,-4.23
18:30:38.218750,-5.38
18:30:38.234375,-6.58
18:30:38.250000,-7.91
18:30:38.265625,-9.47
18:30:38.281250,-11.29
18:30:38.296875,-13.35
18:30:38.312500,-15.49
18:30:38.328125,-17.44
18:30:38.343750,-18.84
18:30:38.359375,-19.35
18:30:38.375000,-18.73
18:30:38.390625,-16.98
18:30:38.406250,-14.26
18:30:38.421875,-10.90
18:30:38.437500,-7.22
18:30:38.453125,-3.47
18:30:38.468750,0.19
18:30:38.484375,3.68
18:30:38.500000,6.96
18:30:38.515625,9.96
18:30:38.531250,12.57
18:30:38.546875,14.69
18:30:38.562500,16.21
18:30:38.578125,17.09
18:30:38.593750,17.37
18:30:38.609375,17.18
18:30:38.625000,16.65
18:30:38.640625,15.85
18:30:38.656250,14.78
18:30:38.671875,13.42
18:30:38.687500,11.79
18:30:38.703125,10.06
18:30:38.718750,8.51
18:30:38.734375,7.35
18:30:38.750000,6.64
18:30:38.765625,6.15
18:30:38.781250,5.48
18:30:38.796875,4.22
18:30:38.812500,2.21
18:30:38.828125,-0.39
18:30:38.843750,-3.15
18:30:38.859375,-5.57
18:30:38.875000,-7.30
18:30:38.890625,-8.28
18:30:38.906250,-8.71
18:30:38.921875,-8.92
18:30:38.937500,-9.25
18:30:38.953125,-9.91
18:30:38.968750,-10.93
18:30:38.984375,-12.21
18:30:39,-13.50
18:30:39.015625,-14.55
18:30:39.031250,-15.09
18:30:39.046875,-14.93
18:30:39.062500,-13.98
18:30:39.078125,-12.24
18:30:39.093750,-9.84
18:30:39.109375,-7.02
18:30:39.125000,-4.09
18:30:39.140625,-1.35
18:30:39.156250,0.97
18:30:39.171875,2.79
18:30:39.187500,4.20
18:30:39.203125,5.35
18:30:39.218750,6.39
18:30:39.234375,7.33
18:30:39.250000,8.06
18:30:39.265625,8.37
18:30:39.281250,8.11
18:30:39.296875,7.31
18:30:39.312500,6.20
18:30:39.328125,5.19
18:30:39.343750,4.59
18:30:39.359375,4.55
18:30:39.375000,4.93
18:30:39.390625,5.40
18:30:39.406250,5.68
18:30:39.421875,5.62
18:30:39.437500,5.25
18:30:39.453125,4.75
18:30:39.468750,4.19
18:30:39.484375,3.54
18:30:39.500000,2.70
18:30:39.515625,1.56
18:30:39.531250,0.23
18:30:39.546875,-1.08
18:30:39.562500,-2.10
18:30:39.578125,-2.69
18:30:39.593750,-2.98
18:30:39.609375,-3.27
18:30:39.625000,-3.93
18:30:39.640625,-5.19
18:30:39.656250,-7.11
18:30:39.671875,-9.47
18:30:39.687500,-11.94
18:30:39.703125,-14.11
18:30:39.718750,-15.61
18:30:39.734375,-16.17
18:30:39.750000,-15.67
18:30:39.765625,-14.16
18:30:39.781250,-11.81
18:30:39.796875,-8.89
18:30:39.812500,-5.74
18:30:39.828125,-2.61
18:30:39.843750,0.30
18:30:39.859375,2.89
18:30:39.875000,5.10
18:30:39.890625,6.87
18:30:39.906250,8.11
18:30:39.921875,8.80
18:30:39.937500,8.96
18:30:39.953125,8.77
18:30:39.968750,8.44
18:30:39.984375,8.16
18:30:40,8.02
18:30:40.015625,7.99
18:30:40.031250,7.97
18:30:40.046875,7.85
18:30:40.062500,7.56
18:30:40.078125,7.16
18:30:40.093750,6.69
18:30:40.109375,6.21
18:30:40.125000,5.73
18:30:40.140625,5.18
18:30:40.156250,4.49
18:30:40.171875,3.62
18:30:40.187500,2.54
18:30:40.203125,1.28
18:30:40.218750,-0.10
18:30:40.234375,-1.51
18:30:40.250000,-2.82
18:30:40.265625,-3.90
18:30:40.281250,-4.71
18:30:40.296875,-5.23
18:30:40.312500,-5.59
18:30:40.328125,-5.93
18:30:40.343750,-6.50
18:30:40.359375,-7.49
18:30:40.375000,-9.01
18:30:40.390625,-10.92
18:30:40.406250,-12.89
18:30:40.421875,-14.39
18:30:40.437500,-14.94
18:30:40.453125,-14.22
18:30:40.468750,-12.24
18:30:40.484375,-9.28
18:30:40.500000,-5.78
18:30:40.515625,-2.16
18:30:40.531250,1.26
18:30:40.546875,4.35
18:30:40.562500,7.04
18:30:40.578125,9.29
18:30:40.593750,11.08
18:30:40.609375,12.42
18:30:40.625000,13.37
18:30:40.640625,14.06
18:30:40.656250,14.63
18:30:40.671875,15.25
18:30:40.687500,15.98
18:30:40.703125,16.76
18:30:40.718750,17.44
18:30:40.734375,17.80
18:30:40.750000,17.66
18:30:40.765625,16.94
18:30:40.781250,15.72
18:30:40.796875,14.13
18:30:40.812500,12.30
18:30:40.828125,10.30
18:30:40.843750,8.13
18:30:40.859375,5.77
18:30:40.875000,3.24
18:30:40.890625,0.67
18:30:40.906250,-1.81
18:30:40.921875,-4.04
18:30:40.937500,-5.90
18:30:40.953125,-7.28
18:30:40.968750,-8.09
18:30:40.984375,-8.29
18:30:41,-7.99
18:30:41.015625,-7.49
18:30:41.031250,-7.24
18:30:41.046875,-7.67
18:30:41.062500,-9.00
18:30:41.078125,-11.03
18:30:41.093750,-13.21
18:30:41.109375,-14.87
18:30:41.125000,-15.47
18:30:41.140625,-14.83
18:30:41.156250,-13.12
18:30:41.171875,-10.72
18:30:41.187500,-7.99
18:30:41.203125,-5.21
18:30:41.218750,-2.54
18:30:41.234375,-0.17
18:30:41.250000,1.72
18:30:41.265625,2.95
18:30:41.281250,3.46
18:30:41.296875,3.41
18:30:41.312500,3.12
18:30:41.328125,2.93
18:30:41.343750,3.08
18:30:41.359375,3.56
18:30:41.375000,4.18
18:30:41.390625,4.68
18:30:41.406250,4.85
18:30:41.421875,4.62
18:30:41.437500,3.99
18:30:41.453125,3.09
18:30:41.468750,2.06
18:30:41.484375,1.07
18:30:41.500000,0.29
18:30:41.515625,-0.21
18:30:41.531250,-0.46
18:30:41.546875,-0.69
18:30:41.562500,-1.21
18:30:41.578125,-2.29
18:30:41.593750,-4.04
18:30:41.609375,-6.29
18:30:41.625000,-8.58
18:30:41.640625,-10.35
18:30:41.656250,-11.12
18:30:41.671875,-10.67
18:30:41.687500,-9.14
18:30:41.703125,-6.97
18:30:41.718750,-4.73
18:30:41.734375,-2.93
18:30:41.750000,-1.90
18:30:41.765625,-1.69
18:30:41.781250,-2.21
18:30:41.796875,-3.19
18:30:41.812500,-4.35
18:30:41.828125,-5.40
18:30:41.843750,-6.07
18:30:41.859375,-6.09
18:30:41.875000,-5.25
18:30:41.890625,-3.44
18:30:41.906250,-0.67
18:30:41.921875,2.90
18:30:41.937500,7.10
18:30:41.953125,11.75
18:30:41.968750,16.84
18:30:41.984375,22.42
18:30:42,28.55
18:30:42.015625,35.08
18:30:42.031250,41.61
18:30:42.046875,47.50
18:30:42.062500,52.03
18:30:42.078125,54.54
18:30:42.093750,54.70
18:30:42.109375,52.45
18:30:42.125000,48.06
18:30:42.140625,41.92
18:30:42.156250,34.48
18:30:42.171875,26.13
18:30:42.187500,17.18
18:30:42.203125,7.91
18:30:42.218750,-1.44
18:30:42.234375,-10.61
18:30:42.250000,-19.30
18:30:42.265625,-27.15
18:30:42.281250,-33.84
18:30:42.296875,-39.11
18:30:42.312500,-42.82
18:30:42.328125,-44.99
18:30:42.343750,-45.76
18:30:42.359375,-45.38
18:30:42.375000,-44.18
18:30:42.390625,-42.48
18:30:42.406250,-40.63
18:30:42.421875,-38.91
18:30:42.437500,-37.54
18:30:42.453125,-36.61
18:30:42.468750,-36.09
18:30:42.484375,-35.83
18:30:42.500000,-35.59
18:30:42.515625,-35.04
18:30:42.531250,-33.85
18:30:42.546875,-31.70
18:30:42.562500,-28.47
18:30:42.578125,-24.25
18:30:42.593750,-19.34
18:30:42.609375,-14.19
18:30:42.625000,-9.27
18:30:42.640625,-4.89
18:30:42.656250,-1.19
18:30:42.671875,1.84
18:30:42.687500,4.27
18:30:42.703125,6.16
18:30:42.718750,7.52
18:30:42.734375,8.36
18:30:42.750000,8.71
18:30:42.765625,8.71
18:30:42.781250,8.56
18:30:42.796875,8.47
18:30:42.812500,8.59
18:30:42.828125,8.97
18:30:42.843750,9.48
18:30:42.859375,9.93
18:30:42.875000,10.15
18:30:42.890625,10.13
18:30:42.906250,9.99
18:30:42.921875,10.03
18:30:42.937500,10.47
18:30:42.953125,11.35
18:30:42.968750,12.44
18:30:42.984375,13.29
18:30:43,13.48
18:30:43.015625,12.80
18:30:43.031250,11.38
18:30:43.046875,9.65
18:30:43.062500,8.04
18:30:43.078125,6.84
18:30:43.093750,6.07
18:30:43.109375,5.51
18:30:43.125000,4.87
18:30:43.140625,3.91
18:30:43.156250,2.54
18:30:43.171875,0.84
18:30:43.187500,-0.99
18:30:43.203125,-2.60
18:30:43.218750,-3.63
18:30:43.234375,-3.67
18:30:43.250000,-2.43
18:30:43.265625,0.11
18:30:43.281250,3.74
18:30:43.296875,7.97
18:30:43.312500,12.23
18:30:43.328125,16.02
18:30:43.343750,19.06
18:30:43.359375,21.23
18:30:43.375000,22.52
18:30:43.390625,22.96
18:30:43.406250,22.55
18:30:43.421875,21.32
18:30:43.437500,19.39
18:30:43.453125,17.06
18:30:43.468750,14.74
18:30:43.484375,12.85
18:30:43.500000,11.70
18:30:43.515625,11.35
18:30:43.531250,11.56
18:30:43.546875,11.94
18:30:43.562500,11.94
18:30:43.578125,11.12
18:30:43.593750,9.19
18:30:43.609375,6.04
18:30:43.625000,1.77
18:30:43.640625,-3.41
18:30:43.656250,-9.17
18:30:43.671875,-15.13
18:30:43.687500,-20.85
18:30:43.703125,-25.89
18:30:43.718750,-29.89
18:30:43.734375,-32.65
18:30:43.750000,-34.17
18:30:43.765625,-34.65
18:30:43.781250,-34.36
18:30:43.796875,-33.65
18:30:43.812500,-32.85
18:30:43.828125,-32.21
18:30:43.843750,-31.87
18:30:43.859375,-31.79
18:30:43.875000,-31.69
18:30:43.890625,-31.12
18:30:43.906250,-29.62
18:30:43.921875,-26.84
18:30:43.937500,-22.71
18:30:43.953125,-17.50
18:30:43.968750,-11.74
18:30:43.984375,-6.03
18:30:44,-0.94
18:30:44.015625,3.20
18:30:44.031250,6.22
18:30:44.046875,8.15
18:30:44.062500,9.12
18:30:44.078125,9.34
18:30:44.093750,9.06
18:30:44.109375,8.58
18:30:44.125000,8.16
18:30:44.140625,7.99
18:30:44.156250,8.15
18:30:44.171875,8.61
18:30:44.187500,9.33
18:30:44.203125,10.19
18:30:44.218750,11.11
18:30:44.234375,12.00
18:30:44.250000,12.72
18:30:44.265625,13.17
18:30:44.281250,13.22
18:30:44.296875,12.80
18:30:44.312500,11.91
18:30:44.328125,10.65
18:30:44.343750,9.16
18:30:44.359375,7.61
18:30:44.375000,6.14
18:30:44.390625,4.84
18:30:44.406250,3.73
18:30:44.421875,2.71
18:30:44.437500,1.63
18:30:44.453125,0.33
18:30:44.468750,-1.28
18:30:44.484375,-3.07
18:30:44.500000,-4.70
18:30:44.515625,-5.66
18:30:44.531250,-5.45
18:30:44.546875,-3.80
18:30:44.562500,-0.78
18:30:44.578125,3.16
18:30:44.593750,7.29
18:30:44.609375,10.84
18:30:44.625000,13.22
18:30:44.640625,14.18
18:30:44.656250,13.85
18:30:44.671875,12.64
18:30:44.687500,10.99
18:30:44.703125,9.27
18:30:44.718750,7.63
18:30:44.734375,6.03
18:30:44.750000,4.37
18:30:44.765625,2.62
18:30:44.781250,0.88
18:30:44.796875,-0.57
18:30:44.812500,-1.40
18:30:44.828125,-1.41
18:30:44.843750,-0.59
18:30:44.859375,0.85
18:30:44.875000,2.52
18:30:44.890625,3.93
18:30:44.906250,4.60
18:30:44.921875,4.12
18:30:44.937500,2.27
18:30:44.953125,-0.93
18:30:44.968750,-5.21
18:30:44.984375,-10.00
18:30:45,-14.59
18:30:45.015625,-18.35
18:30:45.031250,-20.92
18:30:45.046875,-22.31
18:30:45.062500,-22.87
18:30:45.078125,-23.07
18:30:45.093750,-23.36
18:30:45.109375,-23.95
18:30:45.125000,-24.78
18:30:45.140625,-25.51
18:30:45.156250,-25.72
18:30:45.171875,-24.95
18:30:45.187500,-22.88
18:30:45.203125,-19.37
18:30:45.218750,-14.54
18:30:45.234375,-8.73
18:30:45.250000,-2.45
18:30:45.265625,3.76
18:30:45.281250,9.40
18:30:45.296875,14.13
18:30:45.312500,17.72
18:30:45.328125,20.07
18:30:45.343750,21.16
18:30:45.359375,21.14
18:30:45.375000,20.28
18:30:45.390625,18.97
18:30:45.406250,17.58
18:30:45.421875,16.39
18:30:45.437500,15.49
18:30:45.453125,14.90
18:30:45.468750,14.60
18:30:45.484375,14.63
18:30:45.500000,15.09
18:30:45.515625,16.02
18:30:45.531250,17.31
18:30:45.546875,18.63
18:30:45.562500,19.57
18:30:45.578125,19.78
18:30:45.593750,19.12
18:30:45.609375,17.69
18:30:45.625000,15.73
18:30:45.640625,13.47
18:30:45.656250,11.02
18:30:45.671875,8.37
18:30:45.687500,5.44
18:30:45.703125,2.20
18:30:45.718750,-1.28
18:30:45.734375,-4.82
18:30:45.750000,-8.16
18:30:45.765625,-11.04
18:30:45.781250,-13.16
18:30:45.796875,-14.27
18:30:45.812500,-14.15
18:30:45.828125,-12.70
18:30:45.843750,-10.01
18:30:45.859375,-6.36
18:30:45.875000,-2.23
18:30:45.890625,1.74
18:30:45.906250,4.95
18:30:45.921875,6.92
18:30:45.937500,7.50
18:30:45.953125,6.87
18:30:45.968750,5.44
18:30:45.984375,3.69
18:30:46,1.94
18:30:46.015625,0.31
18:30:46.031250,-1.31
18:30:46.046875,-3.07
18:30:46.062500,-5.04
18:30:46.078125,-7.18
18:30:46.093750,-9.31
18:30:46.109375,-11.29
18:30:46.125000,-13.05
18:30:46.140625,-14.60
18:30:46.156250,-16.04
18:30:46.171875,-17.36
18:30:46.187500,-18.52
18:30:46.203125,-19.37
18:30:46.218750,-19.81
18:30:46.234375,-19.79
18:30:46.250000,-19.37
18:30:46.265625,-18.71
18:30:46.281250,-17.95
18:30:46.296875,-17.18
18:30:46.312500,-16.42
18:30:46.328125,-15.62
18:30:46.343750,-14.82
18:30:46.359375,-14.18
18:30:46.375000,-13.92
18:30:46.390625,-14.20
18:30:46.406250,-14.94
18:30:46.421875,-15.68
18:30:46.437500,-15.70
18:30:46.453125,-14.29
18:30:46.468750,-11.10
18:30:46.484375,-6.30
18:30:46.500000,-0.57
18:30:46.515625,5.10
18:30:46.531250,9.89
18:30:46.546875,13.32
18:30:46.562500,15.43
18:30:46.578125,16.62
18:30:46.593750,17.40
18:30:46.609375,18.15
18:30:46.625000,18.92
18:30:46.640625,19.52
18:30:46.656250,19.67
18:30:46.671875,19.20
18:30:46.687500,18.19
18:30:46.703125,16.95
18:30:46.718750,15.85
18:30:46.734375,15.16
18:30:46.750000,14.88
18:30:46.765625,14.76
18:30:46.781250,14.41
18:30:46.796875,13.49
18:30:46.812500,11.90
18:30:46.828125,9.86
18:30:46.843750,7.73
18:30:46.859375,5.95
18:30:46.875000,4.72
18:30:46.890625,4.02
18:30:46.906250,3.57
18:30:46.921875,3.03
18:30:46.937500,2.14
18:30:46.953125,0.72
18:30:46.968750,-1.26
18:30:46.984375,-3.81
18:30:47,-6.92
18:30:47.015625,-10.51
18:30:47.031250,-14.29
18:30:47.046875,-17.71
18:30:47.062500,-20.06
18:30:47.078125,-20.72
18:30:47.093750,-19.41
18:30:47.109375,-16.34
18:30:47.125000,-12.09
18:30:47.140625,-7.42
18:30:47.156250,-2.95
18:30:47.171875,0.96
18:30:47.187500,4.22
18:30:47.203125,6.88
18:30:47.218750,8.96
18:30:47.234375,10.43
18:30:47.250000,11.21
18:30:47.265625,11.33
18:30:47.281250,10.94
18:30:47.296875,10.34
18:30:47.312500,9.87
18:30:47.328125,9.79
18:30:47.343750,10.12
18:30:47.359375,10.69
18:30:47.375000,11.15
18:30:47.390625,11.18
18:30:47.406250,10.56
18:30:47.421875,9.33
18:30:47.437500,7.68
18:30:47.453125,5.93
18:30:47.468750,4.36
18:30:47.484375,3.15
18:30:47.500000,2.36
18:30:47.515625,1.91
18:30:47.531250,1.70
18:30:47.546875,1.61
18:30:47.562500,1.53
18:30:47.578125,1.34
18:30:47.593750,0.90
18:30:47.609375,0.08
18:30:47.625000,-1.17
18:30:47.640625,-2.81
18:30:47.656250,-4.64
18:30:47.671875,-6.33
18:30:47.687500,-7.47
18:30:47.703125,-7.73
18:30:47.718750,-6.95
18:30:47.734375,-5.22
18:30:47.750000,-2.82
18:30:47.765625,-0.14
18:30:47.781250,2.51
18:30:47.796875,4.93
18:30:47.812500,7.06
18:30:47.828125,8.89
18:30:47.843750,10.34
18:30:47.859375,11.31
18:30:47.875000,11.68
18:30:47.890625,11.43
18:30:47.906250,10.74
18:30:47.921875,9.92
18:30:47.937500,9.32
18:30:47.953125,9.17
18:30:47.968750,9.48
18:30:47.984375,10.10
18:30:48,10.77
18:30:48.015625,11.29
18:30:48.031250,11.50
18:30:48.046875,11.31
18:30:48.062500,10.67
18:30:48.078125,9.53
18:30:48.093750,7.91
18:30:48.109375,5.96
18:30:48.125000,3.93
18:30:48.140625,2.08
18:30:48.156250,0.62
18:30:48.171875,-0.51
18:30:48.187500,-1.50
18:30:48.203125,-2.62
18:30:48.218750,-4.08
18:30:48.234375,-5.93
18:30:48.250000,-8.09
18:30:48.265625,-10.34
18:30:48.281250,-12.45
18:30:48.296875,-14.09
18:30:48.312500,-14.93
18:30:48.328125,-14.67
18:30:48.343750,-13.16
18:30:48.359375,-10.53
18:30:48.375000,-7.16
18:30:48.390625,-3.64
18:30:48.406250,-0.49
18:30:48.421875,1.92
18:30:48.437500,3.52
18:30:48.453125,4.49
18:30:48.468750,5.08
18:30:48.484375,5.54
18:30:48.500000,6.02
18:30:48.515625,6.56
18:30:48.531250,7.12
18:30:48.546875,7.61
18:30:48.562500,7.96
18:30:48.578125,8.13
18:30:48.593750,8.08
18:30:48.609375,7.80
18:30:48.625000,7.27
18:30:48.640625,6.47
18:30:48.656250,5.43
18:30:48.671875,4.21
18:30:48.687500,2.97
18:30:48.703125,1.80
18:30:48.718750,0.79
18:30:48.734375,-0.13
18:30:48.750000,-1.10
18:30:48.765625,-2.23
18:30:48.781250,-3.55
18:30:48.796875,-4.98
18:30:48.812500,-6.32
18:30:48.828125,-7.40
18:30:48.843750,-8.11
18:30:48.859375,-8.53
18:30:48.875000,-8.84
18:30:48.890625,-9.28
18:30:48.906250,-9.98
18:30:48.921875,-10.93
18:30:48.937500,-11.89
18:30:48.953125,-12.49
18:30:48.968750,-12.32
18:30:48.984375,-11.09
18:30:49,-8.75
18:30:49.015625,-5.54
18:30:49.031250,-1.88
18:30:49.046875,1.73
18:30:49.062500,4.91
18:30:49.078125,7.45
18:30:49.093750,9.30
18:30:49.109375,10.50
18:30:49.125000,11.11
18:30:49.140625,11.14
18:30:49.156250,10.63
18:30:49.171875,9.66
18:30:49.187500,8.40
18:30:49.203125,7.03
18:30:49.218750,5.72
18:30:49.234375,4.50
18:30:49.250000,3.36
18:30:49.265625,2.27
18:30:49.281250,1.29
18:30:49.296875,0.57
18:30:49.312500,0.28
18:30:49.328125,0.42
18:30:49.343750,0.84
18:30:49.359375,1.21
18:30:49.375000,1.19
18:30:49.390625,0.54
18:30:49.406250,-0.71
18:30:49.421875,-2.44
18:30:49.437500,-4.38
18:30:49.453125,-6.39
18:30:49.468750,-8.39
18:30:49.484375,-10.41
18:30:49.500000,-12.51
18:30:49.515625,-14.69
18:30:49.531250,-16.92
18:30:49.546875,-19.15
