18:07:54,-0.00
18:07:54.015625,-0.00
18:07:54.031250,-0.00
18:07:54.046875,-0.00
18:07:54.062500,-0.00
18:07:54.078125,-0.00
18:07:54.093750,-0.00
18:07:54.109375,-0.00
18:07:54.125000,-0.00
18:07:54.140625,-0.00
18:07:54.156250,0.00
18:07:54.171875,0.01
18:07:54.187500,0.01
18:07:54.203125,-0.00
18:07:54.218750,-0.03
18:07:54.234375,-0.05
18:07:54.250000,-0.05
18:07:54.265625,0.00
18:07:54.281250,0.13
18:07:54.296875,0.36
18:07:54.312500,0.66
18:07:54.328125,1.01
18:07:54.343750,1.37
18:07:54.359375,1.72
18:07:54.375000,2.06
18:07:54.390625,2.40
18:07:54.406250,2.79
18:07:54.421875,3.24
18:07:54.437500,3.80
18:07:54.453125,4.42
18:07:54.468750,5.06
18:07:54.484375,5.66
18:07:54.500000,6.20
18:07:54.515625,6.68
18:07:54.531250,7.15
18:07:54.546875,7.68
18:07:54.562500,8.31
18:07:54.578125,9.14
18:07:54.593750,10.09
18:07:54.609375,11.04
18:07:54.625000,11.88
18:07:54.640625,12.56
18:07:54.656250,13.14
18:07:54.671875,13.76
18:07:54.687500,14.65
18:07:54.703125,15.96
18:07:54.718750,17.91
18:07:54.734375,20.32
18:07:54.750000,22.90
18:07:54.765625,25.38
18:07:54.781250,27.58
18:07:54.796875,29.57
18:07:54.812500,31.68
18:07:54.828125,34.32
18:07:54.843750,37.81
18:07:54.859375,42.54
18:07:54.875000,48.15
18:07:54.890625,54.10
18:07:54.906250,59.83
18:07:54.921875,64.97
18:07:54.937500,69.58
18:07:54.953125,74.14
18:07:54.968750,79.34
18:07:54.984375,85.71
18:07:55,93.76
18:07:55.015625,103.00
18:07:55.031250,112.62
18:07:55.046875,121.73
18:07:55.062500,129.77
18:07:55.078125,136.75
18:07:55.093750,143.30
18:07:55.109375,150.75
18:07:55.125000,157.77
18:07:55.140625,166.64
18:07:55.156250,177.95
18:07:55.171875,191.79
18:07:55.187500,206.97
18:07:55.203125,220.57
18:07:55.218750,228.25
18:07:55.234375,225.36
18:07:55.250000,208.53
18:07:55.265625,176.87
18:07:55.281250,132.76
18:07:55.296875,80.05
18:07:55.312500,23.07
18:07:55.328125,-34.94
18:07:55.343750,-92.44
18:07:55.359375,-149.16
18:07:55.375000,-205.23
18:07:55.390625,-260.37
18:07:55.406250,-313.74
18:07:55.421875,-363.87
18:07:55.437500,-409.83
18:07:55.453125,-450.91
18:07:55.468750,-486.50
18:07:55.484375,-515.74
18:07:55.500000,-537.23
18:07:55.515625,-549.22
18:07:55.531250,-549.96
18:07:55.546875,-538.37
18:07:55.562500,-514.21
18:07:55.578125,-478.67
18:07:55.593750,-433.88
18:07:55.609375,-382.45
18:07:55.625000,-327.02
18:07:55.640625,-269.84
18:07:55.656250,-212.63
18:07:55.671875,-156.66
18:07:55.687500,-102.95
18:07:55.703125,-52.37
18:07:55.718750,-5.90
18:07:55.734375,35.58
18:07:55.750000,71.43
18:07:55.765625,101.35
18:07:55.781250,125.50
18:07:55.796875,144.38
18:07:55.812500,158.69
18:07:55.828125,169.15
18:07:55.843750,176.37
18:07:55.859375,180.75
18:07:55.875000,182.57
18:07:55.890625,182.07
18:07:55.906250,179.51
18:07:55.921875,175.23
18:07:55.937500,169.65
18:07:55.953125,163.18
18:07:55.968750,156.15
18:07:55.984375,148.81
18:07:56,141.30
18:07:56.015625,133.69
18:07:56.031250,126.02
18:07:56.046875,118.33
18:07:56.062500,110.69
18:07:56.078125,103.16
18:07:56.093750,95.80
18:07:56.109375,88.68
18:07:56.125000,81.83
18:07:56.140625,75.25
18:07:56.156250,68.95
18:07:56.171875,62.95
18:07:56.187500,57.25
18:07:56.203125,51.86
18:07:56.218750,46.78
18:07:56.234375,42.03
18:07:56.250000,37.59
18:07:56.265625,33.45
18:07:56.281250,29.61
18:07:56.296875,26.07
18:07:56.312500,22.81
18:07:56.328125,19.83
18:07:56.343750,17.11
18:07:56.359375,14.67
18:07:56.375000,12.48
18:07:56.390625,10.54
18:07:56.406250,8.83
18:07:56.421875,7.35
18:07:56.437500,6.07
18:07:56.453125,4.97
18:07:56.468750,4.05
18:07:56.484375,3.27
18:07:56.500000,2.62
18:07:56.515625,2.09
18:07:56.531250,1.65
18:07:56.546875,1.30
18:07:56.562500,1.01
18:07:56.578125,0.79
18:07:56.593750,0.61
18:07:56.609375,0.48
18:07:56.625000,0.37
18:07:56.640625,0.29
18:07:56.656250,0.24
18:07:56.671875,0.20
18:07:56.687500,0.18
18:07:56.703125,0.17
18:07:56.718750,0.17
18:07:56.734375,0.18
18:07:56.750000,0.20
18:07:56.765625,0.23
18:07:56.781250,0.26
18:07:56.796875,0.30
18:07:56.812500,0.34
18:07:56.828125,0.38
18:07:56.843750,0.43
18:07:56.859375,0.47
18:07:56.875000,0.52
18:07:56.890625,0.57
18:07:56.906250,0.62
18:07:56.921875,0.67
18:07:56.937500,0.73
18:07:56.953125,0.79
18:07:56.968750,0.86
18:07:56.984375,0.93
18:07:57,1.01
18:07:57.015625,1.10
18:07:57.031250,1.20
18:07:57.046875,1.32
18:07:57.062500,1.44
18:07:57.078125,1.58
18:07:57.093750,1.74
18:07:57.109375,1.91
18:07:57.125000,2.11
18:07:57.140625,2.32
18:07:57.156250,2.56
18:07:57.171875,2.83
18:07:57.187500,3.12
18:07:57.203125,3.44
18:07:57.218750,3.80
18:07:57.234375,4.18
18:07:57.250000,4.60
18:07:57.265625,5.05
18:07:57.281250,5.54
18:07:57.296875,6.08
18:07:57.312500,6.67
18:07:57.328125,7.31
18:07:57.343750,7.99
18:07:57.359375,8.67
18:07:57.375000,9.36
18:07:57.390625,10.04
18:07:57.406250,10.73
18:07:57.421875,11.46
18:07:57.437500,12.26
18:07:57.453125,13.16
18:07:57.468750,14.17
18:07:57.484375,15.27
18:07:57.500000,16.43
18:07:57.515625,17.60
18:07:57.531250,18.76
18:07:57.546875,19.88
18:07:57.562500,20.97
18:07:57.578125,21.99
18:07:57.593750,22.87
18:07:57.609375,23.51
18:07:57.625000,23.72
18:07:57.640625,23.32
18:07:57.656250,22.14
18:07:57.671875,20.11
18:07:57.687500,17.24
18:07:57.703125,13.67
18:07:57.718750,9.56
18:07:57.734375,5.16
18:07:57.750000,0.62
18:07:57.765625,-3.96
18:07:57.781250,-8.55
18:07:57.796875,-13.10
18:07:57.812500,-17.51
18:07:57.828125,-21.55
18:07:57.843750,-24.91
18:07:57.859375,-27.30
18:07:57.875000,-28.58
18:07:57.890625,-28.85
18:07:57.906250,-28.48
18:07:57.921875,-27.97
18:07:57.937500,-27.80
18:07:57.953125,-28.19
18:07:57.968750,-29.04
18:07:57.984375,-29.94
18:07:58,-30.39
18:07:58.015625,-30.06
18:07:58.031250,-28.99
18:07:58.046875,-27.62
18:07:58.062500,-26.64
18:07:58.078125,-26.65
18:07:58.093750,-27.88
18:07:58.109375,-30.06
18:07:58.125000,-32.45
18:07:58.140625,-34.33
18:07:58.156250,-35.14
18:07:58.171875,-34.88
18:07:58.187500,-34.01
18:07:58.203125,-33.27
18:07:58.218750,-33.40
18:07:58.234375,-35.01
18:07:58.250000,-38.52
18:07:58.265625,-43.97
18:07:58.281250,-50.65
18:07:58.296875,-56.84
18:07:58.312500,-59.91
18:07:58.328125,-57.10
18:07:58.343750,-46.69
18:07:58.359375,-29.04
18:07:58.375000,-6.80
18:07:58.390625,15.87
18:07:58.406250,34.88
18:07:58.421875,47.69
18:07:58.437500,53.97
18:07:58.453125,55.23
18:07:58.468750,53.69
18:07:58.484375,51.09
18:07:58.500000,48.19
18:07:58.515625,44.92
18:07:58.531250,41.02
18:07:58.546875,36.57
18:07:58.562500,32.03
18:07:58.578125,28.05
18:07:58.593750,24.96
18:07:58.609375,22.67
18:07:58.625000,20.77
18:07:58.640625,18.67
18:07:58.656250,16.03
18:07:58.671875,12.88
18:07:58.687500,9.66
18:07:58.703125,6.89
18:07:58.718750,5.04
18:07:58.734375,4.20
18:07:58.750000,4.00
18:07:58.765625,3.82
18:07:58.781250,3.04
18:07:58.796875,1.32
18:07:58.812500,-1.25
18:07:58.828125,-4.14
18:07:58.843750,-6.71
18:07:58.859375,-8.47
18:07:58.875000,-9.32
18:07:58.890625,-9.62
18:07:58.906250,-9.97
18:07:58.921875,-10.96
18:07:58.937500,-12.83
18:07:58.953125,-15.40
18:07:58.968750,-18.24
18:07:58.984375,-20.96
18:07:59,-23.52
18:07:59.015625,-26.20
18:07:59.031250,-29.32
18:07:59.046875,-32.87
18:07:59.062500,-36.26
18:07:59.078125,-38.43
18:07:59.093750,-38.27
18:07:59.109375,-35.12
18:07:59.125000,-29.05
18:07:59.140625,-20.80
18:07:59.156250,-11.42
18:07:59.171875,-1.90
18:07:59.187500,7.09
18:07:59.203125,15.21
18:07:59.218750,22.22
18:07:59.234375,27.93
18:07:59.250000,32.16
18:07:59.265625,34.83
18:07:59.281250,36.03
18:07:59.296875,36.03
18:07:59.312500,35.15
18:07:59.328125,33.68
18:07:59.343750,31.81
18:07:59.359375,29.66
18:07:59.375000,27.32
18:07:59.390625,24.86
18:07:59.406250,22.40
18:07:59.421875,20.03
18:07:59.437500,17.81
18:07:59.453125,15.81
18:07:59.468750,14.04
18:07:59.484375,12.48
18:07:59.500000,10.95
18:07:59.515625,9.26
18:07:59.531250,7.18
18:07:59.546875,4.68
18:07:59.562500,1.87
18:07:59.578125,-0.92
18:07:59.593750,-3.37
18:07:59.609375,-5.27
18:07:59.625000,-6.66
18:07:59.640625,-7.80
18:07:59.656250,-8.92
18:07:59.671875,-10.18
18:07:59.687500,-11.58
18:07:59.703125,-13.00
18:07:59.718750,-14.39
18:07:59.734375,-15.74
18:07:59.750000,-17.16
18:07:59.765625,-18.67
18:07:59.781250,-20.14
18:07:59.796875,-21.27
18:07:59.812500,-21.69
18:07:59.828125,-21.08
18:07:59.843750,-19.29
18:07:59.859375,-16.37
18:07:59.875000,-12.49
18:07:59.890625,-7.89
18:07:59.906250,-2.83
18:07:59.921875,2.48
18:07:59.937500,7.80
18:07:59.953125,12.94
18:07:59.968750,17.72
18:07:59.984375,21.99
18:08:00,25.67
18:08:00.015625,28.73
18:08:00.031250,31.18
18:08:00.046875,33.00
18:08:00.062500,34.09
18:08:00.078125,34.30
18:08:00.093750,33.51
18:08:00.109375,31.71
18:08:00.125000,29.08
18:08:00.140625,25.96
18:08:00.156250,22.79
18:08:00.171875,19.91
18:08:00.187500,17.51
18:08:00.203125,15.61
18:08:00.218750,14.08
18:08:00.234375,12.79
18:08:00.250000,11.61
18:08:00.265625,10.46
18:08:00.281250,9.26
18:08:00.296875,7.95
18:08:00.312500,6.51
18:08:00.328125,4.93
18:08:00.343750,3.21
18:08:00.359375,1.39
18:08:00.375000,-0.49
18:08:00.390625,-2.34
18:08:00.406250,-4.01
18:08:00.421875,-5.34
18:08:00.437500,-6.24
18:08:00.453125,-6.75
18:08:00.468750,-7.16
18:08:00.484375,-7.82
18:08:00.500000,-9.10
18:08:00.515625,-11.14
18:08:00.531250,-13.74
18:08:00.546875,-16.49
18:08:00.562500,-18.82
18:08:00.578125,-20.25
18:08:00.593750,-20.44
18:08:00.609375,-19.32
18:08:00.625000,-17.06
18:08:00.640625,-13.91
18:08:00.656250,-10.20
18:08:00.671875,-6.15
18:08:00.687500,-1.86
18:08:00.703125,2.68
18:08:00.718750,7.54
18:08:00.734375,12.70
18:08:00.750000,17.95
18:08:00.765625,22.95
18:08:00.781250,27.30
18:08:00.796875,30.72
18:08:00.812500,33.17
18:08:00.828125,34.90
18:08:00.843750,36.32
18:08:00.859375,37.80
18:08:00.875000,39.49
18:08:00.890625,41.33
18:08:00.906250,43.05
18:08:00.921875,44.33
18:08:00.937500,44.93
18:08:00.953125,44.74
18:08:00.968750,43.85
18:08:00.984375,42.38
18:08:01,40.50
18:08:01.015625,38.35
18:08:01.031250,35.98
18:08:01.046875,33.41
18:08:01.062500,30.67
18:08:01.078125,27.83
18:08:01.093750,24.99
18:08:01.109375,22.33
18:08:01.125000,19.96
18:08:01.140625,17.92
18:08:01.156250,16.07
18:08:01.171875,14.20
18:08:01.187500,12.07
18:08:01.203125,9.60
18:08:01.218750,6.88
18:08:01.234375,4.11
18:08:01.250000,1.54
18:08:01.265625,-0.74
18:08:01.281250,-2.79
18:08:01.296875,-4.81
18:08:01.312500,-7.04
18:08:01.328125,-9.57
18:08:01.343750,-12.31
18:08:01.359375,-14.96
18:08:01.375000,-17.18
18:08:01.390625,-18.67
18:08:01.406250,-19.33
18:08:01.421875,-19.24
18:08:01.437500,-18.68
18:08:01.453125,-17.92
18:08:01.468750,-17.12
18:08:01.484375,-16.30
18:08:01.500000,-15.33
18:08:01.515625,-14.06
18:08:01.531250,-12.41
18:08:01.546875,-10.50
18:08:01.562500,-8.50
18:08:01.578125,-6.65
18:08:01.593750,-5.13
18:08:01.609375,-3.99
18:08:01.625000,-3.21
18:08:01.640625,-2.68
18:08:01.656250,-2.32
18:08:01.671875,-2.07
18:08:01.687500,-1.92
18:08:01.703125,-1.85
18:08:01.718750,-1.85
18:08:01.734375,-1.94
18:08:01.750000,-2.09
18:08:01.765625,-2.38
18:08:01.781250,-2.82
18:08:01.796875,-3.42
18:08:01.812500,-4.16
18:08:01.828125,-4.94
18:08:01.843750,-5.72
18:08:01.859375,-6.50
18:08:01.875000,-7.37
18:08:01.890625,-8.44
18:08:01.906250,-9.79
18:08:01.921875,-11.34
18:08:01.937500,-12.95
18:08:01.953125,-14.45
18:08:01.968750,-15.78
18:08:01.984375,-17.07
18:08:02,-18.52
18:08:02.015625,-20.35
18:08:02.031250,-22.60
18:08:02.046875,-25.18
18:08:02.062500,-27.87
18:08:02.078125,-30.50
18:08:02.093750,-32.96
18:08:02.109375,-35.28
18:08:02.125000,-37.48
18:08:02.140625,-39.47
18:08:02.156250,-41.02
18:08:02.171875,-41.80
18:08:02.187500,-41.53
18:08:02.203125,-40.08
18:08:02.218750,-37.60
18:08:02.234375,-34.41
18:08:02.250000,-30.92
18:08:02.265625,-27.51
18:08:02.281250,-24.35
18:08:02.296875,-21.49
18:08:02.312500,-18.83
18:08:02.328125,-16.28
18:08:02.343750,-13.80
18:08:02.359375,-11.35
18:08:02.375000,-8.97
18:08:02.390625,-6.68
18:08:02.406250,-4.51
18:08:02.421875,-2.51
18:08:02.437500,-0.76
18:08:02.453125,0.64
18:08:02.468750,1.64
18:08:02.484375,2.26
18:08:02.500000,2.64
18:08:02.515625,2.95
18:08:02.531250,3.34
18:08:02.546875,3.84
18:08:02.562500,4.38
18:08:02.578125,4.79
18:08:02.593750,4.99
18:08:02.609375,4.99
18:08:02.625000,4.90
18:08:02.640625,4.83
18:08:02.656250,4.82
18:08:02.671875,4.77
18:08:02.687500,4.55
18:08:02.703125,4.00
18:08:02.718750,3.11
18:08:02.734375,1.98
18:08:02.750000,0.76
18:08:02.765625,-0.38
18:08:02.781250,-1.39
18:08:02.796875,-2.32
18:08:02.812500,-3.27
18:08:02.828125,-4.33
18:08:02.843750,-5.55
18:08:02.859375,-6.91
18:08:02.875000,-8.38
18:08:02.890625,-9.96
18:08:02.906250,-11.62
18:08:02.921875,-13.33
18:08:02.937500,-15.00
18:08:02.953125,-16.46
18:08:02.968750,-17.50
18:08:02.984375,-17.98
18:08:03,-17.78
18:08:03.015625,-16.96
18:08:03.031250,-15.71
18:08:03.046875,-14.27
18:08:03.062500,-12.84
18:08:03.078125,-11.56
18:08:03.093750,-10.45
18:08:03.109375,-9.40
18:08:03.125000,-8.26
18:08:03.140625,-6.91
18:08:03.156250,-5.28
18:08:03.171875,-3.43
18:08:03.187500,-1.48
18:08:03.203125,0.39
18:08:03.218750,2.05
18:08:03.234375,3.45
18:08:03.250000,4.55
18:08:03.265625,5.40
18:08:03.281250,6.01
18:08:03.296875,6.44
18:08:03.312500,6.70
18:08:03.328125,6.92
18:08:03.343750,7.21
18:08:03.359375,7.70
18:08:03.375000,8.48
18:08:03.390625,9.45
18:08:03.406250,10.47
18:08:03.421875,11.31
18:08:03.437500,11.83
18:08:03.453125,11.96
18:08:03.468750,11.77
18:08:03.484375,11.38
18:08:03.500000,10.91
18:08:03.515625,10.40
18:08:03.531250,9.83
18:08:03.546875,9.12
18:08:03.562500,8.15
18:08:03.578125,6.89
18:08:03.593750,5.35
18:08:03.609375,3.68
18:08:03.625000,2.01
18:08:03.640625,0.49
18:08:03.656250,-0.85
18:08:03.671875,-2.06
18:08:03.687500,-3.23
18:08:03.703125,-4.48
18:08:03.718750,-5.85
18:08:03.734375,-7.36
18:08:03.750000,-8.89
18:08:03.765625,-10.24
18:08:03.781250,-11.17
18:08:03.796875,-11.43
18:08:03.812500,-10.84
18:08:03.828125,-9.39
18:08:03.843750,-7.29
18:08:03.859375,-4.89
18:08:03.875000,-2.58
18:08:03.890625,-0.62
18:08:03.906250,0.90
18:08:03.921875,2.08
18:08:03.937500,3.13
18:08:03.953125,4.20
18:08:03.968750,5.33
18:08:03.984375,6.45
18:08:04,7.39
18:08:04.015625,8.06
18:08:04.031250,8.45
18:08:04.046875,8.68
18:08:04.062500,8.89
18:08:04.078125,9.20
18:08:04.093750,9.67
18:08:04.109375,10.25
18:08:04.125000,10.87
18:08:04.140625,11.48
18:08:04.156250,12.02
18:08:04.171875,12.42
18:08:04.187500,12.61
18:08:04.203125,12.51
18:08:04.218750,12.09
18:08:04.234375,11.45
18:08:04.250000,10.70
18:08:04.265625,10.02
18:08:04.281250,9.45
18:08:04.296875,8.95
18:08:04.312500,8.37
18:08:04.328125,7.56
18:08:04.343750,6.43
18:08:04.359375,4.99
18:08:04.375000,3.28
18:08:04.390625,1.35
18:08:04.406250,-0.76
18:08:04.421875,-3.03
18:08:04.437500,-5.39
18:08:04.453125,-7.74
18:08:04.468750,-9.97
18:08:04.484375,-11.99
18:08:04.500000,-13.82
18:08:04.515625,-15.48
18:08:04.531250,-17.02
18:08:04.546875,-18.39
18:08:04.562500,-19.51
18:08:04.578125,-20.21
18:08:04.593750,-20.42
18:08:04.609375,-20.14
18:08:04.625000,-19.45
18:08:04.640625,-18.47
18:08:04.656250,-17.27
18:08:04.671875,-15.85
18:08:04.687500,-14.19
18:08:04.703125,-12.28
18:08:04.718750,-10.20
18:08:04.734375,-8.07
18:08:04.750000,-6.06
18:08:04.765625,-4.33
18:08:04.781250,-2.96
18:08:04.796875,-1.99
18:08:04.812500,-1.37
18:08:04.828125,-1.02
18:08:04.843750,-0.84
18:08:04.859375,-0.73
18:08:04.875000,-0.61
18:08:04.890625,-0.41
18:08:04.906250,-0.10
18:08:04.921875,0.31
18:08:04.937500,0.81
18:08:04.953125,1.33
18:08:04.968750,1.81
18:08:04.984375,2.15
18:08:05,2.30
18:08:05.015625,2.26
18:08:05.031250,2.11
18:08:05.046875,1.92
18:08:05.062500,1.73
18:08:05.078125,1.50
18:08:05.093750,1.10
18:08:05.109375,0.41
18:08:05.125000,-0.59
18:08:05.140625,-1.79
18:08:05.156250,-3.01
18:08:05.171875,-4.07
18:08:05.187500,-4.90
18:08:05.203125,-5.58
18:08:05.218750,-6.29
18:08:05.234375,-7.24
18:08:05.250000,-8.58
18:08:05.265625,-10.34
18:08:05.281250,-12.43
18:08:05.296875,-14.66
18:08:05.312500,-16.75
18:08:05.328125,-18.40
18:08:05.343750,-19.36
18:08:05.359375,-19.50
18:08:05.375000,-18.86
18:08:05.390625,-17.62
18:08:05.406250,-16.00
18:08:05.421875,-14.19
18:08:05.437500,-12.25
18:08:05.453125,-10.18
18:08:05.468750,-7.95
18:08:05.484375,-5.56
18:08:05.500000,-3.12
18:08:05.515625,-0.74
18:08:05.531250,1.48
18:08:05.546875,3.49
18:08:05.562500,5.29
18:08:05.578125,6.88
18:08:05.593750,8.20
18:08:05.609375,9.22
18:08:05.625000,9.94
18:08:05.640625,10.39
18:08:05.656250,10.68
18:08:05.671875,10.87
18:08:05.687500,10.98
18:08:05.703125,11.03
18:08:05.718750,10.98
18:08:05.734375,10.82
18:08:05.750000,10.55
18:08:05.765625,10.17
18:08:05.781250,9.70
18:08:05.796875,9.16
18:08:05.812500,8.57
18:08:05.828125,7.98
18:08:05.843750,7.41
18:08:05.859375,6.81
18:08:05.875000,6.13
18:08:05.890625,5.25
18:08:05.906250,4.13
18:08:05.921875,2.84
18:08:05.937500,1.55
18:08:05.953125,0.42
18:08:05.968750,-0.48
18:08:05.984375,-1.24
18:08:06,-2.08
18:08:06.015625,-3.23
18:08:06.031250,-4.83
18:08:06.046875,-6.91
18:08:06.062500,-9.32
18:08:06.078125,-11.83
18:08:06.093750,-14.18
18:08:06.109375,-16.12
18:08:06.125000,-17.40
18:08:06.140625,-17.92
18:08:06.156250,-17.63
18:08:06.171875,-16.63
18:08:06.187500,-15.06
18:08:06.203125,-12.99
18:08:06.218750,-10.47
18:08:06.234375,-7.44
18:08:06.250000,-3.91
18:08:06.265625,-0.02
18:08:06.281250,3.96
18:08:06.296875,7.64
18:08:06.312500,10.69
18:08:06.328125,13.01
18:08:06.343750,14.71
18:08:06.359375,16.08
18:08:06.375000,17.42
18:08:06.390625,18.90
18:08:06.406250,20.53
18:08:06.421875,22.22
18:08:06.437500,23.77
18:08:06.453125,25.09
18:08:06.468750,26.08
18:08:06.484375,26.73
18:08:06.500000,27.01
18:08:06.515625,26.89
18:08:06.531250,26.36
18:08:06.546875,25.44
18:08:06.562500,24.21
18:08:06.578125,22.81
18:08:06.593750,21.41
18:08:06.609375,20.10
18:08:06.625000,18.90
18:08:06.640625,17.74
18:08:06.656250,16.45
18:08:06.671875,14.89
18:08:06.687500,12.99
18:08:06.703125,10.74
18:08:06.718750,8.23
18:08:06.734375,5.53
18:08:06.750000,2.70
18:08:06.765625,-0.28
18:08:06.781250,-3.43
18:08:06.796875,-6.77
18:08:06.812500,-10.25
18:08:06.828125,-13.76
18:08:06.843750,-17.16
18:08:06.859375,-20.27
18:08:06.875000,-22.89
18:08:06.890625,-24.81
18:08:06.906250,-25.84
18:08:06.921875,-25.87
18:08:06.937500,-24.90
18:08:06.953125,-23.01
18:08:06.968750,-20.41
18:08:06.984375,-17.32
18:08:07,-13.90
18:08:07.015625,-10.31
18:08:07.031250,-6.67
18:08:07.046875,-3.18
18:08:07.062500,-0.05
18:08:07.078125,2.48
18:08:07.093750,4.29
18:08:07.109375,5.43
18:08:07.125000,6.08
18:08:07.140625,6.49
18:08:07.156250,6.81
18:08:07.171875,7.04
18:08:07.187500,7.11
18:08:07.203125,6.96
18:08:07.218750,6.64
18:08:07.234375,6.30
18:08:07.250000,6.14
18:08:07.265625,6.22
18:08:07.281250,6.50
18:08:07.296875,6.77
18:08:07.312500,6.87
18:08:07.328125,6.67
18:08:07.343750,6.17
18:08:07.359375,5.43
18:08:07.375000,4.42
18:08:07.390625,3.16
18:08:07.406250,1.57
18:08:07.421875,-0.33
18:08:07.437500,-2.48
18:08:07.453125,-4.75
18:08:07.468750,-7.01
18:08:07.484375,-9.20
18:08:07.500000,-11.31
18:08:07.515625,-13.44
18:08:07.531250,-15.75
18:08:07.546875,-18.38
18:08:07.562500,-21.42
18:08:07.578125,-24.81
18:08:07.593750,-28.33
18:08:07.609375,-31.68
18:08:07.625000,-34.54
18:08:07.640625,-36.65
18:08:07.656250,-37.86
18:08:07.671875,-38.08
18:08:07.687500,-37.29
18:08:07.703125,-35.44
18:08:07.718750,-32.52
18:08:07.734375,-28.56
18:08:07.750000,-23.68
18:08:07.765625,-18.12
18:08:07.781250,-12.20
18:08:07.796875,-6.29
18:08:07.812500,-0.73
18:08:07.828125,4.26
18:08:07.843750,8.53
18:08:07.859375,12.05
18:08:07.875000,14.81
18:08:07.890625,16.85
18:08:07.906250,18.21
18:08:07.921875,18.97
18:08:07.937500,19.30
18:08:07.953125,19.39
18:08:07.968750,19.42
18:08:07.984375,19.49
18:08:08,19.58
18:08:08.015625,19.54
18:08:08.031250,19.29
18:08:08.046875,18.75
18:08:08.062500,17.98
18:08:08.078125,17.07
18:08:08.093750,16.10
18:08:08.109375,15.02
18:08:08.125000,13.70
18:08:08.140625,11.99
18:08:08.156250,9.78
18:08:08.171875,7.12
18:08:08.187500,4.16
18:08:08.203125,1.13
18:08:08.218750,-1.79
18:08:08.234375,-4.53
18:08:08.250000,-7.19
18:08:08.265625,-9.98
18:08:08.281250,-13.13
18:08:08.296875,-16.83
18:08:08.312500,-21.11
18:08:08.328125,-25.81
18:08:08.343750,-30.62
18:08:08.359375,-35.11
18:08:08.375000,-38.86
18:08:08.390625,-41.56
18:08:08.406250,-43.02
18:08:08.421875,-43.21
18:08:08.437500,-42.22
18:08:08.453125,-40.19
18:08:08.468750,-37.24
18:08:08.484375,-33.53
18:08:08.500000,-29.19
18:08:08.515625,-24.35
18:08:08.531250,-19.15
18:08:08.546875,-13.74
18:08:08.562500,-8.33
18:08:08.578125,-3.18
18:08:08.593750,1.36
18:08:08.609375,4.97
18:08:08.625000,7.35
18:08:08.640625,8.43
18:08:08.656250,8.41
18:08:08.671875,7.70
18:08:08.687500,6.85
18:08:08.703125,6.28
18:08:08.718750,6.13
18:08:08.734375,6.19
18:08:08.750000,6.04
18:08:08.765625,5.28
18:08:08.781250,3.79
18:08:08.796875,1.88
18:08:08.812500,0.05
18:08:08.828125,-1.18
18:08:08.843750,-1.65
18:08:08.859375,-1.70
18:08:08.875000,-2.00
18:08:08.890625,-3.24
18:08:08.906250,-5.75
18:08:08.921875,-9.36
18:08:08.937500,-13.49
18:08:08.953125,-17.43
18:08:08.968750,-20.74
18:08:08.984375,-23.39
18:08:09,-25.75
18:08:09.015625,-28.41
18:08:09.031250,-31.86
18:08:09.046875,-36.31
18:08:09.062500,-41.61
18:08:09.078125,-47.25
18:08:09.093750,-52.54
18:08:09.109375,-56.71
18:08:09.125000,-59.14
18:08:09.140625,-59.48
18:08:09.156250,-57.69
18:08:09.171875,-54.01
18:08:09.187500,-48.87
18:08:09.203125,-42.77
18:08:09.218750,-36.10
18:08:09.234375,-29.11
18:08:09.250000,-21.88
18:08:09.265625,-14.29
18:08:09.281250,-6.06
18:08:09.296875,3.13
18:08:09.312500,13.53
18:08:09.328125,25.20
18:08:09.343750,37.86
18:08:09.359375,50.98
18:08:09.375000,63.82
18:08:09.390625,75.67
18:08:09.406250,85.96
18:08:09.421875,94.34
18:08:09.437500,100.71
18:08:09.453125,105.14
18:08:09.468750,107.79
18:08:09.484375,108.86
18:08:09.500000,108.58
18:08:09.515625,107.13
18:08:09.531250,104.70
18:08:09.546875,101.37
18:08:09.562500,97.18
18:08:09.578125,92.14
18:08:09.593750,86.24
18:08:09.609375,79.56
18:08:09.625000,72.27
18:08:09.640625,64.67
18:08:09.656250,57.08
18:08:09.671875,49.78
18:08:09.687500,42.89
18:08:09.703125,36.31
18:08:09.718750,29.81
18:08:09.734375,23.15
18:08:09.750000,16.23
18:08:09.765625,9.15
18:08:09.781250,2.20
18:08:09.796875,-4.36
18:08:09.812500,-10.39
18:08:09.828125,-15.85
18:08:09.843750,-20.80
18:08:09.859375,-25.13
18:08:09.875000,-28.53
18:08:09.890625,-30.54
18:08:09.906250,-30.77
18:08:09.921875,-29.08
18:08:09.937500,-25.67
18:08:09.953125,-21.03
18:08:09.968750,-15.65
18:08:09.984375,-9.91
18:08:10,-3.94
18:08:10.015625,2.24
18:08:10.031250,8.51
18:08:10.046875,14.58
18:08:10.062500,19.93
18:08:10.078125,24.01
18:08:10.093750,26.44
18:08:10.109375,27.23
18:08:10.125000,26.75
18:08:10.140625,25.66
18:08:10.156250,24.57
18:08:10.171875,23.84
18:08:10.187500,23.41
18:08:10.203125,22.93
18:08:10.218750,21.96
18:08:10.234375,20.23
18:08:10.250000,17.76
18:08:10.265625,14.88
18:08:10.281250,12.00
18:08:10.296875,9.41
18:08:10.312500,7.05
18:08:10.328125,4.62
18:08:10.343750,1.70
18:08:10.359375,-1.96
18:08:10.375000,-6.32
18:08:10.390625,-10.98
18:08:10.406250,-15.43
18:08:10.421875,-19.28
18:08:10.437500,-22.46
18:08:10.453125,-25.24
18:08:10.468750,-28.09
18:08:10.484375,-31.45
18:08:10.500000,-35.58
18:08:10.515625,-40.38
18:08:10.531250,-45.54
18:08:10.546875,-50.56
18:08:10.562500,-54.90
18:08:10.578125,-58.09
18:08:10.593750,-59.78
18:08:10.609375,-59.81
18:08:10.625000,-58.13
18:08:10.640625,-54.83
18:08:10.656250,-50.04
18:08:10.671875,-43.95
18:08:10.687500,-36.71
18:08:10.703125,-28.59
18:08:10.718750,-19.93
18:08:10.734375,-11.20
18:08:10.750000,-2.88
18:08:10.765625,4.62
18:08:10.781250,11.01
18:08:10.796875,16.12
18:08:10.812500,19.92
18:08:10.828125,22.43
18:08:10.843750,23.73
18:08:10.859375,24.00
18:08:10.875000,23.51
18:08:10.890625,22.60
18:08:10.906250,21.57
18:08:10.921875,20.61
18:08:10.937500,19.77
18:08:10.953125,18.94
18:08:10.968750,18.03
18:08:10.984375,16.95
18:08:11,15.72
18:08:11.015625,14.42
18:08:11.031250,13.12
18:08:11.046875,11.81
18:08:11.062500,10.35
18:08:11.078125,8.65
18:08:11.093750,6.62
18:08:11.109375,4.31
18:08:11.125000,1.85
18:08:11.140625,-0.58
18:08:11.156250,-2.87
18:08:11.171875,-5.04
18:08:11.187500,-7.17
18:08:11.203125,-9.43
18:08:11.218750,-11.95
18:08:11.234375,-14.84
18:08:11.250000,-18.15
18:08:11.265625,-21.85
18:08:11.281250,-25.82
18:08:11.296875,-29.78
18:08:11.312500,-33.30
18:08:11.328125,-35.82
18:08:11.343750,-36.82
18:08:11.359375,-35.93
18:08:11.375000,-33.07
18:08:11.390625,-28.47
18:08:11.406250,-22.57
18:08:11.421875,-15.88
18:08:11.437500,-8.82
18:08:11.453125,-1.69
18:08:11.468750,5.38
18:08:11.484375,12.29
18:08:11.500000,18.90
18:08:11.515625,25.02
18:08:11.531250,30.33
18:08:11.546875,34.53
18:08:11.562500,37.41
18:08:11.578125,38.95
18:08:11.593750,39.25
18:08:11.609375,38.58
18:08:11.625000,37.23
18:08:11.640625,35.46
18:08:11.656250,33.49
18:08:11.671875,31.45
18:08:11.687500,29.43
18:08:11.703125,27.49
18:08:11.718750,25.63
18:08:11.734375,23.83
18:08:11.750000,21.99
18:08:11.765625,20.02
18:08:11.781250,17.85
18:08:11.796875,15.49
18:08:11.812500,13.00
18:08:11.828125,10.46
18:08:11.843750,7.94
18:08:11.859375,5.41
18:08:11.875000,2.83
18:08:11.890625,0.17
18:08:11.906250,-2.61
18:08:11.921875,-5.45
18:08:11.937500,-8.30
18:08:11.953125,-11.18
18:08:11.968750,-14.14
18:08:11.984375,-17.31
18:08:12,-20.88
18:08:12.015625,-24.88
18:08:12.031250,-29.28
18:08:12.046875,-33.83
18:08:12.062500,-38.18
18:08:12.078125,-41.85
18:08:12.093750,-44.41
18:08:12.109375,-45.46
18:08:12.125000,-44.71
18:08:12.140625,-42.07
18:08:12.156250,-37.56
18:08:12.171875,-31.46
18:08:12.187500,-24.13
18:08:12.203125,-16.01
18:08:12.218750,-7.54
18:08:12.234375,0.92
18:08:12.250000,9.12
18:08:12.265625,16.89
18:08:12.281250,24.03
18:08:12.296875,30.34
18:08:12.312500,35.56
18:08:12.328125,39.50
18:08:12.343750,42.04
18:08:12.359375,43.21
18:08:12.375000,43.19
18:08:12.390625,42.22
18:08:12.406250,40.63
18:08:12.421875,38.71
18:08:12.437500,36.73
18:08:12.453125,34.85
18:08:12.468750,33.10
18:08:12.484375,31.38
18:08:12.500000,29.52
18:08:12.515625,27.36
18:08:12.531250,24.85
18:08:12.546875,22.08
18:08:12.562500,19.22
18:08:12.578125,16.48
18:08:12.593750,13.92
18:08:12.609375,11.42
18:08:12.625000,8.81
18:08:12.640625,5.83
18:08:12.656250,2.46
18:08:12.671875,-1.20
18:08:12.687500,-4.90
18:08:12.703125,-8.38
18:08:12.718750,-11.51
18:08:12.734375,-14.31
18:08:12.750000,-16.96
18:08:12.765625,-19.63
18:08:12.781250,-22.49
18:08:12.796875,-25.62
18:08:12.812500,-29.03
18:08:12.828125,-32.67
18:08:12.843750,-36.36
18:08:12.859375,-39.81
18:08:12.875000,-42.55
18:08:12.890625,-44.06
18:08:12.906250,-43.89
18:08:12.921875,-41.87
18:08:12.937500,-38.04
18:08:12.953125,-32.72
18:08:12.968750,-26.32
18:08:12.984375,-19.20
18:08:13,-11.70
18:08:13.015625,-3.99
18:08:13.031250,3.77
18:08:13.046875,11.46
18:08:13.062500,18.88
18:08:13.078125,25.77
18:08:13.093750,31.80
18:08:13.109375,36.68
18:08:13.125000,40.17
18:08:13.140625,42.18
18:08:13.156250,42.82
18:08:13.171875,42.33
18:08:13.187500,41.07
18:08:13.203125,39.44
18:08:13.218750,37.77
18:08:13.234375,36.28
18:08:13.250000,35.05
18:08:13.265625,34.05
18:08:13.281250,33.14
18:08:13.296875,32.17
18:08:13.312500,31.00
18:08:13.328125,29.55
18:08:13.343750,27.86
18:08:13.359375,25.99
18:08:13.375000,24.06
18:08:13.390625,22.14
18:08:13.406250,20.24
18:08:13.421875,18.33
18:08:13.437500,16.33
18:08:13.453125,14.13
18:08:13.468750,11.64
18:08:13.484375,8.81
18:08:13.500000,5.62
18:08:13.515625,2.10
18:08:13.531250,-1.66
18:08:13.546875,-5.55
18:08:13.562500,-9.49
18:08:13.578125,-13.45
18:08:13.593750,-17.47
18:08:13.609375,-21.64
18:08:13.625000,-25.90
18:08:13.640625,-30.07
18:08:13.656250,-33.72
18:08:13.671875,-36.36
18:08:13.687500,-37.49
18:08:13.703125,-36.90
18:08:13.718750,-34.70
18:08:13.734375,-31.23
18:08:13.750000,-26.93
18:08:13.765625,-22.20
18:08:13.781250,-17.25
18:08:13.796875,-12.10
18:08:13.812500,-6.78
18:08:13.828125,-1.37
18:08:13.843750,3.92
18:08:13.859375,8.77
18:08:13.875000,12.84
18:08:13.890625,15.91
18:08:13.906250,17.93
18:08:13.921875,19.03
18:08:13.937500,19.45
18:08:13.953125,19.41
18:08:13.968750,19.05
18:08:13.984375,18.41
18:08:14,17.48
18:08:14.015625,16.27
18:08:14.031250,14.88
18:08:14.046875,13.50
18:08:14.062500,12.31
18:08:14.078125,11.39
18:08:14.093750,10.72
18:08:14.109375,10.11
18:08:14.125000,9.39
18:08:14.140625,8.41
18:08:14.156250,7.12
18:08:14.171875,5.59
18:08:14.187500,3.91
18:08:14.203125,2.12
18:08:14.218750,0.20
18:08:14.234375,-1.90
18:08:14.250000,-4.21
18:08:14.265625,-6.69
18:08:14.281250,-9.24
18:08:14.296875,-11.68
18:08:14.312500,-13.92
18:08:14.328125,-15.98
18:08:14.343750,-17.97
18:08:14.359375,-20.09
18:08:14.375000,-22.48
18:08:14.390625,-25.22
18:08:14.406250,-28.19
18:08:14.421875,-31.15
18:08:14.437500,-33.79
18:08:14.453125,-35.77
18:08:14.468750,-36.83
18:08:14.484375,-36.78
18:08:14.500000,-35.57
18:08:14.515625,-33.17
18:08:14.531250,-29.64
18:08:14.546875,-25.10
18:08:14.562500,-19.75
18:08:14.578125,-13.89
18:08:14.593750,-7.85
18:08:14.609375,-1.99
18:08:14.625000,3.49
18:08:14.640625,8.46
18:08:14.656250,12.92
18:08:14.671875,16.86
18:08:14.687500,20.24
18:08:14.703125,22.90
18:08:14.718750,24.63
18:08:14.734375,25.32
18:08:14.750000,25.01
18:08:14.765625,23.94
18:08:14.781250,22.43
18:08:14.796875,20.82
18:08:14.812500,19.30
18:08:14.828125,17.89
18:08:14.843750,16.56
18:08:14.859375,15.25
18:08:14.875000,14.00
18:08:14.890625,12.84
18:08:14.906250,11.76
18:08:14.921875,10.71
18:08:14.937500,9.52
18:08:14.953125,8.11
18:08:14.968750,6.44
18:08:14.984375,4.56
18:08:15,2.57
18:08:15.015625,0.57
18:08:15.031250,-1.45
18:08:15.046875,-3.49
18:08:15.062500,-5.57
18:08:15.078125,-7.70
18:08:15.093750,-9.80
18:08:15.109375,-11.81
18:08:15.125000,-13.71
18:08:15.140625,-15.57
18:08:15.156250,-17.49
18:08:15.171875,-19.63
18:08:15.187500,-22.12
18:08:15.203125,-24.96
18:08:15.218750,-28.06
18:08:15.234375,-31.14
18:08:15.250000,-33.78
18:08:15.265625,-35.56
18:08:15.281250,-36.09
18:08:15.296875,-35.17
18:08:15.312500,-32.77
18:08:15.328125,-29.07
18:08:15.343750,-24.31
18:08:15.359375,-18.79
18:08:15.375000,-12.76
18:08:15.390625,-6.47
18:08:15.406250,-0.15
18:08:15.421875,5.95
18:08:15.437500,11.60
18:08:15.453125,16.58
18:08:15.468750,20.73
18:08:15.484375,23.98
18:08:15.500000,26.29
18:08:15.515625,27.72
18:08:15.531250,28.33
18:08:15.546875,28.24
18:08:15.562500,27.58
18:08:15.578125,26.50
18:08:15.593750,25.19
18:08:15.609375,23.82
18:08:15.625000,22.59
18:08:15.640625,21.58
18:08:15.656250,20.74
18:08:15.671875,19.92
18:08:15.687500,18.92
18:08:15.703125,17.61
18:08:15.718750,16.00
18:08:15.734375,14.21
18:08:15.750000,12.37
18:08:15.765625,10.53
18:08:15.781250,8.63
18:08:15.796875,6.57
18:08:15.812500,4.28
18:08:15.828125,1.82
18:08:15.843750,-0.59
18:08:15.859375,-2.77
18:08:15.875000,-4.58
18:08:15.890625,-6.04
18:08:15.906250,-7.30
18:08:15.921875,-8.53
18:08:15.937500,-9.94
18:08:15.953125,-11.63
18:08:15.968750,-13.66
18:08:15.984375,-16.05
18:08:16,-18.74
18:08:16.015625,-21.65
18:08:16.031250,-24.54
18:08:16.046875,-27.15
18:08:16.062500,-29.13
18:08:16.078125,-30.21
18:08:16.093750,-30.23
18:08:16.109375,-29.22
18:08:16.125000,-27.40
18:08:16.140625,-25.02
18:08:16.156250,-22.36
18:08:16.171875,-19.51
18:08:16.187500,-16.40
18:08:16.203125,-12.84
18:08:16.218750,-8.65
18:08:16.234375,-3.80
18:08:16.250000,1.47
18:08:16.265625,6.73
18:08:16.281250,11.46
18:08:16.296875,15.26
18:08:16.312500,17.97
18:08:16.328125,19.67
18:08:16.343750,20.66
18:08:16.359375,21.23
18:08:16.375000,21.64
18:08:16.390625,22.03
18:08:16.406250,22.48
18:08:16.421875,23.03
18:08:16.437500,23.68
18:08:16.453125,24.43
18:08:16.468750,25.19
18:08:16.484375,25.83
18:08:16.500000,26.18
18:08:16.515625,26.11
18:08:16.531250,25.51
18:08:16.546875,24.36
18:08:16.562500,22.67
18:08:16.578125,20.52
18:08:16.593750,18.01
18:08:16.609375,15.28
18:08:16.625000,12.44
18:08:16.640625,9.57
18:08:16.656250,6.66
18:08:16.671875,3.68
18:08:16.687500,0.55
18:08:16.703125,-2.78
18:08:16.718750,-6.38
18:08:16.734375,-10.26
18:08:16.750000,-14.37
18:08:16.765625,-18.61
18:08:16.781250,-22.75
18:08:16.796875,-26.51
18:08:16.812500,-29.58
18:08:16.828125,-31.70
18:08:16.843750,-32.73
18:08:16.859375,-32.63
18:08:16.875000,-31.49
18:08:16.890625,-29.47
18:08:16.906250,-26.79
18:08:16.921875,-23.65
18:08:16.937500,-20.26
18:08:16.953125,-16.76
18:08:16.968750,-13.30
18:08:16.984375,-9.96
18:08:17,-6.88
18:08:17.015625,-4.13
18:08:17.031250,-1.81
18:08:17.046875,0.03
18:08:17.062500,1.40
18:08:17.078125,2.31
18:08:17.093750,2.78
18:08:17.109375,2.86
18:08:17.125000,2.58
18:08:17.140625,2.00
18:08:17.156250,1.25
18:08:17.171875,0.48
18:08:17.187500,-0.17
18:08:17.203125,-0.57
18:08:17.218750,-0.71
18:08:17.234375,-0.67
18:08:17.250000,-0.64
18:08:17.265625,-0.77
18:08:17.281250,-1.18
18:08:17.296875,-1.90
18:08:17.312500,-2.86
18:08:17.328125,-3.95
18:08:17.343750,-5.05
18:08:17.359375,-6.05
18:08:17.375000,-6.87
18:08:17.390625,-7.45
18:08:17.406250,-7.82
18:08:17.421875,-8.06
18:08:17.437500,-8.36
18:08:17.453125,-8.91
18:08:17.468750,-9.91
18:08:17.484375,-11.40
18:08:17.500000,-13.31
18:08:17.515625,-15.47
18:08:17.531250,-17.66
18:08:17.546875,-19.78
18:08:17.562500,-21.88
18:08:17.578125,-24.09
18:08:17.593750,-26.53
18:08:17.609375,-29.16
18:08:17.625000,-31.73
18:08:17.640625,-33.85
18:08:17.656250,-35.14
18:08:17.671875,-35.33
18:08:17.687500,-34.34
18:08:17.703125,-32.25
18:08:17.718750,-29.13
18:08:17.734375,-25.05
18:08:17.750000,-19.94
18:08:17.765625,-13.79
18:08:17.781250,-6.74
18:08:17.796875,0.81
18:08:17.812500,8.31
18:08:17.828125,15.16
18:08:17.843750,20.91
18:08:17.859375,25.37
18:08:17.875000,28.59
18:08:17.890625,30.73
18:08:17.906250,31.92
18:08:17.921875,32.26
18:08:17.937500,31.81
18:08:17.953125,30.70
18:08:17.968750,29.17
18:08:17.984375,27.48
18:08:18,25.83
18:08:18.015625,24.23
18:08:18.031250,22.57
18:08:18.046875,20.62
18:08:18.062500,18.25
18:08:18.078125,15.50
18:08:18.093750,12.53
18:08:18.109375,9.60
18:08:18.125000,6.91
18:08:18.140625,4.58
18:08:18.156250,2.60
18:08:18.171875,0.91
18:08:18.187500,-0.58
18:08:18.203125,-1.96
18:08:18.218750,-3.28
18:08:18.234375,-4.55
18:08:18.250000,-5.79
18:08:18.265625,-6.96
18:08:18.281250,-8.03
18:08:18.296875,-9.03
18:08:18.312500,-9.96
18:08:18.328125,-10.91
18:08:18.343750,-11.91
18:08:18.359375,-12.97
18:08:18.375000,-14.08
18:08:18.390625,-15.23
18:08:18.406250,-16.38
18:08:18.421875,-17.46
18:08:18.437500,-18.33
18:08:18.453125,-18.76
18:08:18.468750,-18.51
18:08:18.484375,-17.42
18:08:18.500000,-15.50
18:08:18.515625,-12.96
18:08:18.531250,-10.09
18:08:18.546875,-7.17
18:08:18.562500,-4.27
18:08:18.578125,-1.27
18:08:18.593750,2.13
18:08:18.609375,6.25
18:08:18.625000,11.19
18:08:18.640625,16.85
18:08:18.656250,22.86
18:08:18.671875,28.71
18:08:18.687500,33.90
18:08:18.703125,38.01
18:08:18.718750,40.80
18:08:18.734375,42.18
18:08:18.750000,42.27
18:08:18.765625,41.32
18:08:18.781250,39.72
18:08:18.796875,37.85
18:08:18.812500,36.03
18:08:18.828125,34.49
18:08:18.843750,33.20
18:08:18.859375,32.05
18:08:18.875000,30.83
18:08:18.890625,29.31
18:08:18.906250,27.38
18:08:18.921875,25.10
18:08:18.937500,22.68
18:08:18.953125,20.41
18:08:18.968750,18.54
18:08:18.984375,17.17
18:08:19,16.15
18:08:19.015625,15.13
18:08:19.031250,13.73
18:08:19.046875,11.69
18:08:19.062500,8.94
18:08:19.078125,5.66
18:08:19.093750,2.13
18:08:19.109375,-1.39
18:08:19.125000,-4.72
18:08:19.140625,-7.81
18:08:19.156250,-10.67
18:08:19.171875,-13.37
18:08:19.187500,-15.95
18:08:19.203125,-18.54
18:08:19.218750,-21.28
18:08:19.234375,-24.29
18:08:19.250000,-27.57
18:08:19.265625,-30.94
18:08:19.281250,-34.05
18:08:19.296875,-36.49
18:08:19.312500,-37.93
18:08:19.328125,-38.19
18:08:19.343750,-37.34
18:08:19.359375,-35.57
18:08:19.375000,-33.09
18:08:19.390625,-30.07
18:08:19.406250,-26.67
18:08:19.421875,-23.04
18:08:19.437500,-19.36
18:08:19.453125,-15.87
18:08:19.468750,-12.75
18:08:19.484375,-10.10
18:08:19.500000,-7.92
18:08:19.515625,-6.14
18:08:19.531250,-4.70
18:08:19.546875,-3.54
18:08:19.562500,-2.64
18:08:19.578125,-1.98
18:08:19.593750,-1.48
18:08:19.609375,-1.00
18:08:19.625000,-0.39
18:08:19.640625,0.44
18:08:19.656250,1.49
18:08:19.671875,2.68
18:08:19.687500,3.86
18:08:19.703125,4.90
18:08:19.718750,5.68
18:08:19.734375,6.12
18:08:19.750000,6.14
18:08:19.765625,5.68
18:08:19.781250,4.70
18:08:19.796875,3.22
18:08:19.812500,1.35
18:08:19.828125,-0.75
18:08:19.843750,-2.90
18:08:19.859375,-4.94
18:08:19.875000,-6.85
18:08:19.890625,-8.68
18:08:19.906250,-10.58
18:08:19.921875,-12.68
18:08:19.937500,-15.11
18:08:19.953125,-17.89
18:08:19.968750,-20.93
18:08:19.984375,-24.08
18:08:20,-27.10
18:08:20.015625,-29.72
18:08:20.031250,-31.64
18:08:20.046875,-32.63
18:08:20.062500,-32.51
18:08:20.078125,-31.20
18:08:20.093750,-28.74
18:08:20.109375,-25.32
18:08:20.125000,-21.23
18:08:20.140625,-16.84
18:08:20.156250,-12.42
18:08:20.171875,-8.15
18:08:20.187500,-4.01
18:08:20.203125,0.12
18:08:20.218750,4.32
18:08:20.234375,8.52
18:08:20.250000,12.48
18:08:20.265625,15.85
18:08:20.281250,18.36
18:08:20.296875,19.93
18:08:20.312500,20.69
18:08:20.328125,20.93
18:08:20.343750,20.85
18:08:20.359375,20.56
18:08:20.375000,19.99
18:08:20.390625,19.04
18:08:20.406250,17.68
18:08:20.421875,16.00
18:08:20.437500,14.18
18:08:20.453125,12.35
18:08:20.468750,10.58
18:08:20.484375,8.85
18:08:20.500000,7.15
18:08:20.515625,5.53
18:08:20.531250,4.10
18:08:20.546875,2.95
18:08:20.562500,1.94
18:08:20.578125,0.87
18:08:20.593750,-0.58
18:08:20.609375,-2.56
18:08:20.625000,-4.95
18:08:20.640625,-7.43
18:08:20.656250,-9.62
18:08:20.671875,-11.29
18:08:20.687500,-12.44
18:08:20.703125,-13.33
18:08:20.718750,-14.28
18:08:20.734375,-15.58
18:08:20.750000,-17.35
18:08:20.765625,-19.55
18:08:20.781250,-22.10
18:08:20.796875,-24.85
18:08:20.812500,-27.65
18:08:20.828125,-30.32
18:08:20.843750,-32.60
18:08:20.859375,-34.16
18:08:20.875000,-34.67
18:08:20.890625,-33.92
18:08:20.906250,-31.84
18:08:20.921875,-28.60
18:08:20.937500,-24.51
18:08:20.953125,-19.99
18:08:20.968750,-15.38
18:08:20.984375,-10.91
18:08:21,-6.65
18:08:21.015625,-2.63
18:08:21.031250,1.12
18:08:21.046875,4.51
18:08:21.062500,7.40
18:08:21.078125,9.69
18:08:21.093750,11.39
18:08:21.109375,12.59
18:08:21.125000,13.51
18:08:21.140625,14.34
18:08:21.156250,15.20
18:08:21.171875,16.07
18:08:21.187500,16.90
18:08:21.203125,17.55
18:08:21.218750,17.93
18:08:21.234375,18.06
18:08:21.250000,17.99
18:08:21.265625,17.90
18:08:21.281250,17.95
18:08:21.296875,18.24
18:08:21.312500,18.79
18:08:21.328125,19.52
18:08:21.343750,20.30
18:08:21.359375,20.93
18:08:21.375000,21.19
18:08:21.390625,20.82
18:08:21.406250,19.56
18:08:21.421875,17.20
18:08:21.437500,13.76
18:08:21.453125,9.45
18:08:21.468750,4.70
18:08:21.484375,-0.01
18:08:21.500000,-4.31
18:08:21.515625,-8.08
18:08:21.531250,-11.38
18:08:21.546875,-14.42
18:08:21.562500,-17.39
18:08:21.578125,-20.30
18:08:21.593750,-23.02
18:08:21.609375,-25.22
18:08:21.625000,-26.52
18:08:21.640625,-26.55
18:08:21.656250,-25.07
18:08:21.671875,-22.12
18:08:21.687500,-17.93
18:08:21.703125,-12.97
18:08:21.718750,-7.71
18:08:21.734375,-2.54
18:08:21.750000,2.39
18:08:21.765625,7.06
18:08:21.781250,11.53
18:08:21.796875,15.82
18:08:21.812500,19.80
18:08:21.828125,23.29
18:08:21.843750,26.12
18:08:21.859375,28.21
18:08:21.875000,29.65
18:08:21.890625,30.58
18:08:21.906250,31.18
18:08:21.921875,31.56
18:08:21.937500,31.79
18:08:21.953125,31.95
18:08:21.968750,32.11
18:08:21.984375,32.38
18:08:22,32.88
18:08:22.015625,33.66
18:08:22.031250,34.70
18:08:22.046875,35.83
18:08:22.062500,36.76
18:08:22.078125,37.16
18:08:22.093750,36.75
18:08:22.109375,35.32
18:08:22.125000,32.85
18:08:22.140625,29.50
18:08:22.156250,25.56
18:08:22.171875,21.38
18:08:22.187500,17.29
18:08:22.203125,13.43
18:08:22.218750,9.77
18:08:22.234375,6.14
18:08:22.250000,2.26
18:08:22.265625,-2.05
18:08:22.281250,-6.80
18:08:22.296875,-11.90
18:08:22.312500,-17.09
18:08:22.328125,-22.15
18:08:22.343750,-26.87
18:08:22.359375,-31.09
18:08:22.375000,-34.66
18:08:22.390625,-37.43
18:08:22.406250,-39.27
18:08:22.421875,-40.06
18:08:22.437500,-39.77
18:08:22.453125,-38.42
18:08:22.468750,-36.09
18:08:22.484375,-32.88
18:08:22.500000,-28.93
18:08:22.515625,-24.43
18:08:22.531250,-19.61
18:08:22.546875,-14.72
18:08:22.562500,-10.03
18:08:22.578125,-5.75
18:08:22.593750,-1.99
18:08:22.609375,1.13
18:08:22.625000,3.57
18:08:22.640625,5.30
18:08:22.656250,6.31
18:08:22.671875,6.71
18:08:22.687500,6.73
18:08:22.703125,6.65
18:08:22.718750,6.72
18:08:22.734375,7.08
18:08:22.750000,7.69
18:08:22.765625,8.45
18:08:22.781250,9.22
18:08:22.796875,9.93
18:08:22.812500,10.62
18:08:22.828125,11.32
18:08:22.843750,11.99
18:08:22.859375,12.51
18:08:22.875000,12.72
18:08:22.890625,12.45
18:08:22.906250,11.64
18:08:22.921875,10.35
18:08:22.937500,8.76
18:08:22.953125,7.12
18:08:22.968750,5.69
18:08:22.984375,4.70
18:08:23,4.21
18:08:23.015625,4.14
18:08:23.031250,4.21
18:08:23.046875,4.04
18:08:23.062500,3.20
18:08:23.078125,1.44
18:08:23.093750,-1.33
18:08:23.109375,-5.01
18:08:23.125000,-9.30
18:08:23.140625,-13.82
18:08:23.156250,-18.14
18:08:23.171875,-21.79
18:08:23.187500,-24.41
18:08:23.203125,-25.70
18:08:23.218750,-25.63
18:08:23.234375,-24.35
18:08:23.250000,-22.19
18:08:23.265625,-19.48
18:08:23.281250,-16.45
18:08:23.296875,-13.20
18:08:23.312500,-9.72
18:08:23.328125,-6.02
18:08:23.343750,-2.22
18:08:23.359375,1.46
18:08:23.375000,4.74
18:08:23.390625,7.38
18:08:23.406250,9.19
18:08:23.421875,10.16
18:08:23.437500,10.35
18:08:23.453125,9.94
18:08:23.468750,9.19
18:08:23.484375,8.33
18:08:23.500000,7.55
18:08:23.515625,6.92
18:08:23.531250,6.34
18:08:23.546875,5.59
18:08:23.562500,4.44
18:08:23.578125,2.78
18:08:23.593750,0.70
18:08:23.609375,-1.61
18:08:23.625000,-3.85
18:08:23.640625,-5.86
18:08:23.656250,-7.61
18:08:23.671875,-9.19
18:08:23.687500,-10.77
18:08:23.703125,-12.35
18:08:23.718750,-13.87
18:08:23.734375,-15.14
18:08:23.750000,-16.08
18:08:23.765625,-16.70
18:08:23.781250,-17.15
18:08:23.796875,-17.66
18:08:23.812500,-18.45
18:08:23.828125,-19.63
18:08:23.843750,-21.18
18:08:23.859375,-23.01
18:08:23.875000,-24.93
18:08:23.890625,-26.79
18:08:23.906250,-28.37
18:08:23.921875,-29.42
18:08:23.937500,-29.66
18:08:23.953125,-28.74
18:08:23.968750,-26.40
18:08:23.984375,-22.56
18:08:24,-17.36
18:08:24.015625,-11.25
18:08:24.031250,-4.77
18:08:24.046875,1.59
18:08:24.062500,7.55
18:08:24.078125,13.05
18:08:24.093750,18.23
18:08:24.109375,23.16
18:08:24.125000,27.76
18:08:24.140625,31.75
18:08:24.156250,34.82
18:08:24.171875,36.70
18:08:24.187500,37.40
18:08:24.203125,37.13
18:08:24.218750,36.30
18:08:24.234375,35.32
18:08:24.250000,34.49
18:08:24.265625,33.96
18:08:24.281250,33.73
18:08:24.296875,33.70
18:08:24.312500,33.74
18:08:24.328125,33.75
18:08:24.343750,33.68
18:08:24.359375,33.59
18:08:24.375000,33.56
18:08:24.390625,33.69
18:08:24.406250,33.99
18:08:24.421875,34.38
18:08:24.437500,34.66
18:08:24.453125,34.64
18:08:24.468750,34.09
18:08:24.484375,32.96
18:08:24.500000,31.25
18:08:24.515625,29.06
18:08:24.531250,26.41
18:08:24.546875,23.26
18:08:24.562500,19.46
18:08:24.578125,14.88
18:08:24.593750,9.51
18:08:24.609375,3.52
18:08:24.625000,-2.82
18:08:24.640625,-9.20
18:08:24.656250,-15.44
18:08:24.671875,-21.40
18:08:24.687500,-27.02
18:08:24.703125,-32.11
18:08:24.718750,-36.40
18:08:24.734375,-39.55
18:08:24.750000,-41.31
18:08:24.765625,-41.59
18:08:24.781250,-40.53
18:08:24.796875,-38.43
18:08:24.812500,-35.56
18:08:24.828125,-32.12
18:08:24.843750,-28.20
18:08:24.859375,-23.79
18:08:24.875000,-18.94
18:08:24.890625,-13.81
18:08:24.906250,-8.67
18:08:24.921875,-3.82
18:08:24.937500,0.48
18:08:24.953125,4.17
18:08:24.968750,7.31
18:08:24.984375,10.04
18:08:25,12.44
18:08:25.015625,14.47
18:08:25.031250,16.00
18:08:25.046875,16.88
18:08:25.062500,17.06
18:08:25.078125,16.66
18:08:25.093750,15.86
18:08:25.109375,14.90
18:08:25.125000,13.94
18:08:25.140625,13.07
18:08:25.156250,12.33
18:08:25.171875,11.77
18:08:25.187500,11.37
18:08:25.203125,11.08
18:08:25.218750,10.76
18:08:25.234375,10.23
18:08:25.250000,9.33
18:08:25.265625,7.98
18:08:25.281250,6.15
18:08:25.296875,3.88
18:08:25.312500,1.23
18:08:25.328125,-1.75
18:08:25.343750,-5.03
18:08:25.359375,-8.60
18:08:25.375000,-12.41
18:08:25.390625,-16.45
18:08:25.406250,-20.62
18:08:25.421875,-24.74
18:08:25.437500,-28.57
18:08:25.453125,-31.71
18:08:25.468750,-33.83
18:08:25.484375,-34.70
18:08:25.500000,-34.26
18:08:25.515625,-32.74
18:08:25.531250,-30.46
18:08:25.546875,-27.75
18:08:25.562500,-24.81
18:08:25.578125,-21.63
18:08:25.593750,-18.11
18:08:25.609375,-14.12
18:08:25.625000,-9.71
18:08:25.640625,-5.12
18:08:25.656250,-0.79
18:08:25.671875,2.84
18:08:25.687500,5.48
18:08:25.703125,7.13
18:08:25.718750,8.04
18:08:25.734375,8.60
18:08:25.750000,9.14
18:08:25.765625,9.77
18:08:25.781250,10.38
18:08:25.796875,10.73
18:08:25.812500,10.60
18:08:25.828125,9.92
18:08:25.843750,8.81
18:08:25.859375,7.52
18:08:25.875000,6.24
18:08:25.890625,5.10
18:08:25.906250,4.03
18:08:25.921875,2.90
18:08:25.937500,1.59
18:08:25.953125,0.06
18:08:25.968750,-1.65
18:08:25.984375,-3.50
18:08:26,-5.46
18:08:26.015625,-7.55
18:08:26.031250,-9.87
18:08:26.046875,-12.41
18:08:26.062500,-15.13
18:08:26.078125,-17.88
18:08:26.093750,-20.50
18:08:26.109375,-22.92
18:08:26.125000,-25.19
18:08:26.140625,-27.46
18:08:26.156250,-29.84
18:08:26.171875,-32.34
18:08:26.187500,-34.72
18:08:26.203125,-36.57
18:08:26.218750,-37.37
18:08:26.234375,-36.74
18:08:26.250000,-34.53
18:08:26.265625,-30.92
18:08:26.281250,-26.30
18:08:26.296875,-21.09
18:08:26.312500,-15.60
18:08:26.328125,-9.93
18:08:26.343750,-4.08
18:08:26.359375,1.95
18:08:26.375000,8.01
18:08:26.390625,13.85
18:08:26.406250,19.11
18:08:26.421875,23.55
18:08:26.437500,27.08
18:08:26.453125,29.74
18:08:26.468750,31.72
18:08:26.484375,33.11
18:08:26.500000,33.96
18:08:26.515625,34.21
18:08:26.531250,33.81
18:08:26.546875,32.80
18:08:26.562500,31.36
18:08:26.578125,29.77
18:08:26.593750,28.31
18:08:26.609375,27.21
18:08:26.625000,26.52
18:08:26.640625,26.16
18:08:26.656250,25.97
18:08:26.671875,25.77
18:08:26.687500,25.42
18:08:26.703125,24.84
18:08:26.718750,24.01
18:08:26.734375,22.93
18:08:26.750000,21.58
18:08:26.765625,19.95
18:08:26.781250,18.01
18:08:26.796875,15.75
18:08:26.812500,13.11
18:08:26.828125,10.04
18:08:26.843750,6.46
18:08:26.859375,2.35
18:08:26.875000,-2.24
18:08:26.890625,-7.11
18:08:26.906250,-12.00
18:08:26.921875,-16.61
18:08:26.937500,-20.69
18:08:26.953125,-24.08
18:08:26.968750,-26.71
18:08:26.984375,-28.52
18:08:27,-29.47
18:08:27.015625,-29.48
18:08:27.031250,-28.51
18:08:27.046875,-26.58
18:08:27.062500,-23.79
18:08:27.078125,-20.32
18:08:27.093750,-16.31
18:08:27.109375,-11.88
18:08:27.125000,-7.11
18:08:27.140625,-2.11
18:08:27.156250,2.97
18:08:27.171875,7.91
18:08:27.187500,12.48
18:08:27.203125,16.51
18:08:27.218750,19.91
18:08:27.234375,22.67
18:08:27.250000,24.84
18:08:27.265625,26.46
18:08:27.281250,27.61
18:08:27.296875,28.35
18:08:27.312500,28.76
18:08:27.328125,28.95
18:08:27.343750,29.04
18:08:27.359375,29.08
18:08:27.375000,29.04
18:08:27.390625,28.83
18:08:27.406250,28.38
18:08:27.421875,27.59
18:08:27.437500,26.49
18:08:27.453125,25.08
18:08:27.468750,23.43
18:08:27.484375,21.57
18:08:27.500000,19.56
18:08:27.515625,17.45
18:08:27.531250,15.22
18:08:27.546875,12.80
18:08:27.562500,10.09
18:08:27.578125,6.99
18:08:27.593750,3.44
18:08:27.609375,-0.49
18:08:27.625000,-4.70
18:08:27.640625,-9.09
18:08:27.656250,-13.64
18:08:27.671875,-18.43
18:08:27.687500,-23.55
18:08:27.703125,-29.00
18:08:27.718750,-34.58
18:08:27.734375,-39.91
18:08:27.750000,-44.50
18:08:27.765625,-47.93
18:08:27.781250,-49.98
18:08:27.796875,-50.55
18:08:27.812500,-49.75
18:08:27.828125,-47.71
18:08:27.843750,-44.59
18:08:27.859375,-40.55
18:08:27.875000,-35.76
18:08:27.890625,-30.41
18:08:27.906250,-24.73
18:08:27.921875,-18.95
18:08:27.937500,-13.30
18:08:27.953125,-7.96
18:08:27.968750,-3.11
18:08:27.984375,1.10
18:08:28,4.55
18:08:28.015625,7.14
18:08:28.031250,8.89
18:08:28.046875,9.90
18:08:28.062500,10.39
18:08:28.078125,10.65
18:08:28.093750,10.89
18:08:28.109375,11.27
18:08:28.125000,11.78
18:08:28.140625,12.30
18:08:28.156250,12.67
18:08:28.171875,12.78
18:08:28.187500,12.64
18:08:28.203125,12.33
18:08:28.218750,11.92
18:08:28.234375,11.41
18:08:28.250000,10.68
18:08:28.265625,9.57
18:08:28.281250,8.00
18:08:28.296875,6.03
18:08:28.312500,3.83
18:08:28.328125,1.62
18:08:28.343750,-0.50
18:08:28.359375,-2.57
18:08:28.375000,-4.72
18:08:28.390625,-7.09
18:08:28.406250,-9.72
18:08:28.421875,-12.55
18:08:28.437500,-15.47
18:08:28.453125,-18.37
18:08:28.468750,-21.24
18:08:28.484375,-24.03
18:08:28.500000,-26.67
18:08:28.515625,-28.99
18:08:28.531250,-30.73
18:08:28.546875,-31.64
18:08:28.562500,-31.55
18:08:28.578125,-30.42
18:08:28.593750,-28.37
18:08:28.609375,-25.57
18:08:28.625000,-22.24
18:08:28.640625,-18.53
18:08:28.656250,-14.57
18:08:28.671875,-10.43
18:08:28.687500,-6.14
18:08:28.703125,-1.76
18:08:28.718750,2.58
18:08:28.734375,6.72
18:08:28.750000,10.38
18:08:28.765625,13.35
18:08:28.781250,15.49
18:08:28.796875,16.83
18:08:28.812500,17.54
18:08:28.828125,17.90
18:08:28.843750,18.20
18:08:28.859375,18.63
18:08:28.875000,19.26
18:08:28.890625,20.00
18:08:28.906250,20.73
18:08:28.921875,21.32
18:08:28.937500,21.71
18:08:28.953125,21.92
18:08:28.968750,21.97
18:08:28.984375,21.89
18:08:29,21.59
18:08:29.015625,21.00
18:08:29.031250,20.03
18:08:29.046875,18.69
18:08:29.062500,17.07
18:08:29.078125,15.31
18:08:29.093750,13.52
18:08:29.109375,11.69
18:08:29.125000,9.73
18:08:29.140625,7.47
18:08:29.156250,4.85
18:08:29.171875,1.86
18:08:29.187500,-1.37
18:08:29.203125,-4.72
18:08:29.218750,-8.10
18:08:29.234375,-11.53
18:08:29.250000,-15.05
18:08:29.265625,-18.69
18:08:29.281250,-22.33
18:08:29.296875,-25.69
18:08:29.312500,-28.37
18:08:29.328125,-29.95
18:08:29.343750,-30.11
18:08:29.359375,-28.75
18:08:29.375000,-25.99
18:08:29.390625,-22.20
18:08:29.406250,-17.82
18:08:29.421875,-13.28
18:08:29.437500,-8.79
18:08:29.453125,-4.35
18:08:29.468750,0.21
18:08:29.484375,5.03
18:08:29.500000,10.05
18:08:29.515625,15.01
18:08:29.531250,19.53
18:08:29.546875,23.28
18:08:29.562500,26.18
18:08:29.578125,28.32
18:08:29.593750,29.94
18:08:29.609375,31.14
18:08:29.625000,31.90
18:08:29.640625,32.06
18:08:29.656250,31.52
18:08:29.671875,30.32
18:08:29.687500,28.69
18:08:29.703125,26.92
18:08:29.718750,25.20
18:08:29.734375,23.54
18:08:29.750000,21.77
18:08:29.765625,19.67
18:08:29.781250,17.08
18:08:29.796875,14.05
18:08:29.812500,10.77
18:08:29.828125,7.46
18:08:29.843750,4.29
18:08:29.859375,1.29
18:08:29.875000,-1.59
18:08:29.890625,-4.47
18:08:29.906250,-7.43
18:08:29.921875,-10.53
18:08:29.937500,-13.77
18:08:29.953125,-17.17
18:08:29.968750,-20.75
18:08:29.984375,-24.49
18:08:30,-28.37
18:08:30.015625,-32.27
18:08:30.031250,-35.96
18:08:30.046875,-39.14
18:08:30.062500,-41.43
18:08:30.078125,-42.42
18:08:30.093750,-41.78
18:08:30.109375,-39.26
18:08:30.125000,-34.89
18:08:30.140625,-28.94
18:08:30.156250,-21.92
18:08:30.171875,-14.48
18:08:30.187500,-7.18
18:08:30.203125,-0.47
18:08:30.218750,5.44
18:08:30.234375,10.51
18:08:30.250000,14.78
18:08:30.265625,18.29
18:08:30.281250,21.09
18:08:30.296875,23.17
18:08:30.312500,24.55
18:08:30.328125,25.23
18:08:30.343750,25.22
18:08:30.359375,24.43
18:08:30.375000,22.77
18:08:30.390625,20.13
18:08:30.406250,16.56
18:08:30.421875,12.28
18:08:30.437500,7.73
18:08:30.453125,3.43
18:08:30.468750,-0.20
18:08:30.484375,-2.97
18:08:30.500000,-5.01
18:08:30.515625,-6.67
18:08:30.531250,-8.38
18:08:30.546875,-10.52
18:08:30.562500,-13.24
18:08:30.578125,-16.55
18:08:30.593750,-20.27
18:08:30.609375,-24.20
18:08:30.625000,-28.08
18:08:30.640625,-31.74
18:08:30.656250,-35.03
18:08:30.671875,-37.80
18:08:30.687500,-39.99
18:08:30.703125,-41.58
18:08:30.718750,-42.67
18:08:30.734375,-43.42
18:08:30.750000,-44.05
18:08:30.765625,-44.72
18:08:30.781250,-45.40
18:08:30.796875,-45.91
18:08:30.812500,-45.99
18:08:30.828125,-45.39
18:08:30.843750,-44.00
18:08:30.859375,-41.90
18:08:30.875000,-39.23
18:08:30.890625,-36.17
18:08:30.906250,-32.77
18:08:30.921875,-28.95
18:08:30.937500,-24.58
18:08:30.953125,-19.50
18:08:30.968750,-13.64
18:08:30.984375,-6.99
18:08:31,0.29
18:08:31.015625,7.96
18:08:31.031250,15.63
18:08:31.046875,22.85
18:08:31.062500,29.14
18:08:31.078125,34.09
18:08:31.093750,37.44
18:08:31.109375,39.08
18:08:31.125000,39.16
18:08:31.140625,37.98
18:08:31.156250,36.04
18:08:31.171875,33.96
18:08:31.187500,32.35
18:08:31.203125,31.67
18:08:31.218750,32.11
18:08:31.234375,33.51
18:08:31.250000,35.41
18:08:31.265625,37.16
18:08:31.281250,38.18
18:08:31.296875,38.05
18:08:31.312500,36.72
18:08:31.328125,34.42
18:08:31.343750,31.57
18:08:31.359375,28.64
18:08:31.375000,25.96
18:08:31.390625,23.72
18:08:31.406250,21.94
18:08:31.421875,20.58
18:08:31.437500,19.61
18:08:31.453125,19.04
18:08:31.468750,18.84
18:08:31.484375,18.88
18:08:31.500000,18.94
18:08:31.515625,18.69
18:08:31.531250,17.84
18:08:31.546875,16.26
18:08:31.562500,14.07
18:08:31.578125,11.57
18:08:31.593750,9.23
18:08:31.609375,7.49
18:08:31.625000,6.68
18:08:31.640625,6.99
18:08:31.656250,8.38
18:08:31.671875,10.68
18:08:31.687500,13.61
18:08:31.703125,16.84
18:08:31.718750,20.11
18:08:31.734375,23.31
18:08:31.750000,26.45
18:08:31.765625,29.63
18:08:31.781250,32.95
18:08:31.796875,36.37
18:08:31.812500,39.67
18:08:31.828125,42.48
18:08:31.843750,44.35
18:08:31.859375,44.83
18:08:31.875000,43.60
18:08:31.890625,40.51
18:08:31.906250,35.64
18:08:31.921875,29.34
18:08:31.937500,22.20
18:08:31.953125,14.92
18:08:31.968750,8.11
18:08:31.984375,2.20
18:08:32,-2.64
18:08:32.015625,-6.46
18:08:32.031250,-9.37
18:08:32.046875,-11.46
18:08:32.062500,-12.79
18:08:32.078125,-13.38
18:08:32.093750,-13.30
18:08:32.109375,-12.63
18:08:32.125000,-11.54
18:08:32.140625,-10.14
18:08:32.156250,-8.50
18:08:32.171875,-6.64
18:08:32.187500,-4.54
18:08:32.203125,-2.22
18:08:32.218750,0.25
18:08:32.234375,2.72
18:08:32.250000,4.91
18:08:32.265625,6.49
18:08:32.281250,7.19
18:08:32.296875,6.82
18:08:32.312500,5.39
18:08:32.328125,3.07
18:08:32.343750,0.09
18:08:32.359375,-3.32
18:08:32.375000,-6.95
18:08:32.390625,-10.60
18:08:32.406250,-14.01
18:08:32.421875,-16.86
18:08:32.437500,-18.83
18:08:32.453125,-19.69
18:08:32.468750,-19.42
18:08:32.484375,-18.25
18:08:32.500000,-16.57
18:08:32.515625,-14.82
18:08:32.531250,-13.31
18:08:32.546875,-12.19
18:08:32.562500,-11.35
18:08:32.578125,-10.59
18:08:32.593750,-9.66
18:08:32.609375,-8.44
18:08:32.625000,-6.99
18:08:32.640625,-5.52
18:08:32.656250,-4.34
18:08:32.671875,-3.66
18:08:32.687500,-3.55
18:08:32.703125,-3.93
18:08:32.718750,-4.68
18:08:32.734375,-5.62
18:08:32.750000,-6.65
18:08:32.765625,-7.69
18:08:32.781250,-8.62
18:08:32.796875,-9.33
18:08:32.812500,-9.76
18:08:32.828125,-9.91
18:08:32.843750,-9.91
18:08:32.859375,-9.96
18:08:32.875000,-10.21
18:08:32.890625,-10.75
18:08:32.906250,-11.54
18:08:32.921875,-12.46
18:08:32.937500,-13.38
18:08:32.953125,-14.17
18:08:32.968750,-14.72
18:08:32.984375,-15.02
18:08:33,-15.13
18:08:33.015625,-15.16
18:08:33.031250,-15.33
18:08:33.046875,-15.82
18:08:33.062500,-16.72
18:08:33.078125,-18.02
18:08:33.093750,-19.60
18:08:33.109375,-21.29
18:08:33.125000,-22.92
18:08:33.140625,-24.37
18:08:33.156250,-25.50
18:08:33.171875,-26.19
18:08:33.187500,-26.27
18:08:33.203125,-25.62
18:08:33.218750,-24.19
18:08:33.234375,-22.03
18:08:33.250000,-19.26
18:08:33.265625,-15.99
18:08:33.281250,-12.28
18:08:33.296875,-8.21
18:08:33.312500,-3.80
18:08:33.328125,0.80
18:08:33.343750,5.35
18:08:33.359375,9.55
18:08:33.375000,13.06
18:08:33.390625,15.64
18:08:33.406250,17.16
18:08:33.421875,17.75
18:08:33.437500,17.67
18:08:33.453125,17.21
18:08:33.468750,16.64
18:08:33.484375,16.04
18:08:33.500000,15.37
18:08:33.515625,14.53
18:08:33.531250,13.48
18:08:33.546875,12.25
18:08:33.562500,10.96
18:08:33.578125,9.72
18:08:33.593750,8.58
18:08:33.609375,7.51
18:08:33.625000,6.42
18:08:33.640625,5.27
18:08:33.656250,4.06
18:08:33.671875,2.84
18:08:33.687500,1.69
18:08:33.703125,0.63
18:08:33.718750,-0.39
18:08:33.734375,-1.46
18:08:33.750000,-2.73
18:08:33.765625,-4.30
18:08:33.781250,-6.19
18:08:33.796875,-8.32
18:08:33.812500,-10.59
18:08:33.828125,-12.90
18:08:33.843750,-15.22
18:08:33.859375,-17.61
18:08:33.875000,-20.12
18:08:33.890625,-22.66
18:08:33.906250,-24.97
18:08:33.921875,-26.71
18:08:33.937500,-27.50
18:08:33.953125,-27.21
18:08:33.968750,-25.87
18:08:33.984375,-23.72
18:08:34,-21.06
18:08:34.015625,-18.06
18:08:34.031250,-14.77
18:08:34.046875,-11.13
18:08:34.062500,-7.05
18:08:34.078125,-2.53
18:08:34.093750,2.27
18:08:34.109375,7.08
18:08:34.125000,11.61
18:08:34.140625,15.56
18:08:34.156250,18.76
18:08:34.171875,21.14
18:08:34.187500,22.77
18:08:34.203125,23.78
18:08:34.218750,24.34
18:08:34.234375,24.57
18:08:34.250000,24.58
18:08:34.265625,24.45
18:08:34.281250,24.24
18:08:34.296875,24.06
18:08:34.312500,23.94
18:08:34.328125,23.93
18:08:34.343750,23.98
18:08:34.359375,24.03
18:08:34.375000,23.97
18:08:34.390625,23.76
18:08:34.406250,23.35
18:08:34.421875,22.71
18:08:34.437500,21.81
18:08:34.453125,20.59
18:08:34.468750,19.09
18:08:34.484375,17.37
18:08:34.500000,15.59
18:08:34.515625,13.87
18:08:34.531250,12.30
18:08:34.546875,10.82
18:08:34.562500,9.28
18:08:34.578125,7.50
18:08:34.593750,5.32
18:08:34.609375,2.69
18:08:34.625000,-0.36
18:08:34.640625,-3.75
18:08:34.656250,-7.32
18:08:34.671875,-10.89
18:08:34.687500,-14.24
18:08:34.703125,-17.13
18:08:34.718750,-19.32
18:08:34.734375,-20.65
18:08:34.750000,-21.05
18:08:34.765625,-20.56
18:08:34.781250,-19.36
18:08:34.796875,-17.59
18:08:34.812500,-15.45
18:08:34.828125,-13.01
18:08:34.843750,-10.33
18:08:34.859375,-7.41
18:08:34.875000,-4.30
18:08:34.890625,-1.12
18:08:34.906250,1.91
18:08:34.921875,4.53
18:08:34.937500,6.54
18:08:34.953125,7.83
18:08:34.968750,8.50
18:08:34.984375,8.78
18:08:35,8.92
18:08:35.015625,9.12
18:08:35.031250,9.43
18:08:35.046875,9.80
18:08:35.062500,10.16
18:08:35.078125,10.46
18:08:35.093750,10.72
18:08:35.109375,10.95
18:08:35.125000,11.20
18:08:35.140625,11.41
18:08:35.156250,11.50
18:08:35.171875,11.39
18:08:35.187500,11.04
18:08:35.203125,10.42
18:08:35.218750,9.47
18:08:35.234375,8.18
18:08:35.250000,6.53
18:08:35.265625,4.55
18:08:35.281250,2.31
18:08:35.296875,-0.08
18:08:35.312500,-2.56
18:08:35.328125,-5.11
18:08:35.343750,-7.74
18:08:35.359375,-10.51
18:08:35.375000,-13.44
18:08:35.390625,-16.54
18:08:35.406250,-19.75
18:08:35.421875,-23.03
18:08:35.437500,-26.24
18:08:35.453125,-29.19
18:08:35.468750,-31.62
18:08:35.484375,-33.26
18:08:35.500000,-33.96
18:08:35.515625,-33.66
18:08:35.531250,-32.53
18:08:35.546875,-30.76
18:08:35.562500,-28.52
18:08:35.578125,-25.87
18:08:35.593750,-22.74
18:08:35.609375,-19.06
18:08:35.625000,-14.83
18:08:35.640625,-10.19
18:08:35.656250,-5.47
18:08:35.671875,-1.04
18:08:35.687500,2.72
18:08:35.703125,5.63
18:08:35.718750,7.65
18:08:35.734375,8.92
18:08:35.750000,9.67
18:08:35.765625,10.11
18:08:35.781250,10.40
18:08:35.796875,10.69
18:08:35.812500,11.01
18:08:35.828125,11.40
18:08:35.843750,11.82
18:08:35.859375,12.18
18:08:35.875000,12.37
18:08:35.890625,12.30
18:08:35.906250,12.00
18:08:35.921875,11.59
18:08:35.937500,11.23
18:08:35.953125,11.07
18:08:35.968750,11.06
18:08:35.984375,11.03
18:08:36,10.74
18:08:36.015625,10.05
18:08:36.031250,8.93
18:08:36.046875,7.50
18:08:36.062500,5.93
18:08:36.078125,4.32
18:08:36.093750,2.69
18:08:36.109375,0.98
18:08:36.125000,-0.86
18:08:36.140625,-2.88
18:08:36.156250,-5.02
18:08:36.171875,-7.21
18:08:36.187500,-9.42
18:08:36.203125,-11.62
18:08:36.218750,-13.80
18:08:36.234375,-15.96
18:08:36.250000,-18.03
18:08:36.265625,-19.85
18:08:36.281250,-21.22
18:08:36.296875,-21.83
18:08:36.312500,-21.42
18:08:36.328125,-19.83
18:08:36.343750,-17.12
18:08:36.359375,-13.56
18:08:36.375000,-9.57
18:08:36.390625,-5.56
18:08:36.406250,-1.77
18:08:36.421875,1.73
18:08:36.437500,5.03
18:08:36.453125,8.21
18:08:36.468750,11.21
18:08:36.484375,13.83
18:08:36.500000,15.78
18:08:36.515625,16.84
18:08:36.531250,16.97
18:08:36.546875,16.35
18:08:36.562500,15.26
18:08:36.578125,13.97
18:08:36.593750,12.69
18:08:36.609375,11.51
18:08:36.625000,10.50
18:08:36.640625,9.67
18:08:36.656250,9.05
18:08:36.671875,8.57
18:08:36.687500,8.12
18:08:36.703125,7.53
18:08:36.718750,6.66
18:08:36.734375,5.42
18:08:36.750000,3.87
18:08:36.765625,2.18
18:08:36.781250,0.54
18:08:36.796875,-0.90
18:08:36.812500,-2.12
18:08:36.828125,-3.19
18:08:36.843750,-4.28
18:08:36.859375,-5.51
18:08:36.875000,-6.94
18:08:36.890625,-8.54
18:08:36.906250,-10.22
18:08:36.921875,-11.88
18:08:36.937500,-13.47
18:08:36.953125,-15.00
18:08:36.968750,-16.54
18:08:36.984375,-18.18
18:08:37,-19.93
18:08:37.015625,-21.73
18:08:37.031250,-23.42
18:08:37.046875,-24.79
18:08:37.062500,-25.66
18:08:37.078125,-25.83
18:08:37.093750,-25.17
18:08:37.109375,-23.59
18:08:37.125000,-21.06
18:08:37.140625,-17.62
18:08:37.156250,-13.40
18:08:37.171875,-8.59
18:08:37.187500,-3.46
18:08:37.203125,1.78
18:08:37.218750,6.93
18:08:37.234375,11.84
18:08:37.250000,16.41
18:08:37.265625,20.48
18:08:37.281250,23.88
18:08:37.296875,26.41
18:08:37.312500,28.01
18:08:37.328125,28.73
18:08:37.343750,28.77
18:08:37.359375,28.38
18:08:37.375000,27.77
18:08:37.390625,27.08
18:08:37.406250,26.36
18:08:37.421875,25.64
18:08:37.437500,24.96
18:08:37.453125,24.41
18:08:37.468750,24.05
18:08:37.484375,23.86
18:08:37.500000,23.71
18:08:37.515625,23.37
18:08:37.531250,22.67
18:08:37.546875,21.54
18:08:37.562500,20.09
18:08:37.578125,18.48
18:08:37.593750,16.90
18:08:37.609375,15.40
18:08:37.625000,13.88
18:08:37.640625,12.17
18:08:37.656250,10.13
18:08:37.671875,7.76
18:08:37.687500,5.18
18:08:37.703125,2.62
18:08:37.718750,0.27
18:08:37.734375,-1.88
18:08:37.750000,-3.96
18:08:37.765625,-6.22
18:08:37.781250,-8.90
18:08:37.796875,-12.09
18:08:37.812500,-15.74
18:08:37.828125,-19.58
18:08:37.843750,-23.23
18:08:37.859375,-26.29
18:08:37.875000,-28.43
18:08:37.890625,-29.46
18:08:37.906250,-29.39
18:08:37.921875,-28.38
18:08:37.937500,-26.60
18:08:37.953125,-24.24
18:08:37.968750,-21.38
18:08:37.984375,-18.07
18:08:38,-14.38
18:08:38.015625,-10.45
18:08:38.031250,-6.48
18:08:38.046875,-2.76
18:08:38.062500,0.47
18:08:38.078125,3.04
18:08:38.093750,4.88
18:08:38.109375,6.12
18:08:38.125000,6.98
18:08:38.140625,7.72
18:08:38.156250,8.53
18:08:38.171875,9.57
18:08:38.187500,10.81
18:08:38.203125,12.19
18:08:38.218750,13.61
18:08:38.234375,14.97
18:08:38.250000,16.21
18:08:38.265625,17.28
18:08:38.281250,18.16
18:08:38.296875,18.83
18:08:38.312500,19.33
18:08:38.328125,19.65
18:08:38.343750,19.75
18:08:38.359375,19.55
18:08:38.375000,18.89
18:08:38.390625,17.66
18:08:38.406250,15.82
18:08:38.421875,13.53
18:08:38.437500,11.02
18:08:38.453125,8.54
18:08:38.468750,6.26
18:08:38.484375,4.20
18:08:38.500000,2.22
18:08:38.515625,0.13
18:08:38.531250,-2.23
18:08:38.546875,-4.92
18:08:38.562500,-7.95
18:08:38.578125,-11.24
18:08:38.593750,-14.69
18:08:38.609375,-18.20
18:08:38.625000,-21.58
18:08:38.640625,-24.62
18:08:38.656250,-27.06
18:08:38.671875,-28.62
18:08:38.687500,-29.19
18:08:38.703125,-28.79
18:08:38.718750,-27.61
18:08:38.734375,-25.96
18:08:38.750000,-24.08
18:08:38.765625,-22.08
18:08:38.781250,-19.87
18:08:38.796875,-17.29
18:08:38.812500,-14.24
18:08:38.828125,-10.82
18:08:38.843750,-7.40
18:08:38.859375,-4.47
18:08:38.875000,-2.43
18:08:38.890625,-1.38
18:08:38.906250,-1.04
18:08:38.921875,-0.93
18:08:38.937500,-0.59
18:08:38.953125,0.11
18:08:38.968750,1.04
18:08:38.984375,1.81
18:08:39,2.13
18:08:39.015625,1.96
18:08:39.031250,1.50
18:08:39.046875,1.08
18:08:39.062500,0.89
18:08:39.078125,0.93
18:08:39.093750,0.98
18:08:39.109375,0.79
18:08:39.125000,0.26
18:08:39.140625,-0.56
18:08:39.156250,-1.48
18:08:39.171875,-2.32
18:08:39.187500,-2.99
18:08:39.203125,-3.58
18:08:39.218750,-4.24
18:08:39.234375,-5.13
18:08:39.250000,-6.28
18:08:39.265625,-7.59
18:08:39.281250,-8.87
18:08:39.296875,-9.90
18:08:39.312500,-10.61
18:08:39.328125,-11.06
18:08:39.343750,-11.45
18:08:39.359375,-11.97
18:08:39.375000,-12.77
18:08:39.390625,-13.83
18:08:39.406250,-15.01
18:08:39.421875,-16.15
18:08:39.437500,-17.01
18:08:39.453125,-17.43
18:08:39.468750,-17.29
18:08:39.484375,-16.52
18:08:39.500000,-15.06
18:08:39.515625,-12.92
18:08:39.531250,-10.20
18:08:39.546875,-7.02
18:08:39.562500,-3.57
18:08:39.578125,0.01
18:08:39.593750,3.61
18:08:39.609375,7.19
18:08:39.625000,10.70
18:08:39.640625,14.06
18:08:39.656250,17.12
18:08:39.671875,19.68
18:08:39.687500,21.54
18:08:39.703125,22.60
18:08:39.718750,22.86
18:08:39.734375,22.40
18:08:39.750000,21.39
18:08:39.765625,19.99
18:08:39.781250,18.39
18:08:39.796875,16.77
18:08:39.812500,15.33
18:08:39.828125,14.21
18:08:39.843750,13.40
18:08:39.859375,12.78
18:08:39.875000,12.07
18:08:39.890625,11.03
18:08:39.906250,9.57
18:08:39.921875,7.81
18:08:39.937500,5.98
18:08:39.953125,4.33
18:08:39.968750,2.98
18:08:39.984375,1.89
18:08:40,0.92
18:08:40.015625,-0.05
18:08:40.031250,-1.13
18:08:40.046875,-2.36
18:08:40.062500,-3.80
18:08:40.078125,-5.49
18:08:40.093750,-7.44
18:08:40.109375,-9.57
18:08:40.125000,-11.71
18:08:40.140625,-13.69
18:08:40.156250,-15.40
18:08:40.171875,-16.86
18:08:40.187500,-18.17
18:08:40.203125,-19.53
18:08:40.218750,-21.05
18:08:40.234375,-22.76
18:08:40.250000,-24.54
18:08:40.265625,-26.19
18:08:40.281250,-27.47
18:08:40.296875,-28.10
18:08:40.312500,-27.92
18:08:40.328125,-26.76
18:08:40.343750,-24.60
18:08:40.359375,-21.49
18:08:40.375000,-17.50
18:08:40.390625,-12.83
18:08:40.406250,-7.66
18:08:40.421875,-2.28
18:08:40.437500,3.08
18:08:40.453125,8.14
18:08:40.468750,12.71
18:08:40.484375,16.70
18:08:40.500000,20.10
18:08:40.515625,22.96
18:08:40.531250,25.35
18:08:40.546875,27.29
18:08:40.562500,28.74
18:08:40.578125,29.60
18:08:40.593750,29.82
18:08:40.609375,29.45
18:08:40.625000,28.72
18:08:40.640625,27.97
18:08:40.656250,27.56
18:08:40.671875,27.66
18:08:40.687500,28.22
18:08:40.703125,28.95
18:08:40.718750,29.53
18:08:40.734375,29.76
18:08:40.750000,29.62
18:08:40.765625,29.21
18:08:40.781250,28.62
18:08:40.796875,27.84
18:08:40.812500,26.71
18:08:40.828125,25.08
18:08:40.843750,22.92
18:08:40.859375,20.35
18:08:40.875000,17.61
18:08:40.890625,14.97
18:08:40.906250,12.56
18:08:40.921875,10.31
18:08:40.937500,8.05
18:08:40.953125,5.49
18:08:40.968750,2.43
18:08:40.984375,-1.20
18:08:41,-5.27
18:08:41.015625,-9.55
18:08:41.031250,-13.76
18:08:41.046875,-17.64
18:08:41.062500,-21.07
18:08:41.078125,-23.96
18:08:41.093750,-26.27
18:08:41.109375,-27.87
18:08:41.125000,-28.67
18:08:41.140625,-28.67
18:08:41.156250,-27.92
18:08:41.171875,-26.57
18:08:41.187500,-24.71
18:08:41.203125,-22.38
18:08:41.218750,-19.60
18:08:41.234375,-16.40
18:08:41.250000,-12.96
18:08:41.265625,-9.60
18:08:41.281250,-6.65
18:08:41.296875,-4.30
18:08:41.312500,-2.57
18:08:41.328125,-1.29
18:08:41.343750,-0.25
18:08:41.359375,0.73
18:08:41.375000,1.70
18:08:41.390625,2.59
18:08:41.406250,3.31
18:08:41.421875,3.81
18:08:41.437500,4.07
18:08:41.453125,4.15
18:08:41.468750,4.12
18:08:41.484375,4.11
18:08:41.500000,4.21
18:08:41.515625,4.48
18:08:41.531250,4.91
18:08:41.546875,5.41
18:08:41.562500,5.85
18:08:41.578125,6.10
18:08:41.593750,6.01
18:08:41.609375,5.53
18:08:41.625000,4.68
18:08:41.640625,3.51
18:08:41.656250,2.14
18:08:41.671875,0.65
18:08:41.687500,-0.89
18:08:41.703125,-2.44
18:08:41.718750,-4.03
18:08:41.734375,-5.68
18:08:41.750000,-7.40
18:08:41.765625,-9.21
18:08:41.781250,-11.12
18:08:41.796875,-13.18
18:08:41.812500,-15.46
18:08:41.828125,-18.03
18:08:41.843750,-20.87
18:08:41.859375,-23.81
18:08:41.875000,-26.55
18:08:41.890625,-28.74
18:08:41.906250,-30.04
18:08:41.921875,-30.28
18:08:41.937500,-29.41
18:08:41.953125,-27.51
18:08:41.968750,-24.75
18:08:41.984375,-21.29
18:08:42,-17.30
18:08:42.015625,-12.93
18:08:42.031250,-8.30
18:08:42.046875,-3.51
18:08:42.062500,1.31
18:08:42.078125,6.03
18:08:42.093750,10.41
18:08:42.109375,14.18
18:08:42.125000,17.07
18:08:42.140625,18.92
18:08:42.156250,19.75
18:08:42.171875,19.75
18:08:42.187500,19.21
18:08:42.203125,18.46
18:08:42.218750,17.72
18:08:42.234375,17.09
18:08:42.250000,16.56
18:08:42.265625,16.03
18:08:42.281250,15.40
18:08:42.296875,14.59
18:08:42.312500,13.56
18:08:42.328125,12.28
18:08:42.343750,10.77
18:08:42.359375,9.05
18:08:42.375000,7.22
18:08:42.390625,5.41
18:08:42.406250,3.73
18:08:42.421875,2.26
18:08:42.437500,0.95
18:08:42.453125,-0.31
18:08:42.468750,-1.71
18:08:42.484375,-3.37
18:08:42.500000,-5.29
18:08:42.515625,-7.31
18:08:42.531250,-9.23
18:08:42.546875,-10.86
18:08:42.562500,-12.13
18:08:42.578125,-13.15
18:08:42.593750,-14.13
18:08:42.609375,-15.29
18:08:42.625000,-16.76
18:08:42.640625,-18.55
18:08:42.656250,-20.49
18:08:42.671875,-22.36
18:08:42.687500,-23.91
18:08:42.703125,-24.89
18:08:42.718750,-25.15
18:08:42.734375,-24.60
18:08:42.750000,-23.15
18:08:42.765625,-20.79
18:08:42.781250,-17.50
18:08:42.796875,-13.37
18:08:42.812500,-8.55
18:08:42.828125,-3.29
18:08:42.843750,2.15
18:08:42.859375,7.51
18:08:42.875000,12.64
18:08:42.890625,17.45
18:08:42.906250,21.84
18:08:42.921875,25.68
18:08:42.937500,28.85
18:08:42.953125,31.26
18:08:42.968750,32.92
18:08:42.984375,33.96
18:08:43,34.54
18:08:43.015625,34.77
18:08:43.031250,34.70
18:08:43.046875,34.34
18:08:43.062500,33.74
18:08:43.078125,33.01
18:08:43.093750,32.28
18:08:43.109375,31.66
18:08:43.125000,31.09
18:08:43.140625,30.45
18:08:43.156250,29.58
18:08:43.171875,28.39
18:08:43.187500,26.92
18:08:43.203125,25.31
18:08:43.218750,23.68
18:08:43.234375,22.11
18:08:43.250000,20.52
18:08:43.265625,18.80
18:08:43.281250,16.79
18:08:43.296875,14.41
18:08:43.312500,11.68
18:08:43.328125,8.69
18:08:43.343750,5.64
18:08:43.359375,2.66
18:08:43.375000,-0.15
18:08:43.390625,-2.81
18:08:43.406250,-5.48
18:08:43.421875,-8.33
18:08:43.437500,-11.49
18:08:43.453125,-14.96
18:08:43.468750,-18.57
18:08:43.484375,-22.02
18:08:43.500000,-24.99
18:08:43.515625,-27.22
18:08:43.531250,-28.60
18:08:43.546875,-29.16
18:08:43.562500,-28.97
18:08:43.578125,-28.10
18:08:43.593750,-26.51
18:08:43.609375,-24.16
18:08:43.625000,-20.99
18:08:43.640625,-17.12
18:08:43.656250,-12.84
18:08:43.671875,-8.57
18:08:43.687500,-4.77
18:08:43.703125,-1.70
18:08:43.718750,0.59
18:08:43.734375,2.28
18:08:43.750000,3.66
18:08:43.765625,4.93
18:08:43.781250,6.12
18:08:43.796875,7.09
18:08:43.812500,7.63
18:08:43.828125,7.65
18:08:43.843750,7.19
18:08:43.859375,6.51
18:08:43.875000,5.93
18:08:43.890625,5.68
18:08:43.906250,5.83
18:08:43.921875,6.27
18:08:43.937500,6.75
18:08:43.953125,7.06
18:08:43.968750,7.12
18:08:43.984375,6.94
18:08:44,6.67
18:08:44.015625,6.37
18:08:44.031250,6.11
18:08:44.046875,5.77
18:08:44.062500,5.20
18:08:44.078125,4.29
18:08:44.093750,2.97
18:08:44.109375,1.30
18:08:44.125000,-0.60
18:08:44.140625,-2.63
18:08:44.156250,-4.77
18:08:44.171875,-7.05
18:08:44.187500,-9.54
18:08:44.203125,-12.29
18:08:44.218750,-15.24
18:08:44.234375,-18.30
18:08:44.250000,-21.36
18:08:44.265625,-24.32
18:08:44.281250,-27.05
18:08:44.296875,-29.42
18:08:44.312500,-31.22
18:08:44.328125,-32.22
18:08:44.343750,-32.26
18:08:44.359375,-31.33
18:08:44.375000,-29.57
18:08:44.390625,-27.23
18:08:44.406250,-24.52
18:08:44.421875,-21.57
18:08:44.437500,-18.33
18:08:44.453125,-14.72
18:08:44.468750,-10.69
18:08:44.484375,-6.35
18:08:44.500000,-1.94
18:08:44.515625,2.18
18:08:44.531250,5.67
18:08:44.546875,8.26
18:08:44.562500,9.86
18:08:44.578125,10.57
18:08:44.593750,10.65
18:08:44.609375,10.42
18:08:44.625000,10.17
18:08:44.640625,10.08
18:08:44.656250,10.17
18:08:44.671875,10.34
18:08:44.687500,10.46
18:08:44.703125,10.47
18:08:44.718750,10.38
18:08:44.734375,10.21
18:08:44.750000,9.98
18:08:44.765625,9.60
18:08:44.781250,8.99
18:08:44.796875,8.11
18:08:44.812500,7.03
18:08:44.828125,5.89
18:08:44.843750,4.79
18:08:44.859375,3.73
18:08:44.875000,2.60
18:08:44.890625,1.22
18:08:44.906250,-0.50
18:08:44.921875,-2.56
18:08:44.937500,-4.79
18:08:44.953125,-6.95
18:08:44.968750,-8.89
18:08:44.984375,-10.55
18:08:45,-12.00
18:08:45.015625,-13.44
18:08:45.031250,-15.11
18:08:45.046875,-17.24
18:08:45.062500,-19.93
18:08:45.078125,-23.07
18:08:45.093750,-26.33
18:08:45.109375,-29.18
18:08:45.125000,-31.09
18:08:45.140625,-31.67
18:08:45.156250,-30.82
18:08:45.171875,-28.76
18:08:45.187500,-25.85
18:08:45.203125,-22.45
18:08:45.218750,-18.77
18:08:45.234375,-14.82
18:08:45.250000,-10.50
18:08:45.265625,-5.81
18:08:45.281250,-0.85
18:08:45.296875,4.13
18:08:45.312500,8.83
18:08:45.328125,13.06
18:08:45.343750,16.73
18:08:45.359375,19.83
18:08:45.375000,22.37
18:08:45.390625,24.28
18:08:45.406250,25.45
18:08:45.421875,25.78
18:08:45.437500,25.31
18:08:45.453125,24.23
18:08:45.468750,22.87
18:08:45.484375,21.55
18:08:45.500000,20.52
18:08:45.515625,19.86
18:08:45.531250,19.51
18:08:45.546875,19.27
18:08:45.562500,19.00
18:08:45.578125,18.59
18:08:45.593750,18.08
18:08:45.609375,17.59
18:08:45.625000,17.26
18:08:45.640625,17.23
18:08:45.656250,17.47
18:08:45.671875,17.77
18:08:45.687500,17.85
18:08:45.703125,17.44
18:08:45.718750,16.41
18:08:45.734375,14.81
18:08:45.750000,12.86
18:08:45.765625,10.82
18:08:45.781250,8.80
18:08:45.796875,6.78
18:08:45.812500,4.55
18:08:45.828125,1.91
18:08:45.843750,-1.22
18:08:45.859375,-4.77
18:08:45.875000,-8.50
18:08:45.890625,-12.02
18:08:45.906250,-14.99
18:08:45.921875,-17.17
18:08:45.937500,-18.45
18:08:45.953125,-18.86
18:08:45.968750,-18.44
18:08:45.984375,-17.26
18:08:46,-15.31
18:08:46.015625,-12.66
18:08:46.031250,-9.45
18:08:46.046875,-5.94
18:08:46.062500,-2.41
18:08:46.078125,0.91
18:08:46.093750,3.95
18:08:46.109375,6.76
18:08:46.125000,9.43
18:08:46.140625,11.95
18:08:46.156250,14.15
18:08:46.171875,15.78
18:08:46.187500,16.69
18:08:46.203125,16.86
18:08:46.218750,16.51
18:08:46.234375,15.97
18:08:46.250000,15.50
18:08:46.265625,15.21
18:08:46.281250,15.09
18:08:46.296875,15.04
18:08:46.312500,14.97
18:08:46.328125,14.89
18:08:46.343750,14.80
18:08:46.359375,14.74
18:08:46.375000,14.66
18:08:46.390625,14.47
18:08:46.406250,14.06
18:08:46.421875,13.34
18:08:46.437500,12.27
18:08:46.453125,10.83
18:08:46.468750,9.04
18:08:46.484375,6.88
18:08:46.500000,4.34
18:08:46.515625,1.44
18:08:46.531250,-1.75
18:08:46.546875,-5.13
18:08:46.562500,-8.60
18:08:46.578125,-12.12
18:08:46.593750,-15.73
18:08:46.609375,-19.46
18:08:46.625000,-23.32
18:08:46.640625,-27.24
18:08:46.656250,-31.09
18:08:46.671875,-34.71
18:08:46.687500,-37.85
18:08:46.703125,-40.33
18:08:46.718750,-41.91
18:08:46.734375,-42.41
18:08:46.750000,-41.71
18:08:46.765625,-39.81
18:08:46.781250,-36.82
18:08:46.796875,-32.94
18:08:46.812500,-28.42
18:08:46.828125,-23.47
18:08:46.843750,-18.26
18:08:46.859375,-12.95
18:08:46.875000,-7.68
18:08:46.890625,-2.68
18:08:46.906250,1.84
18:08:46.921875,5.66
18:08:46.937500,8.65
18:08:46.953125,10.76
18:08:46.968750,12.06
18:08:46.984375,12.70
18:08:47,12.88
18:08:47.015625,12.78
18:08:47.031250,12.54
18:08:47.046875,12.23
18:08:47.062500,11.84
18:08:47.078125,11.34
18:08:47.093750,10.71
18:08:47.109375,9.97
18:08:47.125000,9.19
18:08:47.140625,8.48
18:08:47.156250,7.91
18:08:47.171875,7.48
18:08:47.187500,7.12
18:08:47.203125,6.69
18:08:47.218750,6.02
18:08:47.234375,5.03
18:08:47.250000,3.72
18:08:47.265625,2.18
18:08:47.281250,0.51
18:08:47.296875,-1.23
18:08:47.312500,-3.09
18:08:47.328125,-5.16
18:08:47.343750,-7.52
18:08:47.359375,-10.22
18:08:47.375000,-13.18
18:08:47.390625,-16.31
18:08:47.406250,-19.50
18:08:47.421875,-22.75
18:08:47.437500,-26.03
18:08:47.453125,-29.36
18:08:47.468750,-32.55
18:08:47.484375,-35.27
18:08:47.500000,-37.15
18:08:47.515625,-37.86
18:08:47.531250,-37.30
18:08:47.546875,-35.60
18:08:47.562500,-33.02
18:08:47.578125,-29.74
18:08:47.593750,-25.82
18:08:47.609375,-21.17
18:08:47.625000,-15.72
18:08:47.640625,-9.52
18:08:47.656250,-2.83
18:08:47.671875,3.88
18:08:47.687500,10.11
18:08:47.703125,15.48
18:08:47.718750,19.80
18:08:47.734375,23.12
18:08:47.750000,25.61
18:08:47.765625,27.47
18:08:47.781250,28.80
18:08:47.796875,29.64
18:08:47.812500,29.90
18:08:47.828125,29.56
18:08:47.843750,28.71
18:08:47.859375,27.55
18:08:47.875000,26.34
18:08:47.890625,25.21
18:08:47.906250,24.11
18:08:47.921875,22.81
18:08:47.937500,21.08
18:08:47.953125,18.80
18:08:47.968750,16.11
18:08:47.984375,13.27
18:08:48,10.58
18:08:48.015625,8.22
18:08:48.031250,6.21
18:08:48.046875,4.44
18:08:48.062500,2.84
18:08:48.078125,1.37
18:08:48.093750,0.06
18:08:48.109375,-1.06
18:08:48.125000,-2.05
18:08:48.140625,-3.04
18:08:48.156250,-4.22
18:08:48.171875,-5.80
18:08:48.187500,-7.82
18:08:48.203125,-10.16
18:08:48.218750,-12.58
18:08:48.234375,-14.77
18:08:48.250000,-16.47
18:08:48.265625,-17.54
18:08:48.281250,-17.93
18:08:48.296875,-17.62
18:08:48.312500,-16.57
18:08:48.328125,-14.66
18:08:48.343750,-11.72
18:08:48.359375,-7.69
18:08:48.375000,-2.65
18:08:48.390625,3.17
18:08:48.406250,9.42
18:08:48.421875,15.73
18:08:48.437500,21.81
18:08:48.453125,27.43
18:08:48.468750,32.43
18:08:48.484375,36.68
18:08:48.500000,40.02
18:08:48.515625,42.32
18:08:48.531250,43.43
18:08:48.546875,43.31
18:08:48.562500,42.02
18:08:48.578125,39.80
18:08:48.593750,37.00
18:08:48.609375,34.07
18:08:48.625000,31.36
18:08:48.640625,29.06
18:08:48.656250,27.11
18:08:48.671875,25.27
18:08:48.687500,23.31
18:08:48.703125,21.08
18:08:48.718750,18.65
18:08:48.734375,16.17
18:08:48.750000,13.79
18:08:48.765625,11.51
18:08:48.781250,9.17
18:08:48.796875,6.57
18:08:48.812500,3.59
18:08:48.828125,0.33
18:08:48.843750,-2.99
18:08:48.859375,-6.10
18:08:48.875000,-8.79
18:08:48.890625,-11.08
18:08:48.906250,-13.09
18:08:48.921875,-15.03
18:08:48.937500,-17.01
18:08:48.953125,-19.05
18:08:48.968750,-21.08
18:08:48.984375,-23.09
18:08:49,-25.09
18:08:49.015625,-27.19
18:08:49.031250,-29.41
18:08:49.046875,-31.63
18:08:49.062500,-33.54
18:08:49.078125,-34.73
18:08:49.093750,-34.83
18:08:49.109375,-33.62
18:08:49.125000,-31.14
18:08:49.140625,-27.57
18:08:49.156250,-23.18
18:08:49.171875,-18.18
18:08:49.187500,-12.67
18:08:49.203125,-6.68
18:08:49.218750,-0.29
18:08:49.234375,6.36
18:08:49.250000,12.98
18:08:49.265625,19.19
18:08:49.281250,24.56
18:08:49.296875,28.78
18:08:49.312500,31.64
18:08:49.328125,33.16
18:08:49.343750,33.48
18:08:49.359375,32.87
18:08:49.375000,31.64
18:08:49.390625,30.03
18:08:49.406250,28.20
18:08:49.421875,26.22
18:08:49.437500,24.10
18:08:49.453125,21.88
18:08:49.468750,19.61
18:08:49.484375,17.42
18:08:49.500000,15.37
18:08:49.515625,13.44
18:08:49.531250,11.48
18:08:49.546875,9.21
18:08:49.562500,6.37
18:08:49.578125,2.82
18:08:49.593750,-1.35
18:08:49.609375,-5.87
18:08:49.625000,-10.35
18:08:49.640625,-14.49
18:08:49.656250,-18.16
18:08:49.671875,-21.45
18:08:49.687500,-24.59
18:08:49.703125,-27.79
18:08:49.718750,-31.15
18:08:49.734375,-34.59
18:08:49.750000,-37.98
18:08:49.765625,-41.14
18:08:49.781250,-43.94
18:08:49.796875,-46.25
18:08:49.812500,-47.91
18:08:49.828125,-48.69
18:08:49.843750,-48.32
18:08:49.859375,-46.59
18:08:49.875000,-43.44
18:08:49.890625,-39.02
18:08:49.906250,-33.64
18:08:49.921875,-27.64
18:08:49.937500,-21.25
18:08:49.953125,-14.57
18:08:49.968750,-7.59
18:08:49.984375,-0.33
18:08:50,7.00
18:08:50.015625,13.97
18:08:50.031250,20.03
18:08:50.046875,24.64
18:08:50.062500,27.53
18:08:50.078125,28.71
18:08:50.093750,28.56
18:08:50.109375,27.56
18:08:50.125000,26.20
18:08:50.140625,24.81
18:08:50.156250,23.54
18:08:50.171875,22.39
18:08:50.187500,21.35
18:08:50.203125,20.43
18:08:50.218750,19.61
18:08:50.234375,18.86
18:08:50.250000,18.03
18:08:50.265625,16.89
18:08:50.281250,15.22
18:08:50.296875,12.88
18:08:50.312500,9.94
18:08:50.328125,6.61
18:08:50.343750,3.14
18:08:50.359375,-0.24
18:08:50.375000,-3.46
18:08:50.390625,-6.58
18:08:50.406250,-9.75
18:08:50.421875,-13.07
18:08:50.437500,-16.57
18:08:50.453125,-20.12
18:08:50.468750,-23.53
18:08:50.484375,-26.57
18:08:50.500000,-29.09
18:08:50.515625,-30.99
18:08:50.531250,-32.26
18:08:50.546875,-32.89
18:08:50.562500,-32.84
18:08:50.578125,-32.03
18:08:50.593750,-30.39
18:08:50.609375,-27.92
18:08:50.625000,-24.68
18:08:50.640625,-20.78
18:08:50.656250,-16.33
18:08:50.671875,-11.44
18:08:50.687500,-6.15
18:08:50.703125,-0.46
18:08:50.718750,5.59
18:08:50.734375,11.89
18:08:50.750000,18.22
18:08:50.765625,24.18
18:08:50.781250,29.30
18:08:50.796875,33.12
18:08:50.812500,35.37
18:08:50.828125,36.06
18:08:50.843750,35.48
18:08:50.859375,34.08
18:08:50.875000,32.32
18:08:50.890625,30.48
18:08:50.906250,28.69
18:08:50.921875,27.01
18:08:50.937500,25.50
18:08:50.953125,24.25
18:08:50.968750,23.39
18:08:50.984375,22.96
18:08:51,22.91
18:08:51.015625,23.02
18:08:51.031250,23.03
18:08:51.046875,22.67
18:08:51.062500,21.80
18:08:51.078125,20.36
18:08:51.093750,18.46
18:08:51.109375,16.23
18:08:51.125000,13.85
18:08:51.140625,11.41
18:08:51.156250,8.84
18:08:51.171875,6.04
18:08:51.187500,2.92
18:08:51.203125,-0.51
18:08:51.218750,-4.08
18:08:51.234375,-7.62
18:08:51.250000,-11.02
18:08:51.265625,-14.31
18:08:51.281250,-17.57
18:08:51.296875,-20.83
18:08:51.312500,-23.89
18:08:51.328125,-26.34
18:08:51.343750,-27.72
18:08:51.359375,-27.66
18:08:51.375000,-26.12
18:08:51.390625,-23.33
18:08:51.406250,-19.71
18:08:51.421875,-15.66
18:08:51.437500,-11.43
18:08:51.453125,-7.08
18:08:51.468750,-2.54
18:08:51.484375,2.18
18:08:51.500000,6.95
18:08:51.515625,11.42
18:08:51.531250,15.19
18:08:51.546875,17.92
18:08:51.562500,19.53
18:08:51.578125,20.22
18:08:51.593750,20.38
18:08:51.609375,20.38
18:08:51.625000,20.41
18:08:51.640625,20.42
18:08:51.656250,20.14
18:08:51.671875,19.40
18:08:51.687500,18.14
18:08:51.703125,16.51
18:08:51.718750,14.79
18:08:51.734375,13.23
18:08:51.750000,11.91
18:08:51.765625,10.74
18:08:51.781250,9.51
18:08:51.796875,8.05
18:08:51.812500,6.31
18:08:51.828125,4.39
18:08:51.843750,2.47
18:08:51.859375,0.73
18:08:51.875000,-0.78
18:08:51.890625,-2.14
18:08:51.906250,-3.51
18:08:51.921875,-5.03
18:08:51.937500,-6.75
18:08:51.953125,-8.62
18:08:51.968750,-10.47
18:08:51.984375,-12.18
18:08:52,-13.71
18:08:52.015625,-15.18
18:08:52.031250,-16.80
18:08:52.046875,-18.77
18:08:52.062500,-21.24
18:08:52.078125,-24.16
18:08:52.093750,-27.32
18:08:52.109375,-30.41
18:08:52.125000,-33.03
18:08:52.140625,-34.87
18:08:52.156250,-35.70
18:08:52.171875,-35.40
18:08:52.187500,-33.94
18:08:52.203125,-31.33
18:08:52.218750,-27.62
18:08:52.234375,-22.95
18:08:52.250000,-17.49
18:08:52.265625,-11.53
18:08:52.281250,-5.33
18:08:52.296875,0.86
18:08:52.312500,6.87
18:08:52.328125,12.54
18:08:52.343750,17.76
18:08:52.359375,22.33
18:08:52.375000,26.05
18:08:52.390625,28.71
18:08:52.406250,30.23
18:08:52.421875,30.63
18:08:52.437500,30.11
18:08:52.453125,28.92
18:08:52.468750,27.29
18:08:52.484375,25.45
18:08:52.500000,23.54
18:08:52.515625,21.65
18:08:52.531250,19.85
18:08:52.546875,18.14
18:08:52.562500,16.53
18:08:52.578125,14.98
18:08:52.593750,13.47
18:08:52.609375,11.96
18:08:52.625000,10.43
18:08:52.640625,8.86
18:08:52.656250,7.21
18:08:52.671875,5.45
18:08:52.687500,3.56
18:08:52.703125,1.55
18:08:52.718750,-0.52
18:08:52.734375,-2.59
18:08:52.750000,-4.63
18:08:52.765625,-6.64
18:08:52.781250,-8.69
18:08:52.796875,-10.88
18:08:52.812500,-13.25
18:08:52.828125,-15.80
18:08:52.843750,-18.38
18:08:52.859375,-20.77
18:08:52.875000,-22.72
18:08:52.890625,-24.06
18:08:52.906250,-24.76
18:08:52.921875,-24.97
18:08:52.937500,-24.96
18:08:52.953125,-25.02
18:08:52.968750,-25.37
18:08:52.984375,-26.08
18:08:53,-26.98
18:08:53.015625,-27.81
18:08:53.031250,-28.25
18:08:53.046875,-28.07
18:08:53.062500,-27.20
18:08:53.078125,-25.67
18:08:53.093750,-23.57
18:08:53.109375,-20.94
18:08:53.125000,-17.75
18:08:53.140625,-13.89
18:08:53.156250,-9.36
18:08:53.171875,-4.28
18:08:53.187500,1.08
18:08:53.203125,6.34
18:08:53.218750,11.21
18:08:53.234375,15.52
18:08:53.250000,19.21
18:08:53.265625,22.31
18:08:53.281250,24.79
18:08:53.296875,26.58
18:08:53.312500,27.62
18:08:53.328125,27.92
18:08:53.343750,27.60
18:08:53.359375,26.83
18:08:53.375000,25.81
18:08:53.390625,24.64
18:08:53.406250,23.39
18:08:53.421875,22.10
18:08:53.437500,20.83
18:08:53.453125,19.66
18:08:53.468750,18.62
18:08:53.484375,17.70
18:08:53.500000,16.76
18:08:53.515625,15.67
18:08:53.531250,14.30
18:08:53.546875,12.61
18:08:53.562500,10.65
18:08:53.578125,8.56
18:08:53.593750,6.51
18:08:53.609375,4.64
18:08:53.625000,3.02
18:08:53.640625,1.63
18:08:53.656250,0.36
18:08:53.671875,-0.94
18:08:53.687500,-2.36
18:08:53.703125,-3.93
18:08:53.718750,-5.61
18:08:53.734375,-7.29
18:08:53.750000,-8.92
18:08:53.765625,-10.50
18:08:53.781250,-12.15
18:08:53.796875,-13.94
18:08:53.812500,-15.93
18:08:53.828125,-18.10
18:08:53.843750,-20.35
18:08:53.859375,-22.65
18:08:53.875000,-24.95
18:08:53.890625,-27.21
18:08:53.906250,-29.35
18:08:53.921875,-31.19
18:08:53.937500,-32.44
18:08:53.953125,-32.80
18:08:53.968750,-32.06
18:08:53.984375,-30.22
18:08:54,-27.42
18:08:54.015625,-23.94
18:08:54.031250,-19.99
18:08:54.046875,-15.71
18:08:54.062500,-11.13
18:08:54.078125,-6.27
18:08:54.093750,-1.23
18:08:54.109375,3.76
18:08:54.125000,8.35
18:08:54.140625,12.15
18:08:54.156250,14.94
18:08:54.171875,16.65
18:08:54.187500,17.42
18:08:54.203125,17.49
18:08:54.218750,17.12
18:08:54.234375,16.46
18:08:54.250000,15.59
18:08:54.265625,14.54
18:08:54.281250,13.35
18:08:54.296875,12.13
18:08:54.312500,11.01
18:08:54.328125,10.12
18:08:54.343750,9.55
18:08:54.359375,9.23
18:08:54.375000,9.00
18:08:54.390625,8.65
18:08:54.406250,7.98
18:08:54.421875,6.92
18:08:54.437500,5.54
18:08:54.453125,4.08
18:08:54.468750,2.74
18:08:54.484375,1.65
18:08:54.500000,0.77
18:08:54.515625,-0.04
18:08:54.531250,-0.96
18:08:54.546875,-2.07
18:08:54.562500,-3.33
18:08:54.578125,-4.63
18:08:54.593750,-5.86
18:08:54.609375,-6.96
18:08:54.625000,-8.00
18:08:54.640625,-9.07
18:08:54.656250,-10.24
18:08:54.671875,-11.55
18:08:54.687500,-12.99
18:08:54.703125,-14.54
18:08:54.718750,-16.22
18:08:54.734375,-18.01
18:08:54.750000,-19.87
18:08:54.765625,-21.64
18:08:54.781250,-23.08
18:08:54.796875,-23.93
18:08:54.812500,-23.94
18:08:54.828125,-22.97
18:08:54.843750,-21.07
18:08:54.859375,-18.42
18:08:54.875000,-15.28
18:08:54.890625,-11.85
18:08:54.906250,-8.22
18:08:54.921875,-4.36
18:08:54.937500,-0.22
18:08:54.953125,4.21
18:08:54.968750,8.74
18:08:54.984375,13.10
18:08:55,16.95
18:08:55.015625,20.00
18:08:55.031250,22.12
18:08:55.046875,23.31
18:08:55.062500,23.67
18:08:55.078125,23.30
18:08:55.093750,22.31
18:08:55.109375,20.77
18:08:55.125000,18.78
18:08:55.140625,16.50
18:08:55.156250,14.16
18:08:55.171875,11.95
18:08:55.187500,10.05
18:08:55.203125,8.50
18:08:55.218750,7.21
18:08:55.234375,6.03
18:08:55.250000,4.84
18:08:55.265625,3.62
18:08:55.281250,2.54
18:08:55.296875,1.77
18:08:55.312500,1.52
18:08:55.328125,1.81
18:08:55.343750,2.50
18:08:55.359375,3.38
18:08:55.375000,4.19
18:08:55.390625,4.77
18:08:55.406250,5.05
18:08:55.421875,4.99
18:08:55.437500,4.61
18:08:55.453125,3.92
18:08:55.468750,2.98
18:08:55.484375,1.87
18:08:55.500000,0.68
18:08:55.515625,-0.54
18:08:55.531250,-1.81
18:08:55.546875,-3.27
18:08:55.562500,-5.04
18:08:55.578125,-7.25
18:08:55.593750,-9.88
18:08:55.609375,-12.78
18:08:55.625000,-15.64
18:08:55.640625,-18.13
18:08:55.656250,-19.91
18:08:55.671875,-20.78
18:08:55.687500,-20.69
18:08:55.703125,-19.78
18:08:55.718750,-18.25
18:08:55.734375,-16.30
18:08:55.750000,-14.08
18:08:55.765625,-11.65
18:08:55.781250,-9.05
18:08:55.796875,-6.30
18:08:55.812500,-3.42
18:08:55.828125,-0.48
18:08:55.843750,2.47
18:08:55.859375,5.33
18:08:55.875000,8.00
18:08:55.890625,10.29
18:08:55.906250,12.03
18:08:55.921875,13.09
18:08:55.937500,13.43
18:08:55.953125,13.21
18:08:55.968750,12.64
18:08:55.984375,11.94
18:08:56,11.29
18:08:56.015625,10.70
18:08:56.031250,10.18
18:08:56.046875,9.67
18:08:56.062500,9.12
18:08:56.078125,8.50
18:08:56.093750,7.78
18:08:56.109375,6.95
18:08:56.125000,6.03
18:08:56.140625,5.14
18:08:56.156250,4.42
18:08:56.171875,4.05
18:08:56.187500,4.09
18:08:56.203125,4.42
18:08:56.218750,4.80
18:08:56.234375,4.92
18:08:56.250000,4.55
18:08:56.265625,3.66
18:08:56.281250,2.39
18:08:56.296875,0.94
18:08:56.312500,-0.50
18:08:56.328125,-1.86
18:08:56.343750,-3.17
18:08:56.359375,-4.45
18:08:56.375000,-5.71
18:08:56.390625,-6.94
18:08:56.406250,-8.16
18:08:56.421875,-9.45
18:08:56.437500,-10.95
18:08:56.453125,-12.69
18:08:56.468750,-14.57
18:08:56.484375,-16.25
18:08:56.500000,-17.36
18:08:56.515625,-17.60
18:08:56.531250,-16.89
18:08:56.546875,-15.42
18:08:56.562500,-13.49
18:08:56.578125,-11.37
18:08:56.593750,-9.12
18:08:56.609375,-6.66
18:08:56.625000,-3.84
18:08:56.640625,-0.61
18:08:56.656250,2.88
18:08:56.671875,6.36
18:08:56.687500,9.59
18:08:56.703125,12.44
18:08:56.718750,14.96
18:08:56.734375,17.24
18:08:56.750000,19.36
18:08:56.765625,21.23
18:08:56.781250,22.70
18:08:56.796875,23.59
18:08:56.812500,23.85
18:08:56.828125,23.54
18:08:56.843750,22.88
18:08:56.859375,22.03
18:08:56.875000,21.10
18:08:56.890625,20.12
18:08:56.906250,19.03
18:08:56.921875,17.86
18:08:56.937500,16.72
18:08:56.953125,15.75
18:08:56.968750,15.09
18:08:56.984375,14.73
18:08:57,14.50
18:08:57.015625,14.08
18:08:57.031250,13.17
18:08:57.046875,11.52
18:08:57.062500,9.15
18:08:57.078125,6.27
18:08:57.093750,3.22
18:08:57.109375,0.34
18:08:57.125000,-2.12
18:08:57.140625,-4.08
18:08:57.156250,-5.58
18:08:57.171875,-6.73
18:08:57.187500,-7.70
18:08:57.203125,-8.61
18:08:57.218750,-9.65
18:08:57.234375,-11.02
18:08:57.250000,-12.91
18:08:57.265625,-15.38
18:08:57.281250,-18.35
18:08:57.296875,-21.52
18:08:57.312500,-24.45
18:08:57.328125,-26.68
18:08:57.343750,-27.87
18:08:57.359375,-27.93
18:08:57.375000,-27.02
18:08:57.390625,-25.53
18:08:57.406250,-23.85
18:08:57.421875,-22.29
18:08:57.437500,-20.88
18:08:57.453125,-19.49
18:08:57.468750,-17.84
18:08:57.484375,-15.73
18:08:57.500000,-13.14
18:08:57.515625,-10.28
18:08:57.531250,-7.46
18:08:57.546875,-5.00
18:08:57.562500,-3.03
18:08:57.578125,-1.47
18:08:57.593750,-0.18
18:08:57.609375,1.00
18:08:57.625000,2.09
18:08:57.640625,3.03
18:08:57.656250,3.78
18:08:57.671875,4.36
18:08:57.687500,4.95
18:08:57.703125,5.72
18:08:57.718750,6.81
18:08:57.734375,8.09
18:08:57.750000,9.29
18:08:57.765625,10.05
18:08:57.781250,10.17
18:08:57.796875,9.69
18:08:57.812500,8.94
18:08:57.828125,8.33
18:08:57.843750,8.16
18:08:57.859375,8.51
18:08:57.875000,9.16
18:08:57.890625,9.74
18:08:57.906250,9.91
18:08:57.921875,9.50
18:08:57.937500,8.61
18:08:57.953125,7.43
18:08:57.968750,6.20
18:08:57.984375,5.01
18:08:58,3.80
18:08:58.015625,2.38
18:08:58.031250,0.59
18:08:58.046875,-1.64
18:08:58.062500,-4.24
18:08:58.078125,-7.04
18:08:58.093750,-9.87
18:08:58.109375,-12.56
18:08:58.125000,-15.02
18:08:58.140625,-17.13
18:08:58.156250,-18.75
18:08:58.171875,-19.80
18:08:58.187500,-20.20
18:08:58.203125,-20.03
18:08:58.218750,-19.41
18:08:58.234375,-18.48
18:08:58.250000,-17.28
18:08:58.265625,-15.77
18:08:58.281250,-13.85
18:08:58.296875,-11.51
18:08:58.312500,-8.86
18:08:58.328125,-6.12
18:08:58.343750,-3.57
18:08:58.359375,-1.36
18:08:58.375000,0.47
18:08:58.390625,2.04
18:08:58.406250,3.47
18:08:58.421875,4.81
18:08:58.437500,6.11
18:08:58.453125,7.32
18:08:58.468750,8.50
18:08:58.484375,9.72
18:08:58.500000,11.09
18:08:58.515625,12.63
18:08:58.531250,14.30
18:08:58.546875,15.98
18:08:58.562500,17.47
18:08:58.578125,18.60
18:08:58.593750,19.28
18:08:58.609375,19.55
18:08:58.625000,19.53
18:08:58.640625,19.34
18:08:58.656250,19.10
18:08:58.671875,18.83
18:08:58.687500,18.46
18:08:58.703125,17.87
18:08:58.718750,16.90
18:08:58.734375,15.44
18:08:58.750000,13.44
18:08:58.765625,10.97
18:08:58.781250,8.17
18:08:58.796875,5.26
18:08:58.812500,2.43
18:08:58.828125,-0.20
18:08:58.843750,-2.64
18:08:58.859375,-5.02
18:08:58.875000,-7.51
18:08:58.890625,-10.26
18:08:58.906250,-13.22
18:08:58.921875,-16.18
18:08:58.937500,-18.73
18:08:58.953125,-20.48
18:08:58.968750,-21.15
18:08:58.984375,-20.75
18:08:59,-19.50
18:08:59.015625,-17.79
18:08:59.031250,-15.94
18:08:59.046875,-14.17
18:08:59.062500,-12.49
18:08:59.078125,-10.71
18:08:59.093750,-8.63
18:08:59.109375,-6.15
18:08:59.125000,-3.28
18:08:59.140625,-0.22
18:08:59.156250,2.70
18:08:59.171875,5.12
18:08:59.187500,6.82
18:08:59.203125,7.75
18:08:59.218750,8.08
18:08:59.234375,8.10
18:08:59.250000,8.10
18:08:59.265625,8.24
18:08:59.281250,8.56
18:08:59.296875,8.92
18:08:59.312500,9.13
18:08:59.328125,8.96
18:08:59.343750,8.13
18:08:59.359375,6.33
18:08:59.375000,3.33
18:08:59.390625,-1.00
18:08:59.406250,-6.49
18:08:59.421875,-12.78
18:08:59.437500,-19.37
18:08:59.453125,-25.77
18:08:59.468750,-31.65
18:08:59.484375,-36.83
18:08:59.500000,-41.24
18:08:59.515625,-44.80
18:08:59.531250,-47.38
18:08:59.546875,-48.85
18:08:59.562500,-49.25
18:08:59.578125,-48.71
18:08:59.593750,-47.54
18:08:59.609375,-46.03
18:08:59.625000,-44.42
18:08:59.640625,-42.84
18:08:59.656250,-41.32
18:08:59.671875,-39.83
18:08:59.687500,-38.27
18:08:59.703125,-36.50
18:08:59.718750,-34.32
18:08:59.734375,-31.56
18:08:59.750000,-28.12
18:08:59.765625,-23.97
18:08:59.781250,-19.27
18:08:59.796875,-14.23
18:08:59.812500,-9.11
18:08:59.828125,-4.15
18:08:59.843750,0.53
18:08:59.859375,4.92
18:08:59.875000,9.09
18:08:59.890625,13.19
18:08:59.906250,17.28
18:08:59.921875,21.34
18:08:59.937500,25.16
18:08:59.953125,28.45
18:08:59.968750,30.93
18:08:59.984375,32.49
18:09:00,33.16
18:09:00.015625,33.20
18:09:00.031250,32.92
18:09:00.046875,32.59
18:09:00.062500,32.36
18:09:00.078125,32.29
18:09:00.093750,32.31
18:09:00.109375,32.32
18:09:00.125000,32.25
18:09:00.140625,32.03
18:09:00.156250,31.67
18:09:00.171875,31.24
18:09:00.187500,30.90
18:09:00.203125,30.82
18:09:00.218750,31.16
18:09:00.234375,32.01
18:09:00.250000,33.30
18:09:00.265625,34.80
18:09:00.281250,36.17
18:09:00.296875,37.05
18:09:00.312500,37.14
18:09:00.328125,36.34
18:09:00.343750,34.72
18:09:00.359375,32.44
18:09:00.375000,29.74
18:09:00.390625,26.83
18:09:00.406250,23.91
18:09:00.421875,21.17
18:09:00.437500,18.76
18:09:00.453125,16.81
18:09:00.468750,15.34
18:09:00.484375,14.23
18:09:00.500000,13.28
18:09:00.515625,12.23
18:09:00.531250,10.85
18:09:00.546875,9.01
18:09:00.562500,6.64
18:09:00.578125,3.78
18:09:00.593750,0.56
18:09:00.609375,-2.80
18:09:00.625000,-6.00
18:09:00.640625,-8.70
18:09:00.656250,-10.60
18:09:00.671875,-11.55
18:09:00.687500,-11.63
18:09:00.703125,-11.12
18:09:00.718750,-10.51
18:09:00.734375,-10.27
18:09:00.750000,-10.76
18:09:00.765625,-12.10
18:09:00.781250,-14.10
18:09:00.796875,-16.44
18:09:00.812500,-18.76
18:09:00.828125,-20.80
18:09:00.843750,-22.50
18:09:00.859375,-23.95
18:09:00.875000,-25.25
18:09:00.890625,-26.45
18:09:00.906250,-27.41
18:09:00.921875,-27.85
18:09:00.937500,-27.53
18:09:00.953125,-26.29
18:09:00.968750,-24.31
18:09:00.984375,-21.96
18:09:01,-19.74
18:09:01.015625,-18.03
18:09:01.031250,-16.90
18:09:01.046875,-16.15
18:09:01.062500,-15.36
18:09:01.078125,-14.23
18:09:01.093750,-12.68
18:09:01.109375,-10.97
18:09:01.125000,-9.53
18:09:01.140625,-8.68
18:09:01.156250,-8.57
18:09:01.171875,-9.12
18:09:01.187500,-10.20
18:09:01.203125,-11.76
18:09:01.218750,-13.88
18:09:01.234375,-16.67
18:09:01.250000,-20.04
18:09:01.265625,-23.67
18:09:01.281250,-26.97
18:09:01.296875,-29.40
18:09:01.312500,-30.66
18:09:01.328125,-30.86
18:09:01.343750,-30.30
18:09:01.359375,-29.34
18:09:01.375000,-28.06
18:09:01.390625,-26.24
18:09:01.406250,-23.51
18:09:01.421875,-19.54
18:09:01.437500,-14.32
18:09:01.453125,-8.17
18:09:01.468750,-1.71
18:09:01.484375,4.48
18:09:01.500000,9.93
18:09:01.515625,14.42
18:09:01.531250,17.95
18:09:01.546875,20.56
18:09:01.562500,22.32
18:09:01.578125,23.26
18:09:01.593750,23.45
18:09:01.609375,23.06
18:09:01.625000,22.34
18:09:01.640625,21.57
18:09:01.656250,20.90
18:09:01.671875,20.33
18:09:01.687500,19.68
18:09:01.703125,18.70
18:09:01.718750,17.19
18:09:01.734375,15.17
18:09:01.750000,12.85
18:09:01.765625,10.50
18:09:01.781250,8.39
18:09:01.796875,6.59
18:09:01.812500,4.99
18:09:01.828125,3.46
18:09:01.843750,1.89
18:09:01.859375,0.34
18:09:01.875000,-1.04
18:09:01.890625,-2.03
18:09:01.906250,-2.57
18:09:01.921875,-2.75
18:09:01.937500,-2.77
18:09:01.953125,-2.85
18:09:01.968750,-3.15
18:09:01.984375,-3.69
18:09:02,-4.45
18:09:02.015625,-5.42
18:09:02.031250,-6.61
18:09:02.046875,-8.12
18:09:02.062500,-9.94
18:09:02.078125,-11.94
18:09:02.093750,-13.80
18:09:02.109375,-15.14
18:09:02.125000,-15.62
18:09:02.140625,-15.08
18:09:02.156250,-13.60
18:09:02.171875,-11.44
18:09:02.187500,-8.92
18:09:02.203125,-6.22
18:09:02.218750,-3.40
18:09:02.234375,-0.38
18:09:02.250000,2.89
18:09:02.265625,6.30
18:09:02.281250,9.60
18:09:02.296875,12.46
18:09:02.312500,14.62
18:09:02.328125,16.04
18:09:02.343750,16.88
18:09:02.359375,17.41
18:09:02.375000,17.88
18:09:02.390625,18.45
18:09:02.406250,19.10
18:09:02.421875,19.76
18:09:02.437500,20.32
18:09:02.453125,20.76
18:09:02.468750,21.13
18:09:02.484375,21.47
18:09:02.500000,21.76
18:09:02.515625,21.91
18:09:02.531250,21.77
18:09:02.546875,21.19
18:09:02.562500,20.09
18:09:02.578125,18.54
18:09:02.593750,16.73
18:09:02.609375,14.85
18:09:02.625000,13.03
18:09:02.640625,11.30
18:09:02.656250,9.62
18:09:02.671875,7.95
18:09:02.687500,6.29
18:09:02.703125,4.74
18:09:02.718750,3.29
18:09:02.734375,1.89
18:09:02.750000,0.31
18:09:02.765625,-1.74
18:09:02.781250,-4.44
18:09:02.796875,-7.79
18:09:02.812500,-11.50
18:09:02.828125,-15.11
18:09:02.843750,-18.08
18:09:02.859375,-20.04
18:09:02.875000,-20.84
18:09:02.890625,-20.57
18:09:02.906250,-19.44
18:09:02.921875,-17.61
18:09:02.937500,-15.19
18:09:02.953125,-12.19
18:09:02.968750,-8.65
18:09:02.984375,-4.63
18:09:03,-0.33
18:09:03.015625,4.10
18:09:03.031250,8.52
18:09:03.046875,12.88
18:09:03.062500,17.15
18:09:03.078125,21.29
18:09:03.093750,25.15
18:09:03.109375,28.47
18:09:03.125000,31.08
18:09:03.140625,32.87
18:09:03.156250,33.96
18:09:03.171875,34.61
18:09:03.187500,35.18
18:09:03.203125,35.93
18:09:03.218750,36.98
18:09:03.234375,38.20
18:09:03.250000,39.33
18:09:03.265625,40.03
18:09:03.281250,40.06
18:09:03.296875,39.31
18:09:03.312500,37.81
18:09:03.328125,35.67
18:09:03.343750,32.96
18:09:03.359375,29.71
18:09:03.375000,25.94
18:09:03.390625,21.77
18:09:03.406250,17.41
18:09:03.421875,13.12
18:09:03.437500,9.06
18:09:03.453125,5.17
18:09:03.468750,1.16
18:09:03.484375,-3.37
18:09:03.500000,-8.64
18:09:03.515625,-14.65
18:09:03.531250,-21.06
18:09:03.546875,-27.43
18:09:03.562500,-33.32
18:09:03.578125,-38.41
18:09:03.593750,-42.49
18:09:03.609375,-45.42
18:09:03.625000,-47.04
18:09:03.640625,-47.25
18:09:03.656250,-46.07
18:09:03.671875,-43.73
18:09:03.687500,-40.59
18:09:03.703125,-37.01
18:09:03.718750,-33.24
18:09:03.734375,-29.32
18:09:03.750000,-25.16
18:09:03.765625,-20.70
18:09:03.781250,-16.00
18:09:03.796875,-11.27
18:09:03.812500,-6.77
18:09:03.828125,-2.64
18:09:03.843750,1.15
18:09:03.859375,4.76
18:09:03.875000,8.32
18:09:03.890625,11.81
18:09:03.906250,14.94
18:09:03.921875,17.37
18:09:03.937500,18.77
18:09:03.953125,19.11
18:09:03.968750,18.63
18:09:03.984375,17.81
18:09:04,17.08
18:09:04.015625,16.69
18:09:04.031250,16.58
18:09:04.046875,16.44
18:09:04.062500,15.90
18:09:04.078125,14.66
18:09:04.093750,12.64
18:09:04.109375,9.96
18:09:04.125000,6.86
18:09:04.140625,3.52
18:09:04.156250,0.09
18:09:04.171875,-3.45
18:09:04.187500,-7.14
18:09:04.203125,-11.00
18:09:04.218750,-14.97
18:09:04.234375,-18.93
18:09:04.250000,-22.84
18:09:04.265625,-26.71
18:09:04.281250,-30.61
18:09:04.296875,-34.58
18:09:04.312500,-38.47
18:09:04.328125,-41.97
18:09:04.343750,-44.55
18:09:04.359375,-45.71
18:09:04.375000,-45.05
18:09:04.390625,-42.45
18:09:04.406250,-38.08
18:09:04.421875,-32.34
18:09:04.437500,-25.75
18:09:04.453125,-18.83
18:09:04.468750,-12.01
18:09:04.484375,-5.54
18:09:04.500000,0.51
18:09:04.515625,6.20
18:09:04.531250,11.61
18:09:04.546875,16.73
18:09:04.562500,21.38
18:09:04.578125,25.28
18:09:04.593750,28.14
18:09:04.609375,29.82
18:09:04.625000,30.37
18:09:04.640625,30.01
18:09:04.656250,29.07
18:09:04.671875,27.80
18:09:04.687500,26.39
18:09:04.703125,24.90
18:09:04.718750,23.35
18:09:04.734375,21.75
18:09:04.750000,20.09
18:09:04.765625,18.37
18:09:04.781250,16.54
18:09:04.796875,14.54
18:09:04.812500,12.27
18:09:04.828125,9.62
18:09:04.843750,6.50
18:09:04.859375,2.82
18:09:04.875000,-1.44
18:09:04.890625,-6.18
18:09:04.906250,-11.19
18:09:04.921875,-16.11
18:09:04.937500,-20.52
18:09:04.953125,-24.01
18:09:04.968750,-26.31
18:09:04.984375,-27.35
18:09:05,-27.35
18:09:05.015625,-26.80
18:09:05.031250,-26.38
18:09:05.046875,-26.71
18:09:05.062500,-28.14
18:09:05.078125,-30.61
18:09:05.093750,-33.58
18:09:05.109375,-36.18
18:09:05.125000,-37.50
18:09:05.140625,-36.85
18:09:05.156250,-33.93
18:09:05.171875,-28.91
18:09:05.187500,-22.25
18:09:05.203125,-14.57
18:09:05.218750,-6.46
18:09:05.234375,1.65
18:09:05.250000,9.39
18:09:05.265625,16.45
18:09:05.281250,22.51
18:09:05.296875,27.30
18:09:05.312500,30.62
18:09:05.328125,32.51
18:09:05.343750,33.26
18:09:05.359375,33.36
18:09:05.375000,33.35
18:09:05.390625,33.62
18:09:05.406250,34.35
18:09:05.421875,35.44
18:09:05.437500,36.67
18:09:05.453125,37.91
18:09:05.468750,39.15
18:09:05.484375,40.56
18:09:05.500000,42.38
18:09:05.515625,44.77
18:09:05.531250,47.71
18:09:05.546875,50.95
18:09:05.562500,54.11
18:09:05.578125,56.78
18:09:05.593750,58.66
18:09:05.609375,59.57
18:09:05.625000,59.51
18:09:05.640625,58.61
18:09:05.656250,56.99
18:09:05.671875,54.79
18:09:05.687500,52.02
18:09:05.703125,48.66
18:09:05.718750,44.59
18:09:05.734375,39.72
18:09:05.750000,33.96
18:09:05.765625,27.25
18:09:05.781250,19.59
18:09:05.796875,11.04
18:09:05.812500,1.87
18:09:05.828125,-7.49
18:09:05.843750,-16.35
18:09:05.859375,-23.92
18:09:05.875000,-29.46
18:09:05.890625,-32.48
18:09:05.906250,-32.89
18:09:05.921875,-31.03
18:09:05.937500,-27.54
18:09:05.953125,-23.20
18:09:05.968750,-18.62
18:09:05.984375,-14.17
18:09:06,-9.91
18:09:06.015625,-5.74
18:09:06.031250,-1.49
18:09:06.046875,2.82
18:09:06.062500,7.07
18:09:06.078125,10.97
18:09:06.093750,14.33
18:09:06.109375,17.09
18:09:06.125000,19.34
18:09:06.140625,21.24
18:09:06.156250,22.82
18:09:06.171875,23.92
18:09:06.187500,24.31
18:09:06.203125,23.81
18:09:06.218750,22.41
18:09:06.234375,20.32
18:09:06.250000,17.85
18:09:06.265625,15.27
18:09:06.281250,12.72
18:09:06.296875,10.21
18:09:06.312500,7.70
18:09:06.328125,5.20
18:09:06.343750,2.73
18:09:06.359375,0.39
18:09:06.375000,-1.81
18:09:06.390625,-3.88
18:09:06.406250,-5.93
18:09:06.421875,-8.06
18:09:06.437500,-10.35
18:09:06.453125,-12.88
18:09:06.468750,-15.68
18:09:06.484375,-18.78
18:09:06.500000,-22.23
18:09:06.515625,-26.08
18:09:06.531250,-30.37
18:09:06.546875,-35.04
18:09:06.562500,-39.84
18:09:06.578125,-44.30
18:09:06.593750,-47.75
18:09:06.609375,-49.53
18:09:06.625000,-49.14
18:09:06.640625,-46.44
18:09:06.656250,-41.66
18:09:06.671875,-35.31
18:09:06.687500,-28.03
18:09:06.703125,-20.38
18:09:06.718750,-12.84
18:09:06.734375,-5.82
18:09:06.750000,0.33
18:09:06.765625,5.30
18:09:06.781250,8.86
18:09:06.796875,10.91
18:09:06.812500,11.50
18:09:06.828125,10.85
18:09:06.843750,9.28
18:09:06.859375,7.18
18:09:06.875000,4.96
18:09:06.890625,2.98
18:09:06.906250,1.42
18:09:06.921875,0.32
18:09:06.937500,-0.48
18:09:06.953125,-1.17
18:09:06.968750,-1.86
18:09:06.984375,-2.54
18:09:07,-3.09
18:09:07.015625,-3.41
18:09:07.031250,-3.57
18:09:07.046875,-3.79
18:09:07.062500,-4.42
18:09:07.078125,-5.76
18:09:07.093750,-7.86
18:09:07.109375,-10.55
18:09:07.125000,-13.47
18:09:07.140625,-16.29
18:09:07.156250,-18.82
18:09:07.171875,-21.07
18:09:07.187500,-23.21
18:09:07.203125,-25.41
18:09:07.218750,-27.79
18:09:07.234375,-30.33
18:09:07.250000,-32.88
18:09:07.265625,-35.21
18:09:07.281250,-37.10
18:09:07.296875,-38.34
18:09:07.312500,-38.82
18:09:07.328125,-38.40
18:09:07.343750,-37.02
18:09:07.359375,-34.59
18:09:07.375000,-31.11
18:09:07.390625,-26.63
18:09:07.406250,-21.35
18:09:07.421875,-15.56
18:09:07.437500,-9.57
18:09:07.453125,-3.62
18:09:07.468750,2.16
18:09:07.484375,7.73
18:09:07.500000,13.06
18:09:07.515625,18.00
18:09:07.531250,22.27
18:09:07.546875,25.54
18:09:07.562500,27.57
18:09:07.578125,28.35
18:09:07.593750,28.12
18:09:07.609375,27.31
18:09:07.625000,26.32
18:09:07.640625,25.41
18:09:07.656250,24.65
18:09:07.671875,23.95
18:09:07.687500,23.25
18:09:07.703125,22.54
18:09:07.718750,21.89
18:09:07.734375,21.36
18:09:07.750000,20.92
18:09:07.765625,20.40
18:09:07.781250,19.63
18:09:07.796875,18.45
18:09:07.812500,16.87
18:09:07.828125,15.08
18:09:07.843750,13.33
18:09:07.859375,11.80
18:09:07.875000,10.55
18:09:07.890625,9.47
18:09:07.906250,8.38
18:09:07.921875,7.09
18:09:07.937500,5.49
18:09:07.953125,3.51
18:09:07.968750,1.11
18:09:07.984375,-1.79
18:09:08,-5.24
18:09:08.015625,-9.19
18:09:08.031250,-13.38
18:09:08.046875,-17.36
18:09:08.062500,-20.59
18:09:08.078125,-22.55
18:09:08.093750,-22.95
18:09:08.109375,-21.80
18:09:08.125000,-19.35
18:09:08.140625,-16.03
18:09:08.156250,-12.23
18:09:08.171875,-8.22
18:09:08.187500,-4.08
18:09:08.203125,0.18
18:09:08.218750,4.57
18:09:08.234375,8.92
18:09:08.250000,12.93
18:09:08.265625,16.16
18:09:08.281250,18.20
18:09:08.296875,18.86
18:09:08.312500,18.22
18:09:08.328125,16.62
18:09:08.343750,14.49
18:09:08.359375,12.24
18:09:08.375000,10.15
18:09:08.390625,8.30
18:09:08.406250,6.67
18:09:08.421875,5.18
18:09:08.437500,3.72
18:09:08.453125,2.21
18:09:08.468750,0.58
18:09:08.484375,-1.16
18:09:08.500000,-3.01
18:09:08.515625,-4.88
18:09:08.531250,-6.71
18:09:08.546875,-8.47
18:09:08.562500,-10.22
18:09:08.578125,-12.05
18:09:08.593750,-14.07
18:09:08.609375,-16.30
18:09:08.625000,-18.66
18:09:08.640625,-20.99
18:09:08.656250,-23.08
18:09:08.671875,-24.83
18:09:08.687500,-26.22
18:09:08.703125,-27.35
18:09:08.718750,-28.35
18:09:08.734375,-29.36
18:09:08.750000,-30.46
18:09:08.765625,-31.66
18:09:08.781250,-32.87
18:09:08.796875,-33.82
18:09:08.812500,-34.11
18:09:08.828125,-33.20
18:09:08.843750,-30.56
18:09:08.859375,-25.95
18:09:08.875000,-19.50
18:09:08.890625,-11.80
18:09:08.906250,-3.70
18:09:08.921875,3.91
18:09:08.937500,10.41
18:09:08.953125,15.55
18:09:08.968750,19.44
18:09:08.984375,22.37
18:09:09,24.64
18:09:09.015625,26.42
18:09:09.031250,27.71
18:09:09.046875,28.44
18:09:09.062500,28.51
18:09:09.078125,27.83
18:09:09.093750,26.43
18:09:09.109375,24.44
18:09:09.125000,22.11
18:09:09.140625,19.72
18:09:09.156250,17.57
18:09:09.171875,15.80
18:09:09.187500,14.46
18:09:09.203125,13.50
18:09:09.218750,12.83
18:09:09.234375,12.37
18:09:09.250000,12.02
18:09:09.265625,11.59
18:09:09.281250,10.84
18:09:09.296875,9.45
18:09:09.312500,7.24
18:09:09.328125,4.26
18:09:09.343750,0.84
18:09:09.359375,-2.50
18:09:09.375000,-5.26
18:09:09.390625,-7.20
18:09:09.406250,-8.40
18:09:09.421875,-9.24
18:09:09.437500,-10.21
18:09:09.453125,-11.68
18:09:09.468750,-13.76
18:09:09.484375,-16.35
18:09:09.500000,-19.19
18:09:09.515625,-22.06
18:09:09.531250,-24.85
18:09:09.546875,-27.59
18:09:09.562500,-30.32
18:09:09.578125,-32.95
18:09:09.593750,-35.19
18:09:09.609375,-36.60
18:09:09.625000,-36.78
18:09:09.640625,-35.52
18:09:09.656250,-32.90
18:09:09.671875,-29.30
18:09:09.687500,-25.15
18:09:09.703125,-20.83
18:09:09.718750,-16.47
18:09:09.734375,-12.04
18:09:09.750000,-7.42
18:09:09.765625,-2.57
18:09:09.781250,2.38
18:09:09.796875,7.18
18:09:09.812500,11.48
18:09:09.828125,15.03
18:09:09.843750,17.68
18:09:09.859375,19.45
18:09:09.875000,20.48
18:09:09.890625,20.89
18:09:09.906250,20.79
18:09:09.921875,20.21
18:09:09.937500,19.19
18:09:09.953125,17.79
18:09:09.968750,16.19
18:09:09.984375,14.63
18:09:10,13.30
18:09:10.015625,12.28
18:09:10.031250,11.50
18:09:10.046875,10.77
18:09:10.062500,9.90
18:09:10.078125,8.76
18:09:10.093750,7.40
18:09:10.109375,5.99
18:09:10.125000,4.73
18:09:10.140625,3.76
18:09:10.156250,3.11
18:09:10.171875,2.71
18:09:10.187500,2.45
18:09:10.203125,2.17
18:09:10.218750,1.72
18:09:10.234375,0.95
18:09:10.250000,-0.33
18:09:10.265625,-2.27
18:09:10.281250,-5.00
18:09:10.296875,-8.46
18:09:10.312500,-12.45
18:09:10.328125,-16.63
18:09:10.343750,-20.65
18:09:10.359375,-24.30
18:09:10.375000,-27.49
18:09:10.390625,-30.29
18:09:10.406250,-32.66
18:09:10.421875,-34.41
18:09:10.437500,-35.22
18:09:10.453125,-34.75
18:09:10.468750,-32.83
18:09:10.484375,-29.56
18:09:10.500000,-25.31
18:09:10.515625,-20.50
18:09:10.531250,-15.47
18:09:10.546875,-10.32
18:09:10.562500,-5.00
18:09:10.578125,0.55
18:09:10.593750,6.29
18:09:10.609375,11.94
18:09:10.625000,17.14
18:09:10.640625,21.47
18:09:10.656250,24.69
18:09:10.671875,26.73
18:09:10.687500,27.84
18:09:10.703125,28.35
18:09:10.718750,28.63
18:09:10.734375,28.91
18:09:10.750000,29.20
18:09:10.765625,29.36
18:09:10.781250,29.12
18:09:10.796875,28.30
18:09:10.812500,26.85
18:09:10.828125,24.93
18:09:10.843750,22.75
18:09:10.859375,20.57
18:09:10.875000,18.51
18:09:10.890625,16.55
18:09:10.906250,14.57
18:09:10.921875,12.41
18:09:10.937500,9.98
18:09:10.953125,7.30
18:09:10.968750,4.46
18:09:10.984375,1.61
18:09:11,-1.18
18:09:11.015625,-3.92
18:09:11.031250,-6.70
18:09:11.046875,-9.55
18:09:11.062500,-12.48
18:09:11.078125,-15.37
18:09:11.093750,-18.07
18:09:11.109375,-20.50
18:09:11.125000,-22.60
18:09:11.140625,-24.42
18:09:11.156250,-26.00
18:09:11.171875,-27.42
18:09:11.187500,-28.73
18:09:11.203125,-30.00
18:09:11.218750,-31.23
18:09:11.234375,-32.35
18:09:11.250000,-33.11
18:09:11.265625,-33.16
18:09:11.281250,-32.11
18:09:11.296875,-29.67
18:09:11.312500,-25.80
18:09:11.328125,-20.64
18:09:11.343750,-14.50
18:09:11.359375,-7.79
18:09:11.375000,-0.96
18:09:11.390625,5.47
18:09:11.406250,11.04
18:09:11.421875,15.38
18:09:11.437500,18.42
18:09:11.453125,20.41
18:09:11.468750,21.74
18:09:11.484375,22.78
18:09:11.500000,23.62
18:09:11.515625,24.06
18:09:11.531250,23.78
18:09:11.546875,22.58
18:09:11.562500,20.54
18:09:11.578125,17.98
18:09:11.593750,15.29
18:09:11.609375,12.78
18:09:11.625000,10.56
18:09:11.640625,8.63
18:09:11.656250,6.98
18:09:11.671875,5.67
18:09:11.687500,4.80
18:09:11.703125,4.49
18:09:11.718750,4.74
18:09:11.734375,5.53
18:09:11.750000,6.74
18:09:11.765625,8.21
18:09:11.781250,9.68
18:09:11.796875,10.83
18:09:11.812500,11.36
18:09:11.828125,11.09
18:09:11.843750,10.14
18:09:11.859375,8.88
18:09:11.875000,7.80
18:09:11.890625,7.31
18:09:11.906250,7.53
18:09:11.921875,8.23
18:09:11.937500,8.98
18:09:11.953125,9.30
18:09:11.968750,8.94
18:09:11.984375,7.90
18:09:12,6.41
18:09:12.015625,4.80
18:09:12.031250,3.39
18:09:12.046875,2.40
18:09:12.062500,1.95
18:09:12.078125,2.03
18:09:12.093750,2.55
18:09:12.109375,3.24
18:09:12.125000,3.80
18:09:12.140625,3.91
18:09:12.156250,3.35
18:09:12.171875,2.12
18:09:12.187500,0.44
18:09:12.203125,-1.24
18:09:12.218750,-2.41
18:09:12.234375,-2.67
18:09:12.250000,-1.90
18:09:12.265625,-0.32
18:09:12.281250,1.52
18:09:12.296875,2.95
18:09:12.312500,3.42
18:09:12.328125,2.69
18:09:12.343750,0.88
18:09:12.359375,-1.62
18:09:12.375000,-4.36
18:09:12.390625,-7.03
18:09:12.406250,-9.47
18:09:12.421875,-11.68
18:09:12.437500,-13.67
18:09:12.453125,-15.37
18:09:12.468750,-16.61
18:09:12.484375,-17.24
18:09:12.500000,-17.23
18:09:12.515625,-16.74
18:09:12.531250,-16.02
18:09:12.546875,-15.34
18:09:12.562500,-14.81
18:09:12.578125,-14.43
18:09:12.593750,-14.04
18:09:12.609375,-13.54
18:09:12.625000,-12.96
18:09:12.640625,-12.48
18:09:12.656250,-12.33
18:09:12.671875,-12.68
18:09:12.687500,-13.47
18:09:12.703125,-14.48
18:09:12.718750,-15.42
18:09:12.734375,-16.07
18:09:12.750000,-16.45
18:09:12.765625,-16.74
18:09:12.781250,-17.19
18:09:12.796875,-17.97
18:09:12.812500,-19.02
18:09:12.828125,-20.13
18:09:12.843750,-20.98
18:09:12.859375,-21.33
18:09:12.875000,-21.10
18:09:12.890625,-20.34
18:09:12.906250,-19.18
18:09:12.921875,-17.70
18:09:12.937500,-15.92
18:09:12.953125,-13.79
18:09:12.968750,-11.25
18:09:12.984375,-8.29
18:09:13,-4.91
18:09:13.015625,-1.18
18:09:13.031250,2.81
18:09:13.046875,6.87
18:09:13.062500,10.82
18:09:13.078125,14.39
18:09:13.093750,17.39
18:09:13.109375,19.65
18:09:13.125000,21.12
18:09:13.140625,21.82
18:09:13.156250,21.82
18:09:13.171875,21.24
18:09:13.187500,20.22
18:09:13.203125,18.91
18:09:13.218750,17.46
18:09:13.234375,15.95
18:09:13.250000,14.39
18:09:13.265625,12.76
18:09:13.281250,11.09
18:09:13.296875,9.47
18:09:13.312500,8.15
18:09:13.328125,7.35
18:09:13.343750,7.16
18:09:13.359375,7.53
18:09:13.375000,8.19
18:09:13.390625,8.82
18:09:13.406250,9.16
18:09:13.421875,9.16
18:09:13.437500,8.92
18:09:13.453125,8.61
18:09:13.468750,8.41
18:09:13.484375,8.32
18:09:13.500000,8.26
18:09:13.515625,8.02
18:09:13.531250,7.37
18:09:13.546875,6.11
18:09:13.562500,4.05
18:09:13.578125,1.07
18:09:13.593750,-2.85
18:09:13.609375,-7.52
18:09:13.625000,-12.56
18:09:13.640625,-17.43
18:09:13.656250,-21.52
18:09:13.671875,-24.34
18:09:13.687500,-25.65
18:09:13.703125,-25.59
18:09:13.718750,-24.51
18:09:13.734375,-22.87
18:09:13.750000,-21.05
18:09:13.765625,-19.20
18:09:13.781250,-17.27
18:09:13.796875,-15.10
18:09:13.812500,-12.58
18:09:13.828125,-9.74
18:09:13.843750,-6.83
18:09:13.859375,-4.11
18:09:13.875000,-1.86
18:09:13.890625,-0.15
18:09:13.906250,1.06
18:09:13.921875,1.92
18:09:13.937500,2.57
18:09:13.953125,3.08
18:09:13.968750,3.45
18:09:13.984375,3.66
18:09:14,3.75
18:09:14.015625,3.77
18:09:14.031250,3.79
18:09:14.046875,3.89
18:09:14.062500,4.07
18:09:14.078125,4.31
18:09:14.093750,4.56
18:09:14.109375,4.75
18:09:14.125000,4.83
18:09:14.140625,4.76
18:09:14.156250,4.51
18:09:14.171875,4.10
18:09:14.187500,3.58
18:09:14.203125,3.02
18:09:14.218750,2.48
18:09:14.234375,2.05
18:09:14.250000,1.78
18:09:14.265625,1.66
18:09:14.281250,1.61
18:09:14.296875,1.42
18:09:14.312500,0.84
18:09:14.328125,-0.34
18:09:14.343750,-2.14
18:09:14.359375,-4.37
18:09:14.375000,-6.70
18:09:14.390625,-8.72
18:09:14.406250,-10.16
18:09:14.421875,-10.86
18:09:14.437500,-10.78
18:09:14.453125,-9.87
18:09:14.468750,-8.13
18:09:14.484375,-5.66
18:09:14.500000,-2.69
18:09:14.515625,0.36
18:09:14.531250,3.03
18:09:14.546875,4.95
18:09:14.562500,6.03
18:09:14.578125,6.45
18:09:14.593750,6.53
18:09:14.609375,6.61
18:09:14.625000,6.89
18:09:14.640625,7.43
18:09:14.656250,8.13
18:09:14.671875,8.84
18:09:14.687500,9.42
18:09:14.703125,9.77
18:09:14.718750,9.85
18:09:14.734375,9.72
18:09:14.750000,9.47
18:09:14.765625,9.23
18:09:14.781250,9.10
18:09:14.796875,9.13
18:09:14.812500,9.33
18:09:14.828125,9.71
18:09:14.843750,10.32
18:09:14.859375,11.23
18:09:14.875000,12.44
18:09:14.890625,13.87
18:09:14.906250,15.34
18:09:14.921875,16.60
18:09:14.937500,17.55
18:09:14.953125,18.20
18:09:14.968750,18.82
18:09:14.984375,19.78
18:09:15,21.39
18:09:15.015625,23.78
18:09:15.031250,26.84
18:09:15.046875,30.27
18:09:15.062500,33.66
18:09:15.078125,36.73
18:09:15.093750,39.33
18:09:15.109375,41.55
18:09:15.125000,43.61
18:09:15.140625,45.73
18:09:15.156250,48.00
18:09:15.171875,50.24
18:09:15.187500,52.15
18:09:15.203125,53.39
18:09:15.218750,53.75
18:09:15.234375,53.25
18:09:15.250000,52.08
18:09:15.265625,50.49
18:09:15.281250,48.64
18:09:15.296875,46.62
18:09:15.312500,44.44
18:09:15.328125,42.07
18:09:15.343750,39.49
18:09:15.359375,36.63
18:09:15.375000,33.37
18:09:15.390625,29.65
18:09:15.406250,25.49
18:09:15.421875,21.14
18:09:15.437500,16.94
18:09:15.453125,13.25
18:09:15.468750,10.11
18:09:15.484375,7.20
18:09:15.500000,3.86
18:09:15.515625,-0.61
18:09:15.531250,-6.70
18:09:15.546875,-14.47
18:09:15.562500,-23.52
18:09:15.578125,-33.12
18:09:15.593750,-42.48
18:09:15.609375,-50.90
18:09:15.625000,-57.90
18:09:15.640625,-63.26
18:09:15.656250,-66.97
18:09:15.671875,-69.24
18:09:15.687500,-70.33
18:09:15.703125,-70.59
18:09:15.718750,-70.33
18:09:15.734375,-69.84
18:09:15.750000,-69.27
18:09:15.765625,-68.64
18:09:15.781250,-67.86
18:09:15.796875,-66.77
18:09:15.812500,-65.19
18:09:15.828125,-63.03
18:09:15.843750,-60.33
18:09:15.859375,-57.25
18:09:15.875000,-54.07
18:09:15.890625,-51.01
18:09:15.906250,-48.20
18:09:15.921875,-45.52
18:09:15.937500,-42.69
18:09:15.953125,-39.32
18:09:15.968750,-35.13
18:09:15.984375,-30.00
18:09:16,-24.13
18:09:16.015625,-17.90
18:09:16.031250,-11.81
18:09:16.046875,-6.28
18:09:16.062500,-1.55
18:09:16.078125,2.40
18:09:16.093750,5.74
18:09:16.109375,8.73
18:09:16.125000,11.52
18:09:16.140625,14.09
18:09:16.156250,16.32
18:09:16.171875,18.02
18:09:16.187500,19.08
18:09:16.203125,19.53
18:09:16.218750,19.55
18:09:16.234375,19.36
18:09:16.250000,19.11
18:09:16.265625,18.82
18:09:16.281250,18.38
18:09:16.296875,17.71
18:09:16.312500,16.82
18:09:16.328125,15.89
18:09:16.343750,15.18
18:09:16.359375,14.92
18:09:16.375000,15.18
18:09:16.390625,15.82
18:09:16.406250,16.58
18:09:16.421875,17.18
18:09:16.437500,17.44
18:09:16.453125,17.34
18:09:16.468750,16.97
18:09:16.484375,16.39
18:09:16.500000,15.63
18:09:16.515625,14.59
18:09:16.531250,13.17
18:09:16.546875,11.36
18:09:16.562500,9.30
18:09:16.578125,7.27
18:09:16.593750,5.60
18:09:16.609375,4.56
18:09:16.625000,4.25
18:09:16.640625,4.55
18:09:16.656250,5.24
18:09:16.671875,6.07
18:09:16.687500,6.94
18:09:16.703125,7.86
18:09:16.718750,8.96
18:09:16.734375,10.38
18:09:16.750000,12.10
18:09:16.765625,13.96
18:09:16.781250,15.67
18:09:16.796875,16.96
18:09:16.812500,17.68
18:09:16.828125,17.89
18:09:16.843750,17.74
18:09:16.859375,17.39
18:09:16.875000,16.89
18:09:16.890625,16.17
18:09:16.906250,15.12
18:09:16.921875,13.67
18:09:16.937500,11.84
18:09:16.953125,9.79
18:09:16.968750,7.73
18:09:16.984375,5.90
18:09:17,4.55
18:09:17.015625,3.93
18:09:17.031250,4.18
18:09:17.046875,5.34
18:09:17.062500,7.18
18:09:17.078125,9.23
18:09:17.093750,10.84
18:09:17.109375,11.34
18:09:17.125000,10.23
18:09:17.140625,7.35
18:09:17.156250,2.95
18:09:17.171875,-2.44
18:09:17.187500,-8.18
18:09:17.203125,-13.68
18:09:17.218750,-18.61
18:09:17.234375,-22.90
18:09:17.250000,-26.71
18:09:17.265625,-30.27
18:09:17.281250,-33.77
18:09:17.296875,-37.25
18:09:17.312500,-40.61
18:09:17.328125,-43.68
18:09:17.343750,-46.28
18:09:17.359375,-48.28
18:09:17.375000,-49.56
18:09:17.390625,-50.06
18:09:17.406250,-49.64
18:09:17.421875,-48.24
18:09:17.437500,-45.82
18:09:17.453125,-42.47
18:09:17.468750,-38.44
18:09:17.484375,-34.00
18:09:17.500000,-29.36
18:09:17.515625,-24.66
18:09:17.531250,-19.91
18:09:17.546875,-15.12
18:09:17.562500,-10.38
18:09:17.578125,-5.92
18:09:17.593750,-1.97
18:09:17.609375,1.26
18:09:17.625000,3.75
18:09:17.640625,5.66
18:09:17.656250,7.17
18:09:17.671875,8.42
18:09:17.687500,9.40
18:09:17.703125,10.01
18:09:17.718750,10.15
18:09:17.734375,9.85
18:09:17.750000,9.27
18:09:17.765625,8.66
18:09:17.781250,8.24
18:09:17.796875,8.14
18:09:17.812500,8.35
18:09:17.828125,8.75
18:09:17.843750,9.13
18:09:17.859375,9.30
18:09:17.875000,9.10
18:09:17.890625,8.47
18:09:17.906250,7.42
18:09:17.921875,6.07
18:09:17.937500,4.54
18:09:17.953125,2.97
18:09:17.968750,1.41
18:09:17.984375,-0.18
18:09:18,-1.86
18:09:18.015625,-3.70
18:09:18.031250,-5.70
18:09:18.046875,-7.77
18:09:18.062500,-9.72
18:09:18.078125,-11.30
18:09:18.093750,-12.27
18:09:18.109375,-12.53
18:09:18.125000,-12.16
18:09:18.140625,-11.36
18:09:18.156250,-10.39
18:09:18.171875,-9.42
18:09:18.187500,-8.41
18:09:18.203125,-7.14
18:09:18.218750,-5.33
18:09:18.234375,-2.79
18:09:18.250000,0.42
18:09:18.265625,4.01
18:09:18.281250,7.54
18:09:18.296875,10.61
18:09:18.312500,13.01
18:09:18.328125,14.72
18:09:18.343750,15.88
18:09:18.359375,16.66
18:09:18.375000,17.16
18:09:18.390625,17.35
18:09:18.406250,17.17
18:09:18.421875,16.56
18:09:18.437500,15.47
18:09:18.453125,13.97
18:09:18.468750,12.19
18:09:18.484375,10.30
18:09:18.500000,8.51
18:09:18.515625,6.97
18:09:18.531250,5.81
18:09:18.546875,4.99
18:09:18.562500,4.38
18:09:18.578125,3.76
18:09:18.593750,2.97
18:09:18.609375,1.94
18:09:18.625000,0.79
18:09:18.640625,-0.35
18:09:18.656250,-1.40
18:09:18.671875,-2.38
18:09:18.687500,-3.54
18:09:18.703125,-5.09
18:09:18.718750,-7.15
18:09:18.734375,-9.62
18:09:18.750000,-12.28
18:09:18.765625,-14.79
18:09:18.781250,-16.85
18:09:18.796875,-18.29
18:09:18.812500,-18.95
18:09:18.828125,-18.79
18:09:18.843750,-17.83
18:09:18.859375,-16.17
18:09:18.875000,-13.98
18:09:18.890625,-11.51
18:09:18.906250,-8.95
18:09:18.921875,-6.44
18:09:18.937500,-4.03
18:09:18.953125,-1.67
18:09:18.968750,0.67
18:09:18.984375,3.00
18:09:19,5.36
18:09:19.015625,7.78
18:09:19.031250,10.33
18:09:19.046875,12.99
18:09:19.062500,15.65
18:09:19.078125,18.07
18:09:19.093750,19.97
18:09:19.109375,21.13
18:09:19.125000,21.49
18:09:19.140625,21.19
18:09:19.156250,20.39
