16:15:12,-0.00
16:15:12.015625,-0.00
16:15:12.031250,-0.00
16:15:12.046875,-0.00
16:15:12.062500,-0.00
16:15:12.078125,-0.00
16:15:12.093750,-0.00
16:15:12.109375,-0.00
16:15:12.125000,-0.00
16:15:12.140625,-0.00
16:15:12.156250,0.00
16:15:12.171875,0.01
16:15:12.187500,0.01
16:15:12.203125,-0.00
16:15:12.218750,-0.03
16:15:12.234375,-0.05
16:15:12.250000,-0.05
16:15:12.265625,0.00
16:15:12.281250,0.13
16:15:12.296875,0.36
16:15:12.312500,0.66
16:15:12.328125,1.01
16:15:12.343750,1.37
16:15:12.359375,1.72
16:15:12.375000,2.06
16:15:12.390625,2.40
16:15:12.406250,2.79
16:15:12.421875,3.24
16:15:12.437500,3.80
16:15:12.453125,4.42
16:15:12.468750,5.06
16:15:12.484375,5.66
16:15:12.500000,6.19
16:15:12.515625,6.67
16:15:12.531250,7.16
16:15:12.546875,7.71
16:15:12.562500,8.37
16:15:12.578125,9.19
16:15:12.593750,10.07
16:15:12.609375,10.89
16:15:12.625000,11.53
16:15:12.640625,11.96
16:15:12.656250,12.29
16:15:12.671875,12.71
16:15:12.687500,13.45
16:15:12.703125,14.67
16:15:12.718750,16.55
16:15:12.734375,18.86
16:15:12.750000,21.30
16:15:12.765625,23.58
16:15:12.781250,25.55
16:15:12.796875,27.35
16:15:12.812500,29.33
16:15:12.828125,31.93
16:15:12.843750,35.43
16:15:12.859375,40.14
16:15:12.875000,45.62
16:15:12.890625,51.29
16:15:12.906250,56.57
16:15:12.921875,61.17
16:15:12.937500,65.29
16:15:12.953125,69.53
16:15:12.968750,74.60
16:15:12.984375,80.94
16:15:13,88.89
16:15:13.015625,97.72
16:15:13.031250,106.48
16:15:13.046875,114.30
16:15:13.062500,120.82
16:15:13.078125,126.36
16:15:13.093750,131.86
16:15:13.109375,138.73
16:15:13.125000,145.50
16:15:13.140625,154.03
16:15:13.156250,164.46
16:15:13.171875,176.56
16:15:13.187500,189.16
16:15:13.203125,199.71
16:15:13.218750,204.50
16:15:13.234375,199.43
16:15:13.250000,181.34
16:15:13.265625,149.12
16:15:13.281250,104.48
16:15:13.296875,50.50
16:15:13.312500,-9.03
16:15:13.328125,-70.86
16:15:13.343750,-132.91
16:15:13.359375,-194.06
16:15:13.375000,-253.63
16:15:13.390625,-310.94
16:15:13.406250,-365.28
16:15:13.421875,-415.78
16:15:13.437500,-462.30
16:15:13.453125,-505.04
16:15:13.468750,-544.20
16:15:13.484375,-579.37
16:15:13.500000,-608.82
16:15:13.515625,-629.13
16:15:13.531250,-635.42
16:15:13.546875,-622.60
16:15:13.562500,-586.92
16:15:13.578125,-528.10
16:15:13.593750,-449.78
16:15:13.609375,-358.84
16:15:13.625000,-263.50
16:15:13.640625,-170.97
16:15:13.656250,-85.97
16:15:13.671875,-10.46
16:15:13.687500,55.37
16:15:13.703125,111.93
16:15:13.718750,159.15
16:15:13.734375,196.70
16:15:13.750000,224.47
16:15:13.765625,243.17
16:15:13.781250,254.38
16:15:13.796875,260.15
16:15:13.812500,262.27
16:15:13.828125,261.77
16:15:13.843750,258.91
16:15:13.859375,253.39
16:15:13.875000,244.93
16:15:13.890625,233.72
16:15:13.906250,220.48
16:15:13.921875,206.29
16:15:13.937500,192.21
16:15:13.953125,178.88
16:15:13.968750,166.40
16:15:13.984375,154.39
16:15:14,142.34
16:15:14.015625,129.91
16:15:14.031250,117.17
16:15:14.046875,104.56
16:15:14.062500,92.64
16:15:14.078125,81.91
16:15:14.093750,72.54
16:15:14.109375,64.41
16:15:14.125000,57.19
16:15:14.140625,50.51
16:15:14.156250,44.12
16:15:14.171875,37.91
16:15:14.187500,31.88
16:15:14.203125,26.14
16:15:14.218750,20.83
16:15:14.234375,16.11
16:15:14.250000,12.06
16:15:14.265625,8.81
16:15:14.281250,6.25
16:15:14.296875,4.31
16:15:14.312500,2.88
16:15:14.328125,1.87
16:15:14.343750,1.20
16:15:14.359375,0.74
16:15:14.375000,0.30
16:15:14.390625,-0.32
16:15:14.406250,-1.22
16:15:14.421875,-2.39
16:15:14.437500,-3.65
16:15:14.453125,-4.76
16:15:14.468750,-5.58
16:15:14.484375,-6.07
16:15:14.500000,-6.38
16:15:14.515625,-6.66
16:15:14.531250,-7.05
16:15:14.546875,-7.55
16:15:14.562500,-8.07
16:15:14.578125,-8.48
16:15:14.593750,-8.67
16:15:14.609375,-8.64
16:15:14.625000,-8.46
16:15:14.640625,-8.25
16:15:14.656250,-8.10
16:15:14.671875,-8.04
16:15:14.687500,-8.02
16:15:14.703125,-7.95
16:15:14.718750,-7.81
16:15:14.734375,-7.58
16:15:14.750000,-7.29
16:15:14.765625,-6.96
16:15:14.781250,-6.58
16:15:14.796875,-6.16
16:15:14.812500,-5.71
16:15:14.828125,-5.29
16:15:14.843750,-5.01
16:15:14.859375,-4.90
16:15:14.875000,-4.96
16:15:14.890625,-5.05
16:15:14.906250,-5.02
16:15:14.921875,-4.78
16:15:14.937500,-4.32
16:15:14.953125,-3.75
16:15:14.968750,-3.24
16:15:14.984375,-2.91
16:15:15,-2.79
16:15:15.015625,-2.81
16:15:15.031250,-2.87
16:15:15.046875,-2.87
16:15:15.062500,-2.81
16:15:15.078125,-2.70
16:15:15.093750,-2.55
16:15:15.109375,-2.32
16:15:15.125000,-1.92
16:15:15.140625,-1.23
16:15:15.156250,-0.28
16:15:15.171875,0.84
16:15:15.187500,1.92
16:15:15.203125,2.76
16:15:15.218750,3.22
16:15:15.234375,3.26
16:15:15.250000,2.95
16:15:15.265625,2.42
16:15:15.281250,1.79
16:15:15.296875,1.15
16:15:15.312500,0.53
16:15:15.328125,-0.05
16:15:15.343750,-0.58
16:15:15.359375,-1.04
16:15:15.375000,-1.41
16:15:15.390625,-1.64
16:15:15.406250,-1.68
16:15:15.421875,-1.51
16:15:15.437500,-1.13
16:15:15.453125,-0.61
16:15:15.468750,-0.05
16:15:15.484375,0.44
16:15:15.500000,0.78
16:15:15.515625,0.93
16:15:15.531250,0.93
16:15:15.546875,0.83
16:15:15.562500,0.71
16:15:15.578125,0.61
16:15:15.593750,0.56
16:15:15.609375,0.57
16:15:15.625000,0.63
16:15:15.640625,0.72
16:15:15.656250,0.78
16:15:15.671875,0.71
16:15:15.687500,0.43
16:15:15.703125,-0.15
16:15:15.718750,-1.01
16:15:15.734375,-2.03
16:15:15.750000,-3.00
16:15:15.765625,-3.71
16:15:15.781250,-4.05
16:15:15.796875,-4.01
16:15:15.812500,-3.69
16:15:15.828125,-3.18
16:15:15.843750,-2.61
16:15:15.859375,-1.99
16:15:15.875000,-1.34
16:15:15.890625,-0.67
16:15:15.906250,-0.02
16:15:15.921875,0.57
16:15:15.937500,1.12
16:15:15.953125,1.66
16:15:15.968750,2.37
16:15:15.984375,3.37
16:15:16,4.66
16:15:16.015625,6.10
16:15:16.031250,7.44
16:15:16.046875,8.46
16:15:16.062500,8.91
16:15:16.078125,8.69
16:15:16.093750,7.86
16:15:16.109375,6.58
16:15:16.125000,5.04
16:15:16.140625,3.41
16:15:16.156250,1.86
16:15:16.171875,0.48
16:15:16.187500,-0.68
16:15:16.203125,-1.62
16:15:16.218750,-2.39
16:15:16.234375,-3.03
16:15:16.250000,-3.55
16:15:16.265625,-3.95
16:15:16.281250,-4.18
16:15:16.296875,-4.18
16:15:16.312500,-3.96
16:15:16.328125,-3.57
16:15:16.343750,-3.13
16:15:16.359375,-2.76
16:15:16.375000,-2.55
16:15:16.390625,-2.53
16:15:16.406250,-2.68
16:15:16.421875,-2.92
16:15:16.437500,-3.14
16:15:16.453125,-3.29
16:15:16.468750,-3.33
16:15:16.484375,-3.28
16:15:16.500000,-3.18
16:15:16.515625,-3.08
16:15:16.531250,-3.02
16:15:16.546875,-2.99
16:15:16.562500,-3.00
16:15:16.578125,-3.02
16:15:16.593750,-3.05
16:15:16.609375,-3.07
16:15:16.625000,-3.12
16:15:16.640625,-3.20
16:15:16.656250,-3.30
16:15:16.671875,-3.39
16:15:16.687500,-3.44
16:15:16.703125,-3.45
16:15:16.718750,-3.50
16:15:16.734375,-3.66
16:15:16.750000,-3.96
16:15:16.765625,-4.34
16:15:16.781250,-4.61
16:15:16.796875,-4.51
16:15:16.812500,-3.88
16:15:16.828125,-2.64
16:15:16.843750,-0.89
16:15:16.859375,1.20
16:15:16.875000,3.38
16:15:16.890625,5.39
16:15:16.906250,7.02
16:15:16.921875,8.14
16:15:16.937500,8.68
16:15:16.953125,8.71
16:15:16.968750,8.36
16:15:16.984375,7.83
16:15:17,7.28
16:15:17.015625,6.82
16:15:17.031250,6.43
16:15:17.046875,6.05
16:15:17.062500,5.59
16:15:17.078125,5.03
16:15:17.093750,4.42
16:15:17.109375,3.88
16:15:17.125000,3.48
16:15:17.140625,3.27
16:15:17.156250,3.20
16:15:17.171875,3.14
16:15:17.187500,3.01
16:15:17.203125,2.77
16:15:17.218750,2.44
16:15:17.234375,2.10
16:15:17.250000,1.80
16:15:17.265625,1.52
16:15:17.281250,1.25
16:15:17.296875,0.95
16:15:17.312500,0.62
16:15:17.328125,0.31
16:15:17.343750,0.05
16:15:17.359375,-0.19
16:15:17.375000,-0.47
16:15:17.390625,-0.88
16:15:17.406250,-1.45
16:15:17.421875,-2.11
16:15:17.437500,-2.73
16:15:17.453125,-3.24
16:15:17.468750,-3.64
16:15:17.484375,-4.04
16:15:17.500000,-4.60
16:15:17.515625,-5.34
16:15:17.531250,-6.21
16:15:17.546875,-7.04
16:15:17.562500,-7.69
16:15:17.578125,-8.10
16:15:17.593750,-8.35
16:15:17.609375,-8.60
16:15:17.625000,-9.02
16:15:17.640625,-9.65
16:15:17.656250,-10.40
16:15:17.671875,-11.03
16:15:17.687500,-11.23
16:15:17.703125,-10.76
16:15:17.718750,-9.55
16:15:17.734375,-7.70
16:15:17.750000,-5.45
16:15:17.765625,-3.11
16:15:17.781250,-0.90
16:15:17.796875,1.10
16:15:17.812500,2.90
16:15:17.828125,4.55
16:15:17.843750,6.03
16:15:17.859375,7.24
16:15:17.875000,8.03
16:15:17.890625,8.30
16:15:17.906250,8.05
16:15:17.921875,7.44
16:15:17.937500,6.72
16:15:17.953125,6.11
16:15:17.968750,5.70
16:15:17.984375,5.48
16:15:18,5.30
16:15:18.015625,5.04
16:15:18.031250,4.63
16:15:18.046875,4.20
16:15:18.062500,3.90
16:15:18.078125,3.89
16:15:18.093750,4.21
16:15:18.109375,4.73
16:15:18.125000,5.22
16:15:18.140625,5.49
16:15:18.156250,5.45
16:15:18.171875,5.15
16:15:18.187500,4.72
16:15:18.203125,4.26
16:15:18.218750,3.75
16:15:18.234375,3.10
16:15:18.250000,2.25
16:15:18.265625,1.21
16:15:18.281250,0.12
16:15:18.296875,-0.83
16:15:18.312500,-1.53
16:15:18.328125,-2.02
16:15:18.343750,-2.41
16:15:18.359375,-2.89
16:15:18.375000,-3.56
16:15:18.390625,-4.38
16:15:18.406250,-5.20
16:15:18.421875,-5.85
16:15:18.437500,-6.24
16:15:18.453125,-6.43
16:15:18.468750,-6.58
16:15:18.484375,-6.90
16:15:18.500000,-7.54
16:15:18.515625,-8.52
16:15:18.531250,-9.76
16:15:18.546875,-11.09
16:15:18.562500,-12.34
16:15:18.578125,-13.38
16:15:18.593750,-14.09
16:15:18.609375,-14.33
16:15:18.625000,-13.95
16:15:18.640625,-12.78
16:15:18.656250,-10.78
16:15:18.671875,-8.06
16:15:18.687500,-4.89
16:15:18.703125,-1.65
16:15:18.718750,1.34
16:15:18.734375,3.84
16:15:18.750000,5.81
16:15:18.765625,7.30
16:15:18.781250,8.40
16:15:18.796875,9.15
16:15:18.812500,9.56
16:15:18.828125,9.60
16:15:18.843750,9.29
16:15:18.859375,8.73
16:15:18.875000,8.05
16:15:18.890625,7.41
16:15:18.906250,6.94
16:15:18.921875,6.69
16:15:18.937500,6.63
16:15:18.953125,6.68
16:15:18.968750,6.72
16:15:18.984375,6.67
16:15:19,6.51
16:15:19.015625,6.27
16:15:19.031250,5.99
16:15:19.046875,5.70
16:15:19.062500,5.41
16:15:19.078125,5.06
16:15:19.093750,4.62
16:15:19.109375,4.09
16:15:19.125000,3.54
16:15:19.140625,3.04
16:15:19.156250,2.68
16:15:19.171875,2.48
16:15:19.187500,2.34
16:15:19.203125,2.13
16:15:19.218750,1.67
16:15:19.234375,0.87
16:15:19.250000,-0.30
16:15:19.265625,-1.72
16:15:19.281250,-3.18
16:15:19.296875,-4.46
16:15:19.312500,-5.39
16:15:19.328125,-5.91
16:15:19.343750,-6.10
16:15:19.359375,-6.19
16:15:19.375000,-6.40
16:15:19.390625,-6.96
16:15:19.406250,-7.91
16:15:19.421875,-9.13
16:15:19.437500,-10.38
16:15:19.453125,-11.36
16:15:19.468750,-11.78
16:15:19.484375,-11.49
16:15:19.500000,-10.44
16:15:19.515625,-8.75
16:15:19.531250,-6.61
16:15:19.546875,-4.27
16:15:19.562500,-1.96
16:15:19.578125,0.14
16:15:19.593750,1.92
16:15:19.609375,3.34
16:15:19.625000,4.40
16:15:19.640625,5.15
16:15:19.656250,5.61
16:15:19.671875,5.84
16:15:19.687500,5.91
16:15:19.703125,5.90
16:15:19.718750,5.93
16:15:19.734375,5.97
16:15:19.750000,5.94
16:15:19.765625,5.71
16:15:19.781250,5.17
16:15:19.796875,4.27
16:15:19.812500,3.12
16:15:19.828125,1.99
16:15:19.843750,1.18
16:15:19.859375,0.95
16:15:19.875000,1.29
16:15:19.890625,2.03
16:15:19.906250,2.85
16:15:19.921875,3.42
16:15:19.937500,3.50
16:15:19.953125,2.94
16:15:19.968750,1.88
16:15:19.984375,0.60
16:15:20,-0.53
16:15:20.015625,-1.36
16:15:20.031250,-1.87
16:15:20.046875,-2.15
16:15:20.062500,-2.37
16:15:20.078125,-2.82
16:15:20.093750,-3.75
16:15:20.109375,-5.18
16:15:20.125000,-6.85
16:15:20.140625,-8.30
16:15:20.156250,-9.25
16:15:20.171875,-9.50
16:15:20.187500,-9.00
16:15:20.203125,-7.83
16:15:20.218750,-6.31
16:15:20.234375,-4.81
16:15:20.250000,-3.46
16:15:20.265625,-2.05
16:15:20.281250,-0.15
16:15:20.296875,2.43
16:15:20.312500,5.91
16:15:20.328125,10.46
16:15:20.343750,16.08
16:15:20.359375,22.43
16:15:20.375000,28.11
16:15:20.390625,31.21
16:15:20.406250,30.09
16:15:20.421875,25.79
16:15:20.437500,19.37
16:15:20.453125,11.92
16:15:20.468750,4.19
16:15:20.484375,-2.70
16:15:20.500000,-7.84
16:15:20.515625,-10.91
16:15:20.531250,-12.07
16:15:20.546875,-11.77
16:15:20.562500,-10.53
16:15:20.578125,-9.03
16:15:20.593750,-7.64
16:15:20.609375,-6.54
16:15:20.625000,-5.73
16:15:20.640625,-5.33
16:15:20.656250,-5.53
16:15:20.671875,-6.31
16:15:20.687500,-7.41
16:15:20.703125,-8.44
16:15:20.718750,-9.21
16:15:20.734375,-9.55
16:15:20.750000,-9.43
16:15:20.765625,-8.90
16:15:20.781250,-8.18
16:15:20.796875,-7.60
16:15:20.812500,-7.34
16:15:20.828125,-7.34
16:15:20.843750,-7.33
16:15:20.859375,-7.08
16:15:20.875000,-6.42
16:15:20.890625,-5.37
16:15:20.906250,-4.12
16:15:20.921875,-3.02
16:15:20.937500,-2.36
16:15:20.953125,-2.13
16:15:20.968750,-2.03
16:15:20.984375,-1.63
16:15:21,-0.66
16:15:21.015625,0.93
16:15:21.031250,2.90
16:15:21.046875,4.89
16:15:21.062500,6.54
16:15:21.078125,7.56
16:15:21.093750,7.86
16:15:21.109375,7.46
16:15:21.125000,6.43
16:15:21.140625,4.91
16:15:21.156250,3.12
16:15:21.171875,1.38
16:15:21.187500,0.05
16:15:21.203125,-0.60
16:15:21.218750,-0.52
16:15:21.234375,0.16
16:15:21.250000,1.13
16:15:21.265625,2.07
16:15:21.281250,2.75
16:15:21.296875,3.10
16:15:21.312500,3.16
16:15:21.328125,3.07
16:15:21.343750,2.95
16:15:21.359375,2.86
16:15:21.375000,2.82
16:15:21.390625,2.80
16:15:21.406250,2.80
16:15:21.421875,2.84
16:15:21.437500,3.01
16:15:21.453125,3.41
16:15:21.468750,4.11
16:15:21.484375,5.06
16:15:21.500000,6.09
16:15:21.515625,6.99
16:15:21.531250,7.56
16:15:21.546875,7.72
16:15:21.562500,7.51
16:15:21.578125,7.03
16:15:21.593750,6.37
16:15:21.609375,5.57
16:15:21.625000,4.64
16:15:21.640625,3.62
16:15:21.656250,2.58
16:15:21.671875,1.63
16:15:21.687500,0.87
16:15:21.703125,0.30
16:15:21.718750,-0.16
16:15:21.734375,-0.60
16:15:21.750000,-1.13
16:15:21.765625,-1.77
16:15:21.781250,-2.53
16:15:21.796875,-3.35
16:15:21.812500,-4.16
16:15:21.828125,-4.86
16:15:21.843750,-5.36
16:15:21.859375,-5.62
16:15:21.875000,-5.70
16:15:21.890625,-5.77
16:15:21.906250,-6.07
16:15:21.921875,-6.78
16:15:21.937500,-7.97
16:15:21.953125,-9.50
16:15:21.968750,-11.08
16:15:21.984375,-12.33
16:15:22,-12.96
16:15:22.015625,-12.80
16:15:22.031250,-11.88
16:15:22.046875,-10.36
16:15:22.062500,-8.47
16:15:22.078125,-6.48
16:15:22.093750,-4.60
16:15:22.109375,-3.01
16:15:22.125000,-1.79
16:15:22.140625,-0.95
16:15:22.156250,-0.43
16:15:22.171875,-0.14
16:15:22.187500,0.02
16:15:22.203125,0.13
16:15:22.218750,0.18
16:15:22.234375,0.18
16:15:22.250000,0.10
16:15:22.265625,-0.01
16:15:22.281250,-0.04
16:15:22.296875,0.14
16:15:22.312500,0.66
16:15:22.328125,1.55
16:15:22.343750,2.75
16:15:22.359375,4.08
16:15:22.375000,5.29
16:15:22.390625,6.23
16:15:22.406250,6.82
16:15:22.421875,7.14
16:15:22.437500,7.33
16:15:22.453125,7.53
16:15:22.468750,7.76
16:15:22.484375,7.91
16:15:22.500000,7.81
16:15:22.515625,7.32
16:15:22.531250,6.44
16:15:22.546875,5.29
16:15:22.562500,4.07
16:15:22.578125,2.94
16:15:22.593750,1.98
16:15:22.609375,1.24
16:15:22.625000,0.73
16:15:22.640625,0.49
16:15:22.656250,0.57
16:15:22.671875,0.97
16:15:22.687500,1.57
16:15:22.703125,2.17
16:15:22.718750,2.61
16:15:22.734375,2.72
16:15:22.750000,2.45
16:15:22.765625,1.87
16:15:22.781250,1.07
16:15:22.796875,0.20
16:15:22.812500,-0.57
16:15:22.828125,-1.06
16:15:22.843750,-1.09
16:15:22.859375,-0.53
16:15:22.875000,0.63
16:15:22.890625,2.37
16:15:22.906250,4.61
16:15:22.921875,7.26
16:15:22.937500,10.17
16:15:22.953125,13.11
16:15:22.968750,15.78
16:15:22.984375,17.85
16:15:23,19.09
16:15:23.015625,19.41
16:15:23.031250,18.93
16:15:23.046875,17.89
16:15:23.062500,16.57
16:15:23.078125,15.18
16:15:23.093750,13.79
16:15:23.109375,12.45
16:15:23.125000,11.11
16:15:23.140625,9.75
16:15:23.156250,8.29
16:15:23.171875,6.67
16:15:23.187500,4.88
16:15:23.203125,2.94
16:15:23.218750,0.97
16:15:23.234375,-0.99
16:15:23.250000,-2.88
16:15:23.265625,-4.71
16:15:23.281250,-6.47
16:15:23.296875,-8.28
16:15:23.312500,-10.20
16:15:23.328125,-12.13
16:15:23.343750,-13.87
16:15:23.359375,-15.17
16:15:23.375000,-15.86
16:15:23.390625,-15.89
16:15:23.406250,-15.36
16:15:23.421875,-14.49
16:15:23.437500,-13.77
16:15:23.453125,-13.61
16:15:23.468750,-14.09
16:15:23.484375,-14.95
16:15:23.500000,-15.74
16:15:23.515625,-16.16
16:15:23.531250,-16.22
16:15:23.546875,-16.19
16:15:23.562500,-16.44
16:15:23.578125,-17.47
16:15:23.593750,-19.41
16:15:23.609375,-21.92
16:15:23.625000,-24.41
16:15:23.640625,-26.32
16:15:23.656250,-27.49
16:15:23.671875,-27.95
16:15:23.687500,-27.76
16:15:23.703125,-25.24
16:15:23.718750,-19.53
16:15:23.734375,-11.26
16:15:23.750000,-2.45
16:15:23.765625,4.69
16:15:23.781250,8.92
16:15:23.796875,10.12
16:15:23.812500,9.08
16:15:23.828125,7.00
16:15:23.843750,5.00
16:15:23.859375,3.48
16:15:23.875000,2.46
16:15:23.890625,1.78
16:15:23.906250,1.18
16:15:23.921875,0.89
16:15:23.937500,1.13
16:15:23.953125,1.96
16:15:23.968750,3.28
16:15:23.984375,4.84
16:15:24,6.13
16:15:24.015625,6.76
16:15:24.031250,6.65
16:15:24.046875,6.03
16:15:24.062500,5.31
16:15:24.078125,4.77
16:15:24.093750,4.52
16:15:24.109375,4.46
16:15:24.125000,4.41
16:15:24.140625,4.08
16:15:24.156250,3.33
16:15:24.171875,2.24
16:15:24.187500,1.13
16:15:24.203125,0.32
16:15:24.218750,-0.04
16:15:24.234375,-0.00
16:15:24.250000,0.24
16:15:24.265625,0.51
16:15:24.281250,0.61
16:15:24.296875,0.49
16:15:24.312500,0.18
16:15:24.328125,-0.22
16:15:24.343750,-0.62
16:15:24.359375,-0.97
16:15:24.375000,-1.19
16:15:24.390625,-1.15
16:15:24.406250,-0.65
16:15:24.421875,0.43
16:15:24.437500,2.04
16:15:24.453125,3.98
16:15:24.468750,5.92
16:15:24.484375,7.53
16:15:24.500000,8.56
16:15:24.515625,8.91
16:15:24.531250,8.64
16:15:24.546875,7.91
16:15:24.562500,6.93
16:15:24.578125,5.86
16:15:24.593750,4.81
16:15:24.609375,3.83
16:15:24.625000,2.96
16:15:24.640625,2.17
16:15:24.656250,1.46
16:15:24.671875,0.80
16:15:24.687500,0.20
16:15:24.703125,-0.36
16:15:24.718750,-0.86
16:15:24.734375,-1.30
16:15:24.750000,-1.68
16:15:24.765625,-1.98
16:15:24.781250,-2.23
16:15:24.796875,-2.41
16:15:24.812500,-2.51
16:15:24.828125,-2.54
16:15:24.843750,-2.46
16:15:24.859375,-2.27
16:15:24.875000,-1.98
16:15:24.890625,-1.61
16:15:24.906250,-1.20
16:15:24.921875,-0.81
16:15:24.937500,-0.47
16:15:24.953125,-0.21
16:15:24.968750,-0.00
16:15:24.984375,0.19
16:15:25,0.45
16:15:25.015625,0.90
16:15:25.031250,1.64
16:15:25.046875,2.75
16:15:25.062500,4.24
16:15:25.078125,6.04
16:15:25.093750,7.96
16:15:25.109375,9.73
16:15:25.125000,11.05
16:15:25.140625,11.64
16:15:25.156250,11.32
16:15:25.171875,10.05
16:15:25.187500,7.99
16:15:25.203125,5.48
16:15:25.218750,2.91
16:15:25.234375,0.65
16:15:25.250000,-1.07
16:15:25.265625,-2.21
16:15:25.281250,-2.87
16:15:25.296875,-3.23
16:15:25.312500,-3.42
16:15:25.328125,-3.54
16:15:25.343750,-3.63
16:15:25.359375,-3.73
16:15:25.375000,-3.87
16:15:25.390625,-4.08
16:15:25.406250,-4.33
16:15:25.421875,-4.54
16:15:25.437500,-4.61
16:15:25.453125,-4.48
16:15:25.468750,-4.15
16:15:25.484375,-3.63
16:15:25.500000,-2.95
16:15:25.515625,-2.04
16:15:25.531250,-0.79
16:15:25.546875,0.95
16:15:25.562500,3.21
16:15:25.578125,5.89
16:15:25.593750,8.72
16:15:25.609375,11.33
16:15:25.625000,13.35
16:15:25.640625,14.56
16:15:25.656250,14.87
16:15:25.671875,14.36
16:15:25.687500,13.21
16:15:25.703125,11.63
16:15:25.718750,9.80
16:15:25.734375,7.85
16:15:25.750000,5.86
16:15:25.765625,3.87
16:15:25.781250,1.92
16:15:25.796875,0.02
16:15:25.812500,-1.89
16:15:25.828125,-3.87
16:15:25.843750,-5.97
16:15:25.859375,-8.19
16:15:25.875000,-10.45
16:15:25.890625,-12.60
16:15:25.906250,-14.43
16:15:25.921875,-15.79
16:15:25.937500,-16.60
16:15:25.953125,-16.84
16:15:25.968750,-16.59
16:15:25.984375,-15.88
16:15:26,-14.70
16:15:26.015625,-12.96
16:15:26.031250,-10.56
16:15:26.046875,-7.47
16:15:26.062500,-3.80
16:15:26.078125,0.25
16:15:26.093750,4.33
16:15:26.109375,8.10
16:15:26.125000,11.24
16:15:26.140625,13.54
16:15:26.156250,14.93
16:15:26.171875,15.43
16:15:26.187500,15.15
16:15:26.203125,14.24
16:15:26.218750,12.86
16:15:26.234375,11.16
16:15:26.250000,9.28
16:15:26.265625,7.37
16:15:26.281250,5.54
16:15:26.296875,3.89
16:15:26.312500,2.45
16:15:26.328125,1.21
16:15:26.343750,0.13
16:15:26.359375,-0.84
16:15:26.375000,-1.66
16:15:26.390625,-2.30
16:15:26.406250,-2.66
16:15:26.421875,-2.72
16:15:26.437500,-2.48
16:15:26.453125,-2.00
16:15:26.468750,-1.35
16:15:26.484375,-0.63
16:15:26.500000,0.08
16:15:26.515625,0.71
16:15:26.531250,1.19
16:15:26.546875,1.49
16:15:26.562500,1.62
16:15:26.578125,1.67
16:15:26.593750,1.77
16:15:26.609375,2.03
16:15:26.625000,2.48
16:15:26.640625,3.03
16:15:26.656250,3.49
16:15:26.671875,3.64
16:15:26.687500,3.33
16:15:26.703125,2.49
16:15:26.718750,1.14
16:15:26.734375,-0.64
16:15:26.750000,-2.76
16:15:26.765625,-5.13
16:15:26.781250,-7.67
16:15:26.796875,-10.20
16:15:26.812500,-12.46
16:15:26.828125,-14.16
16:15:26.843750,-14.99
16:15:26.859375,-14.81
16:15:26.875000,-13.63
16:15:26.890625,-11.64
16:15:26.906250,-9.14
16:15:26.921875,-6.37
16:15:26.937500,-3.56
16:15:26.953125,-0.80
16:15:26.968750,1.81
16:15:26.984375,4.19
16:15:27,6.16
16:15:27.015625,7.58
16:15:27.031250,8.38
16:15:27.046875,8.64
16:15:27.062500,8.59
16:15:27.078125,8.56
16:15:27.093750,8.75
16:15:27.109375,9.21
16:15:27.125000,9.77
16:15:27.140625,10.16
16:15:27.156250,10.15
16:15:27.171875,9.70
16:15:27.187500,8.94
16:15:27.203125,8.08
16:15:27.218750,7.30
16:15:27.234375,6.62
16:15:27.250000,5.98
16:15:27.265625,5.30
16:15:27.281250,4.56
16:15:27.296875,3.82
16:15:27.312500,3.19
16:15:27.328125,2.69
16:15:27.343750,2.29
16:15:27.359375,1.86
16:15:27.375000,1.30
16:15:27.390625,0.55
16:15:27.406250,-0.35
16:15:27.421875,-1.31
16:15:27.437500,-2.24
16:15:27.453125,-3.13
16:15:27.468750,-4.02
16:15:27.484375,-4.97
16:15:27.500000,-6.07
16:15:27.515625,-7.32
16:15:27.531250,-8.67
16:15:27.546875,-9.98
16:15:27.562500,-11.10
16:15:27.578125,-11.84
16:15:27.593750,-12.08
16:15:27.609375,-11.74
16:15:27.625000,-10.82
16:15:27.640625,-9.37
16:15:27.656250,-7.56
16:15:27.671875,-5.58
16:15:27.687500,-3.70
16:15:27.703125,-2.13
16:15:27.718750,-0.98
16:15:27.734375,-0.21
16:15:27.750000,0.33
16:15:27.765625,0.80
16:15:27.781250,1.32
16:15:27.796875,1.91
16:15:27.812500,2.53
16:15:27.828125,3.12
16:15:27.843750,3.66
16:15:27.859375,4.15
16:15:27.875000,4.58
16:15:27.890625,4.88
16:15:27.906250,4.94
16:15:27.921875,4.68
16:15:27.937500,4.06
16:15:27.953125,3.14
16:15:27.968750,2.06
16:15:27.984375,0.97
16:15:28,0.02
16:15:28.015625,-0.70
16:15:28.031250,-1.13
16:15:28.046875,-1.28
16:15:28.062500,-1.17
16:15:28.078125,-0.84
16:15:28.093750,-0.33
16:15:28.109375,0.30
16:15:28.125000,0.98
16:15:28.140625,1.57
16:15:28.156250,1.88
16:15:28.171875,1.72
16:15:28.187500,0.94
16:15:28.203125,-0.44
16:15:28.218750,-2.21
16:15:28.234375,-4.07
16:15:28.250000,-5.72
16:15:28.265625,-6.99
16:15:28.281250,-7.91
16:15:28.296875,-8.61
16:15:28.312500,-9.22
16:15:28.328125,-9.75
16:15:28.343750,-10.11
16:15:28.359375,-10.16
16:15:28.375000,-9.82
16:15:28.390625,-9.10
16:15:28.406250,-8.07
16:15:28.421875,-6.83
16:15:28.437500,-5.42
16:15:28.453125,-3.87
16:15:28.468750,-2.21
16:15:28.484375,-0.51
16:15:28.500000,1.13
16:15:28.515625,2.62
16:15:28.531250,3.91
16:15:28.546875,5.01
16:15:28.562500,5.94
16:15:28.578125,6.73
16:15:28.593750,7.39
16:15:28.609375,7.89
16:15:28.625000,8.20
16:15:28.640625,8.25
16:15:28.656250,7.96
16:15:28.671875,7.27
16:15:28.687500,6.15
16:15:28.703125,4.68
16:15:28.718750,3.00
16:15:28.734375,1.28
16:15:28.750000,-0.29
16:15:28.765625,-1.58
16:15:28.781250,-2.46
16:15:28.796875,-2.83
16:15:28.812500,-2.61
16:15:28.828125,-1.76
16:15:28.843750,-0.40
16:15:28.859375,1.22
16:15:28.875000,2.69
16:15:28.890625,3.65
16:15:28.906250,3.83
16:15:28.921875,3.16
16:15:28.937500,1.78
16:15:28.953125,-0.10
16:15:28.968750,-2.18
16:15:28.984375,-4.26
16:15:29,-6.15
16:15:29.015625,-7.74
16:15:29.031250,-8.97
16:15:29.046875,-9.79
16:15:29.062500,-10.21
16:15:29.078125,-10.24
16:15:29.093750,-9.92
16:15:29.109375,-9.29
16:15:29.125000,-8.40
16:15:29.140625,-7.31
16:15:29.156250,-6.09
16:15:29.171875,-4.81
16:15:29.187500,-3.52
16:15:29.203125,-2.29
16:15:29.218750,-1.16
16:15:29.234375,-0.16
16:15:29.250000,0.68
16:15:29.265625,1.36
16:15:29.281250,1.94
16:15:29.296875,2.50
16:15:29.312500,3.08
16:15:29.328125,3.73
16:15:29.343750,4.41
16:15:29.359375,5.05
16:15:29.375000,5.53
16:15:29.390625,5.76
16:15:29.406250,5.67
16:15:29.421875,5.23
16:15:29.437500,4.44
16:15:29.453125,3.35
16:15:29.468750,2.08
16:15:29.484375,0.79
16:15:29.500000,-0.31
16:15:29.515625,-1.06
16:15:29.531250,-1.35
16:15:29.546875,-1.13
16:15:29.562500,-0.44
16:15:29.578125,0.66
16:15:29.593750,2.04
16:15:29.609375,3.51
16:15:29.625000,4.86
16:15:29.640625,5.85
16:15:29.656250,6.26
16:15:29.671875,6.04
16:15:29.687500,5.25
16:15:29.703125,4.11
16:15:29.718750,2.85
16:15:29.734375,1.65
16:15:29.750000,0.57
16:15:29.765625,-0.41
16:15:29.781250,-1.35
16:15:29.796875,-2.24
16:15:29.812500,-3.03
16:15:29.828125,-3.67
16:15:29.843750,-4.11
16:15:29.859375,-4.36
16:15:29.875000,-4.48
16:15:29.890625,-4.50
16:15:29.906250,-4.41
16:15:29.921875,-4.17
16:15:29.937500,-3.69
16:15:29.953125,-2.94
16:15:29.968750,-1.97
16:15:29.984375,-0.87
16:15:30,0.26
16:15:30.015625,1.37
16:15:30.031250,2.49
16:15:30.046875,3.71
16:15:30.062500,5.08
16:15:30.078125,6.57
16:15:30.093750,8.01
16:15:30.109375,9.17
16:15:30.125000,9.83
16:15:30.140625,9.86
16:15:30.156250,9.26
16:15:30.171875,8.14
16:15:30.187500,6.69
16:15:30.203125,5.09
16:15:30.218750,3.51
16:15:30.234375,2.06
16:15:30.250000,0.88
16:15:30.265625,0.09
16:15:30.281250,-0.25
16:15:30.296875,-0.08
16:15:30.312500,0.58
16:15:30.328125,1.63
16:15:30.343750,2.89
16:15:30.359375,4.15
16:15:30.375000,5.15
16:15:30.390625,5.66
16:15:30.406250,5.56
16:15:30.421875,4.82
16:15:30.437500,3.54
16:15:30.453125,1.93
16:15:30.468750,0.15
16:15:30.484375,-1.64
16:15:30.500000,-3.33
16:15:30.515625,-4.81
16:15:30.531250,-5.95
16:15:30.546875,-6.58
16:15:30.562500,-6.65
16:15:30.578125,-6.17
16:15:30.593750,-5.40
16:15:30.609375,-4.65
16:15:30.625000,-4.25
16:15:30.640625,-4.34
16:15:30.656250,-4.86
16:15:30.671875,-5.53
16:15:30.687500,-6.04
16:15:30.703125,-6.19
16:15:30.718750,-5.93
16:15:30.734375,-5.34
16:15:30.750000,-4.52
16:15:30.765625,-3.51
16:15:30.781250,-2.27
16:15:30.796875,-0.72
16:15:30.812500,1.11
16:15:30.828125,3.12
16:15:30.843750,5.09
16:15:30.859375,6.80
16:15:30.875000,8.07
16:15:30.890625,8.80
16:15:30.906250,8.96
16:15:30.921875,8.58
16:15:30.937500,7.67
16:15:30.953125,6.30
16:15:30.968750,4.57
16:15:30.984375,2.67
16:15:31,0.89
16:15:31.015625,-0.50
16:15:31.031250,-1.24
16:15:31.046875,-1.19
16:15:31.062500,-0.37
16:15:31.078125,1.04
16:15:31.093750,2.72
16:15:31.109375,4.30
16:15:31.125000,5.42
16:15:31.140625,5.85
16:15:31.156250,5.50
16:15:31.171875,4.46
16:15:31.187500,2.93
16:15:31.203125,1.14
16:15:31.218750,-0.66
16:15:31.234375,-2.29
16:15:31.250000,-3.63
16:15:31.265625,-4.61
16:15:31.281250,-5.22
16:15:31.296875,-5.46
16:15:31.312500,-5.35
16:15:31.328125,-4.96
16:15:31.343750,-4.39
16:15:31.359375,-3.77
16:15:31.375000,-3.31
16:15:31.390625,-3.21
16:15:31.406250,-3.62
16:15:31.421875,-4.58
16:15:31.437500,-5.94
16:15:31.453125,-7.42
16:15:31.468750,-8.64
16:15:31.484375,-9.27
16:15:31.500000,-9.08
16:15:31.515625,-8.08
16:15:31.531250,-6.40
16:15:31.546875,-4.30
16:15:31.562500,-2.00
16:15:31.578125,0.29
16:15:31.593750,2.41
16:15:31.609375,4.21
16:15:31.625000,5.52
16:15:31.640625,6.20
16:15:31.656250,6.20
16:15:31.671875,5.60
16:15:31.687500,4.60
16:15:31.703125,3.45
16:15:31.718750,2.37
16:15:31.734375,1.48
16:15:31.750000,0.82
16:15:31.765625,0.38
16:15:31.781250,0.18
16:15:31.796875,0.26
16:15:31.812500,0.69
16:15:31.828125,1.43
16:15:31.843750,2.38
16:15:31.859375,3.32
16:15:31.875000,4.05
16:15:31.890625,4.38
16:15:31.906250,4.22
16:15:31.921875,3.61
16:15:31.937500,2.64
16:15:31.953125,1.47
16:15:31.968750,0.30
16:15:31.984375,-0.73
16:15:32,-1.51
16:15:32.015625,-2.01
16:15:32.031250,-2.24
16:15:32.046875,-2.29
16:15:32.062500,-2.21
16:15:32.078125,-2.09
16:15:32.093750,-2.00
16:15:32.109375,-2.01
16:15:32.125000,-2.23
16:15:32.140625,-2.75
16:15:32.156250,-3.62
16:15:32.171875,-4.84
16:15:32.187500,-6.31
16:15:32.203125,-7.87
16:15:32.218750,-9.28
16:15:32.234375,-10.33
16:15:32.250000,-10.78
16:15:32.265625,-10.49
16:15:32.281250,-9.38
16:15:32.296875,-7.55
16:15:32.312500,-5.22
16:15:32.328125,-2.74
16:15:32.343750,-0.44
16:15:32.359375,1.40
16:15:32.375000,2.68
16:15:32.390625,3.45
16:15:32.406250,3.87
16:15:32.421875,4.08
16:15:32.437500,4.16
16:15:32.453125,4.07
16:15:32.468750,3.73
16:15:32.484375,3.13
16:15:32.500000,2.38
16:15:32.515625,1.73
16:15:32.531250,1.50
16:15:32.546875,1.94
16:15:32.562500,3.11
16:15:32.578125,4.82
16:15:32.593750,6.73
16:15:32.609375,8.45
16:15:32.625000,9.72
16:15:32.640625,10.48
16:15:32.656250,10.97
16:15:32.671875,11.62
16:15:32.687500,12.94
16:15:32.703125,15.37
16:15:32.718750,19.18
16:15:32.734375,24.32
16:15:32.750000,30.38
16:15:32.765625,36.62
16:15:32.781250,42.12
16:15:32.796875,45.96
16:15:32.812500,47.52
16:15:32.828125,46.61
16:15:32.843750,43.53
16:15:32.859375,38.98
16:15:32.875000,33.79
16:15:32.890625,28.62
16:15:32.906250,23.83
16:15:32.921875,19.38
16:15:32.937500,14.95
16:15:32.953125,10.14
16:15:32.968750,4.67
16:15:32.984375,-1.56
16:15:33,-8.46
16:15:33.015625,-15.83
16:15:33.031250,-23.43
16:15:33.046875,-31.04
16:15:33.062500,-38.44
16:15:33.078125,-45.36
16:15:33.093750,-51.44
16:15:33.109375,-56.27
16:15:33.125000,-59.62
16:15:33.140625,-61.47
16:15:33.156250,-62.07
16:15:33.171875,-61.82
16:15:33.187500,-61.13
16:15:33.203125,-60.26
16:15:33.218750,-59.25
16:15:33.234375,-57.82
16:15:33.250000,-55.61
16:15:33.265625,-52.43
16:15:33.281250,-48.36
16:15:33.296875,-43.69
16:15:33.312500,-38.87
16:15:33.328125,-34.28
16:15:33.343750,-30.21
16:15:33.359375,-26.83
16:15:33.375000,-23.86
16:15:33.390625,-20.98
16:15:33.406250,-17.99
16:15:33.421875,-14.92
16:15:33.437500,-11.91
16:15:33.453125,-9.09
16:15:33.468750,-6.42
16:15:33.484375,-3.81
16:15:33.500000,-1.13
16:15:33.515625,2.13
16:15:33.531250,6.29
16:15:33.546875,11.32
16:15:33.562500,16.82
16:15:33.578125,22.30
16:15:33.593750,27.46
16:15:33.609375,32.32
16:15:33.625000,37.07
16:15:33.640625,41.88
16:15:33.656250,47.35
16:15:33.671875,53.80
16:15:33.687500,61.11
16:15:33.703125,68.70
16:15:33.718750,75.88
16:15:33.734375,82.19
16:15:33.750000,87.50
16:15:33.765625,91.84
16:15:33.781250,92.26
16:15:33.796875,86.87
16:15:33.812500,75.64
16:15:33.828125,60.79
16:15:33.843750,45.36
16:15:33.859375,31.56
16:15:33.875000,20.25
16:15:33.890625,11.37
16:15:33.906250,4.81
16:15:33.921875,-0.52
16:15:33.937500,-4.85
16:15:33.953125,-8.19
16:15:33.968750,-10.65
16:15:33.984375,-12.60
16:15:34,-14.52
16:15:34.015625,-16.72
16:15:34.031250,-18.96
16:15:34.046875,-20.94
16:15:34.062500,-22.53
16:15:34.078125,-23.32
16:15:34.093750,-23.16
16:15:34.109375,-22.20
16:15:34.125000,-20.87
16:15:34.140625,-19.61
16:15:34.156250,-18.67
16:15:34.171875,-18.09
16:15:34.187500,-17.86
16:15:34.203125,-18.03
16:15:34.218750,-18.27
16:15:34.234375,-18.29
16:15:34.250000,-17.91
16:15:34.265625,-17.15
16:15:34.281250,-16.18
16:15:34.296875,-15.17
16:15:34.312500,-14.25
16:15:34.328125,-13.52
16:15:34.343750,-13.03
16:15:34.359375,-12.58
16:15:34.375000,-11.99
16:15:34.390625,-11.19
16:15:34.406250,-10.23
16:15:34.421875,-9.22
16:15:34.437500,-8.25
16:15:34.453125,-7.39
16:15:34.468750,-6.67
16:15:34.484375,-6.16
16:15:34.500000,-5.84
16:15:34.515625,-5.68
16:15:34.531250,-5.64
16:15:34.546875,-5.68
16:15:34.562500,-5.74
16:15:34.578125,-5.74
16:15:34.593750,-5.62
16:15:34.609375,-5.33
16:15:34.625000,-4.90
16:15:34.640625,-4.40
16:15:34.656250,-3.92
16:15:34.671875,-3.58
16:15:34.687500,-3.47
16:15:34.703125,-3.65
16:15:34.718750,-4.10
16:15:34.734375,-4.73
16:15:34.750000,-5.45
16:15:34.765625,-6.11
16:15:34.781250,-6.61
16:15:34.796875,-6.87
16:15:34.812500,-6.91
16:15:34.828125,-6.80
16:15:34.843750,-6.64
16:15:34.859375,-6.54
16:15:34.875000,-6.60
16:15:34.890625,-6.85
16:15:34.906250,-7.24
16:15:34.921875,-7.66
16:15:34.937500,-7.92
16:15:34.953125,-7.82
16:15:34.968750,-7.18
16:15:34.984375,-5.95
16:15:35,-4.22
16:15:35.015625,-2.23
16:15:35.031250,-0.27
16:15:35.046875,1.43
16:15:35.062500,2.73
16:15:35.078125,3.62
16:15:35.093750,4.20
16:15:35.109375,4.56
16:15:35.125000,4.72
16:15:35.140625,4.67
16:15:35.156250,4.39
16:15:35.171875,3.91
16:15:35.187500,3.37
16:15:35.203125,2.91
16:15:35.218750,2.68
16:15:35.234375,2.75
16:15:35.250000,3.09
16:15:35.265625,3.55
16:15:35.281250,3.99
16:15:35.296875,4.28
16:15:35.312500,4.40
16:15:35.328125,4.34
16:15:35.343750,4.16
16:15:35.359375,3.88
16:15:35.375000,3.53
16:15:35.390625,3.11
16:15:35.406250,2.64
16:15:35.421875,2.13
16:15:35.437500,1.61
16:15:35.453125,1.13
16:15:35.468750,0.70
16:15:35.484375,0.36
16:15:35.500000,0.10
16:15:35.515625,-0.09
16:15:35.531250,-0.24
16:15:35.546875,-0.37
16:15:35.562500,-0.50
16:15:35.578125,-0.65
16:15:35.593750,-0.82
16:15:35.609375,-1.03
16:15:35.625000,-1.30
16:15:35.640625,-1.64
16:15:35.656250,-2.06
16:15:35.671875,-2.60
16:15:35.687500,-3.26
16:15:35.703125,-4.03
16:15:35.718750,-4.81
16:15:35.734375,-5.43
16:15:35.750000,-5.66
16:15:35.765625,-5.29
16:15:35.781250,-4.26
16:15:35.796875,-2.65
16:15:35.812500,-0.74
16:15:35.828125,1.17
16:15:35.843750,2.83
16:15:35.859375,4.14
16:15:35.875000,5.14
16:15:35.890625,5.92
16:15:35.906250,6.55
16:15:35.921875,7.01
16:15:35.937500,7.21
16:15:35.953125,7.07
16:15:35.968750,6.64
16:15:35.984375,6.07
16:15:36,5.56
16:15:36.015625,5.31
16:15:36.031250,5.40
16:15:36.046875,5.75
16:15:36.062500,6.19
16:15:36.078125,6.50
16:15:36.093750,6.51
16:15:36.109375,6.21
16:15:36.125000,5.70
16:15:36.140625,5.13
16:15:36.156250,4.68
16:15:36.171875,4.43
16:15:36.187500,4.39
16:15:36.203125,4.44
16:15:36.218750,4.47
16:15:36.234375,4.36
16:15:36.250000,4.07
16:15:36.265625,3.60
16:15:36.281250,3.01
16:15:36.296875,2.33
16:15:36.312500,1.60
16:15:36.328125,0.80
16:15:36.343750,-0.05
16:15:36.359375,-0.94
16:15:36.375000,-1.80
16:15:36.390625,-2.54
16:15:36.406250,-3.09
16:15:36.421875,-3.45
16:15:36.437500,-3.70
16:15:36.453125,-3.98
16:15:36.468750,-4.43
16:15:36.484375,-5.10
16:15:36.500000,-5.99
16:15:36.515625,-6.97
16:15:36.531250,-7.87
16:15:36.546875,-8.52
16:15:36.562500,-8.77
16:15:36.578125,-8.53
16:15:36.593750,-7.81
16:15:36.609375,-6.67
16:15:36.625000,-5.24
16:15:36.640625,-3.66
16:15:36.656250,-2.11
16:15:36.671875,-0.71
16:15:36.687500,0.45
16:15:36.703125,1.37
16:15:36.718750,2.10
16:15:36.734375,2.71
16:15:36.750000,3.25
16:15:36.765625,3.71
16:15:36.781250,4.03
16:15:36.796875,4.15
16:15:36.812500,4.00
16:15:36.828125,3.60
16:15:36.843750,3.08
16:15:36.859375,2.58
16:15:36.875000,2.25
16:15:36.890625,2.16
16:15:36.906250,2.29
16:15:36.921875,2.57
16:15:36.937500,2.90
16:15:36.953125,3.16
16:15:36.968750,3.27
16:15:36.984375,3.17
16:15:37,2.84
16:15:37.015625,2.31
16:15:37.031250,1.71
16:15:37.046875,1.19
16:15:37.062500,0.89
16:15:37.078125,0.86
16:15:37.093750,1.09
16:15:37.109375,1.48
16:15:37.125000,1.90
16:15:37.140625,2.24
16:15:37.156250,2.41
16:15:37.171875,2.38
16:15:37.187500,2.12
16:15:37.203125,1.63
16:15:37.218750,0.93
16:15:37.234375,0.10
16:15:37.250000,-0.80
16:15:37.265625,-1.70
16:15:37.281250,-2.58
16:15:37.296875,-3.46
16:15:37.312500,-4.37
16:15:37.328125,-5.30
16:15:37.343750,-6.17
16:15:37.359375,-6.84
16:15:37.375000,-7.09
16:15:37.390625,-6.76
16:15:37.406250,-5.76
16:15:37.421875,-4.17
16:15:37.437500,-2.21
16:15:37.453125,-0.22
16:15:37.468750,1.49
16:15:37.484375,2.70
16:15:37.500000,3.36
16:15:37.515625,3.57
16:15:37.531250,3.50
16:15:37.546875,3.34
16:15:37.562500,3.21
16:15:37.578125,3.18
16:15:37.593750,3.27
16:15:37.609375,3.47
16:15:37.625000,3.78
16:15:37.640625,4.12
16:15:37.656250,4.44
16:15:37.671875,4.66
16:15:37.687500,4.73
16:15:37.703125,4.65
16:15:37.718750,4.46
16:15:37.734375,4.21
16:15:37.750000,3.93
16:15:37.765625,3.59
16:15:37.781250,3.18
16:15:37.796875,2.70
16:15:37.812500,2.19
16:15:37.828125,1.76
16:15:37.843750,1.48
16:15:37.859375,1.40
16:15:37.875000,1.49
16:15:37.890625,1.65
16:15:37.906250,1.77
16:15:37.921875,1.73
16:15:37.937500,1.46
16:15:37.953125,0.98
16:15:37.968750,0.35
16:15:37.984375,-0.30
16:15:38,-0.90
16:15:38.015625,-1.40
16:15:38.031250,-1.82
16:15:38.046875,-2.21
16:15:38.062500,-2.59
16:15:38.078125,-3.00
16:15:38.093750,-3.39
16:15:38.109375,-3.74
16:15:38.125000,-4.04
16:15:38.140625,-4.31
16:15:38.156250,-4.64
16:15:38.171875,-5.11
16:15:38.187500,-5.78
16:15:38.203125,-6.63
16:15:38.218750,-7.54
16:15:38.234375,-8.33
16:15:38.250000,-8.82
16:15:38.265625,-8.88
16:15:38.281250,-8.45
16:15:38.296875,-7.54
16:15:38.312500,-6.24
16:15:38.328125,-4.67
16:15:38.343750,-2.91
16:15:38.359375,-1.08
16:15:38.375000,0.68
16:15:38.390625,2.23
16:15:38.406250,3.40
16:15:38.421875,4.11
16:15:38.437500,4.39
16:15:38.453125,4.39
16:15:38.468750,4.29
16:15:38.484375,4.25
16:15:38.500000,4.30
16:15:38.515625,4.38
16:15:38.531250,4.39
16:15:38.546875,4.32
16:15:38.562500,4.21
16:15:38.578125,4.17
16:15:38.593750,4.33
16:15:38.609375,4.69
16:15:38.625000,5.14
16:15:38.640625,5.52
16:15:38.656250,5.66
16:15:38.671875,5.48
16:15:38.687500,5.03
16:15:38.703125,4.42
16:15:38.718750,3.76
16:15:38.734375,3.17
16:15:38.750000,2.67
16:15:38.765625,2.27
16:15:38.781250,1.96
16:15:38.796875,1.71
16:15:38.812500,1.49
16:15:38.828125,1.27
16:15:38.843750,1.02
16:15:38.859375,0.71
16:15:38.875000,0.37
16:15:38.890625,0.01
16:15:38.906250,-0.36
16:15:38.921875,-0.78
16:15:38.937500,-1.30
16:15:38.953125,-1.97
16:15:38.968750,-2.76
16:15:38.984375,-3.56
16:15:39,-4.26
16:15:39.015625,-4.74
16:15:39.031250,-5.00
16:15:39.046875,-5.12
16:15:39.062500,-5.25
16:15:39.078125,-5.49
16:15:39.093750,-5.89
16:15:39.109375,-6.37
16:15:39.125000,-6.79
16:15:39.140625,-7.00
16:15:39.156250,-6.89
16:15:39.171875,-6.41
16:15:39.187500,-5.60
16:15:39.203125,-4.56
16:15:39.218750,-3.41
16:15:39.234375,-2.27
16:15:39.250000,-1.18
16:15:39.265625,-0.13
16:15:39.281250,0.89
16:15:39.296875,1.90
16:15:39.312500,2.85
16:15:39.328125,3.63
16:15:39.343750,4.16
16:15:39.359375,4.39
16:15:39.375000,4.36
16:15:39.390625,4.17
16:15:39.406250,3.93
16:15:39.421875,3.74
16:15:39.437500,3.61
16:15:39.453125,3.51
16:15:39.468750,3.41
16:15:39.484375,3.32
16:15:39.500000,3.29
16:15:39.515625,3.37
16:15:39.531250,3.59
16:15:39.546875,3.88
16:15:39.562500,4.16
16:15:39.578125,4.32
16:15:39.593750,4.29
16:15:39.609375,4.10
16:15:39.625000,3.82
16:15:39.640625,3.54
16:15:39.656250,3.35
16:15:39.671875,3.25
16:15:39.687500,3.20
16:15:39.703125,3.15
16:15:39.718750,3.03
16:15:39.734375,2.83
16:15:39.750000,2.52
16:15:39.765625,2.10
16:15:39.781250,1.57
16:15:39.796875,0.96
16:15:39.812500,0.30
16:15:39.828125,-0.33
16:15:39.843750,-0.89
16:15:39.859375,-1.33
16:15:39.875000,-1.68
16:15:39.890625,-1.97
16:15:39.906250,-2.28
16:15:39.921875,-2.63
16:15:39.937500,-3.01
16:15:39.953125,-3.38
16:15:39.968750,-3.64
16:15:39.984375,-3.78
16:15:40,-3.84
16:15:40.015625,-3.93
16:15:40.031250,-4.19
16:15:40.046875,-4.69
16:15:40.062500,-5.43
16:15:40.078125,-6.29
16:15:40.093750,-7.16
16:15:40.109375,-7.92
16:15:40.125000,-8.53
16:15:40.140625,-8.99
16:15:40.156250,-9.31
16:15:40.171875,-9.41
16:15:40.187500,-9.19
16:15:40.203125,-8.58
16:15:40.218750,-7.56
16:15:40.234375,-6.21
16:15:40.250000,-4.67
16:15:40.265625,-3.05
16:15:40.281250,-1.46
16:15:40.296875,0.03
16:15:40.312500,1.40
16:15:40.328125,2.58
16:15:40.343750,3.55
16:15:40.359375,4.26
16:15:40.375000,4.71
16:15:40.390625,4.93
16:15:40.406250,4.97
16:15:40.421875,4.89
16:15:40.437500,4.76
16:15:40.453125,4.65
16:15:40.468750,4.62
16:15:40.484375,4.71
16:15:40.500000,4.87
16:15:40.515625,5.03
16:15:40.531250,5.11
16:15:40.546875,5.06
16:15:40.562500,4.89
16:15:40.578125,4.67
16:15:40.593750,4.52
16:15:40.609375,4.50
16:15:40.625000,4.56
16:15:40.640625,4.61
16:15:40.656250,4.51
16:15:40.671875,4.16
16:15:40.687500,3.56
16:15:40.703125,2.82
16:15:40.718750,2.09
16:15:40.734375,1.46
16:15:40.750000,0.95
16:15:40.765625,0.53
16:15:40.781250,0.10
16:15:40.796875,-0.39
16:15:40.812500,-0.92
16:15:40.828125,-1.42
16:15:40.843750,-1.81
16:15:40.859375,-2.05
16:15:40.875000,-2.15
16:15:40.890625,-2.15
16:15:40.906250,-2.14
16:15:40.921875,-2.19
16:15:40.937500,-2.35
16:15:40.953125,-2.64
16:15:40.968750,-3.01
16:15:40.984375,-3.41
16:15:41,-3.80
16:15:41.015625,-4.11
16:15:41.031250,-4.32
16:15:41.046875,-4.45
16:15:41.062500,-4.50
16:15:41.078125,-4.57
16:15:41.093750,-4.73
16:15:41.109375,-5.10
16:15:41.125000,-5.71
16:15:41.140625,-6.54
16:15:41.156250,-7.44
16:15:41.171875,-8.18
16:15:41.187500,-8.53
16:15:41.203125,-8.31
16:15:41.218750,-7.46
16:15:41.234375,-6.08
16:15:41.250000,-4.33
16:15:41.265625,-2.46
16:15:41.281250,-0.68
16:15:41.296875,0.83
16:15:41.312500,2.01
16:15:41.328125,2.90
16:15:41.343750,3.54
16:15:41.359375,3.96
16:15:41.375000,4.17
16:15:41.390625,4.17
16:15:41.406250,3.95
16:15:41.421875,3.61
16:15:41.437500,3.28
16:15:41.453125,3.08
16:15:41.468750,3.12
16:15:41.484375,3.40
16:15:41.500000,3.83
16:15:41.515625,4.28
16:15:41.531250,4.64
16:15:41.546875,4.85
16:15:41.562500,4.94
16:15:41.578125,4.95
16:15:41.593750,4.88
16:15:41.609375,4.73
16:15:41.625000,4.44
16:15:41.640625,4.02
16:15:41.656250,3.55
16:15:41.671875,3.12
16:15:41.687500,2.87
16:15:41.703125,2.83
16:15:41.718750,2.97
16:15:41.734375,3.14
16:15:41.750000,3.18
16:15:41.765625,3.01
16:15:41.781250,2.61
16:15:41.796875,2.07
16:15:41.812500,1.52
16:15:41.828125,1.06
16:15:41.843750,0.73
16:15:41.859375,0.54
16:15:41.875000,0.46
16:15:41.890625,0.42
16:15:41.906250,0.39
16:15:41.921875,0.30
16:15:41.937500,0.14
16:15:41.953125,-0.13
16:15:41.968750,-0.49
16:15:41.984375,-0.96
16:15:42,-1.53
16:15:42.015625,-2.16
16:15:42.031250,-2.78
16:15:42.046875,-3.27
16:15:42.062500,-3.56
16:15:42.078125,-3.64
16:15:42.093750,-3.60
16:15:42.109375,-3.54
16:15:42.125000,-3.60
16:15:42.140625,-3.87
16:15:42.156250,-4.36
16:15:42.171875,-5.05
16:15:42.187500,-5.91
16:15:42.203125,-6.93
16:15:42.218750,-8.05
16:15:42.234375,-9.15
16:15:42.250000,-10.03
16:15:42.265625,-10.48
16:15:42.281250,-10.38
16:15:42.296875,-9.74
16:15:42.312500,-8.73
16:15:42.328125,-7.56
16:15:42.343750,-6.34
16:15:42.359375,-5.12
16:15:42.375000,-3.79
16:15:42.390625,-2.30
16:15:42.406250,-0.67
16:15:42.421875,0.98
16:15:42.437500,2.45
16:15:42.453125,3.55
16:15:42.468750,4.20
16:15:42.484375,4.45
16:15:42.500000,4.41
16:15:42.515625,4.28
16:15:42.531250,4.19
16:15:42.546875,4.25
16:15:42.562500,4.47
16:15:42.578125,4.79
16:15:42.593750,5.07
16:15:42.609375,5.22
16:15:42.625000,5.20
16:15:42.640625,5.03
16:15:42.656250,4.81
16:15:42.671875,4.62
16:15:42.687500,4.47
16:15:42.703125,4.35
16:15:42.718750,4.20
16:15:42.734375,4.02
16:15:42.750000,3.81
16:15:42.765625,3.61
16:15:42.781250,3.44
16:15:42.796875,3.33
16:15:42.812500,3.25
16:15:42.828125,3.18
16:15:42.843750,3.06
16:15:42.859375,2.86
16:15:42.875000,2.54
16:15:42.890625,2.13
16:15:42.906250,1.68
16:15:42.921875,1.28
16:15:42.937500,1.02
16:15:42.953125,0.91
16:15:42.968750,0.87
16:15:42.984375,0.78
16:15:43,0.52
16:15:43.015625,0.07
16:15:43.031250,-0.51
16:15:43.046875,-1.11
16:15:43.062500,-1.64
16:15:43.078125,-2.04
16:15:43.093750,-2.36
16:15:43.109375,-2.66
16:15:43.125000,-3.01
16:15:43.140625,-3.46
16:15:43.156250,-3.98
16:15:43.171875,-4.54
16:15:43.187500,-5.10
16:15:43.203125,-5.66
16:15:43.218750,-6.28
16:15:43.234375,-6.99
16:15:43.250000,-7.79
16:15:43.265625,-8.57
16:15:43.281250,-9.15
16:15:43.296875,-9.31
16:15:43.312500,-8.91
16:15:43.328125,-7.96
16:15:43.343750,-6.60
16:15:43.359375,-4.98
16:15:43.375000,-3.29
16:15:43.390625,-1.60
16:15:43.406250,0.03
16:15:43.421875,1.53
16:15:43.437500,2.79
16:15:43.453125,3.73
16:15:43.468750,4.30
16:15:43.484375,4.59
16:15:43.500000,4.73
16:15:43.515625,4.85
16:15:43.531250,5.00
16:15:43.546875,5.13
16:15:43.562500,5.16
16:15:43.578125,5.09
16:15:43.593750,4.94
16:15:43.609375,4.79
16:15:43.625000,4.68
16:15:43.640625,4.57
16:15:43.656250,4.43
16:15:43.671875,4.25
16:15:43.687500,4.08
16:15:43.703125,4.02
16:15:43.718750,4.12
16:15:43.734375,4.38
16:15:43.750000,4.69
16:15:43.765625,4.94
16:15:43.781250,5.04
16:15:43.796875,4.95
16:15:43.812500,4.66
16:15:43.828125,4.21
16:15:43.843750,3.63
16:15:43.859375,3.00
16:15:43.875000,2.41
16:15:43.890625,1.96
16:15:43.906250,1.67
16:15:43.921875,1.49
16:15:43.937500,1.31
16:15:43.953125,1.04
16:15:43.968750,0.69
16:15:43.984375,0.33
16:15:44,0.03
16:15:44.015625,-0.21
16:15:44.031250,-0.47
16:15:44.046875,-0.85
16:15:44.062500,-1.37
16:15:44.078125,-1.97
16:15:44.093750,-2.48
16:15:44.109375,-2.80
16:15:44.125000,-2.93
16:15:44.140625,-2.98
16:15:44.156250,-3.14
16:15:44.171875,-3.53
16:15:44.187500,-4.16
16:15:44.203125,-4.92
16:15:44.218750,-5.66
16:15:44.234375,-6.31
16:15:44.250000,-6.89
16:15:44.265625,-7.50
16:15:44.281250,-8.22
16:15:44.296875,-9.00
16:15:44.312500,-9.65
16:15:44.328125,-9.88
16:15:44.343750,-9.42
16:15:44.359375,-8.16
16:15:44.375000,-6.19
16:15:44.390625,-3.80
16:15:44.406250,-1.41
16:15:44.421875,0.62
16:15:44.437500,2.09
16:15:44.453125,3.00
16:15:44.468750,3.49
16:15:44.484375,3.78
16:15:44.500000,3.99
16:15:44.515625,4.19
16:15:44.531250,4.34
16:15:44.546875,4.41
16:15:44.562500,4.41
16:15:44.578125,4.41
16:15:44.593750,4.48
16:15:44.609375,4.69
16:15:44.625000,4.99
16:15:44.640625,5.25
16:15:44.656250,5.33
16:15:44.671875,5.16
16:15:44.687500,4.77
16:15:44.703125,4.29
16:15:44.718750,3.90
16:15:44.734375,3.70
16:15:44.750000,3.72
16:15:44.765625,3.91
16:15:44.781250,4.15
16:15:44.796875,4.35
16:15:44.812500,4.49
16:15:44.828125,4.57
16:15:44.843750,4.60
16:15:44.859375,4.57
16:15:44.875000,4.37
16:15:44.890625,3.90
16:15:44.906250,3.10
16:15:44.921875,2.04
16:15:44.937500,0.90
16:15:44.953125,-0.10
16:15:44.968750,-0.76
16:15:44.984375,-1.05
16:15:45,-1.02
16:15:45.015625,-0.84
16:15:45.031250,-0.69
16:15:45.046875,-0.67
16:15:45.062500,-0.84
16:15:45.078125,-1.22
16:15:45.093750,-1.76
16:15:45.109375,-2.40
16:15:45.125000,-3.08
16:15:45.140625,-3.72
16:15:45.156250,-4.27
16:15:45.171875,-4.73
16:15:45.187500,-5.11
16:15:45.203125,-5.47
16:15:45.218750,-5.81
16:15:45.234375,-6.12
16:15:45.250000,-6.32
16:15:45.265625,-6.36
16:15:45.281250,-6.19
16:15:45.296875,-5.80
16:15:45.312500,-5.20
16:15:45.328125,-4.40
16:15:45.343750,-3.45
16:15:45.359375,-2.38
16:15:45.375000,-1.26
16:15:45.390625,-0.16
16:15:45.406250,0.83
16:15:45.421875,1.64
16:15:45.437500,2.25
16:15:45.453125,2.63
16:15:45.468750,2.85
16:15:45.484375,2.96
16:15:45.500000,3.05
16:15:45.515625,3.18
16:15:45.531250,3.35
16:15:45.546875,3.53
16:15:45.562500,3.64
16:15:45.578125,3.63
16:15:45.593750,3.48
16:15:45.609375,3.22
16:15:45.625000,2.94
16:15:45.640625,2.76
16:15:45.656250,2.73
16:15:45.671875,2.86
16:15:45.687500,3.07
16:15:45.703125,3.28
16:15:45.718750,3.41
16:15:45.734375,3.44
16:15:45.750000,3.39
16:15:45.765625,3.29
16:15:45.781250,3.15
16:15:45.796875,2.91
16:15:45.812500,2.52
16:15:45.828125,1.97
16:15:45.843750,1.36
16:15:45.859375,0.82
16:15:45.875000,0.50
16:15:45.890625,0.42
16:15:45.906250,0.50
16:15:45.921875,0.55
16:15:45.937500,0.39
16:15:45.953125,-0.04
16:15:45.968750,-0.70
16:15:45.984375,-1.43
16:15:46,-2.09
16:15:46.015625,-2.59
16:15:46.031250,-2.94
16:15:46.046875,-3.21
16:15:46.062500,-3.46
16:15:46.078125,-3.77
16:15:46.093750,-4.17
16:15:46.109375,-4.70
16:15:46.125000,-5.35
16:15:46.140625,-6.10
16:15:46.156250,-6.85
16:15:46.171875,-7.45
16:15:46.187500,-7.73
16:15:46.203125,-7.58
16:15:46.218750,-6.98
16:15:46.234375,-5.97
16:15:46.250000,-4.69
16:15:46.265625,-3.27
16:15:46.281250,-1.86
16:15:46.296875,-0.54
16:15:46.312500,0.64
16:15:46.328125,1.68
16:15:46.343750,2.55
16:15:46.359375,3.23
16:15:46.375000,3.70
16:15:46.390625,3.94
16:15:46.406250,3.98
16:15:46.421875,3.90
16:15:46.437500,3.76
16:15:46.453125,3.65
16:15:46.468750,3.58
16:15:46.484375,3.54
16:15:46.500000,3.51
16:15:46.515625,3.49
16:15:46.531250,3.47
16:15:46.546875,3.49
16:15:46.562500,3.52
16:15:46.578125,3.52
16:15:46.593750,3.45
16:15:46.609375,3.30
16:15:46.625000,3.12
16:15:46.640625,2.98
16:15:46.656250,2.93
16:15:46.671875,2.97
16:15:46.687500,3.01
16:15:46.703125,2.93
16:15:46.718750,2.64
16:15:46.734375,2.18
16:15:46.750000,1.64
16:15:46.765625,1.16
16:15:46.781250,0.81
16:15:46.796875,0.59
16:15:46.812500,0.42
16:15:46.828125,0.21
16:15:46.843750,-0.08
16:15:46.859375,-0.41
16:15:46.875000,-0.72
16:15:46.890625,-0.95
16:15:46.906250,-1.15
16:15:46.921875,-1.39
16:15:46.937500,-1.73
16:15:46.953125,-2.16
16:15:46.968750,-2.58
16:15:46.984375,-2.83
16:15:47,-2.86
16:15:47.015625,-2.70
16:15:47.031250,-2.50
16:15:47.046875,-2.44
16:15:47.062500,-2.62
16:15:47.078125,-3.05
16:15:47.093750,-3.67
16:15:47.109375,-4.38
16:15:47.125000,-5.17
16:15:47.140625,-6.04
16:15:47.156250,-6.97
16:15:47.171875,-7.86
16:15:47.187500,-8.56
16:15:47.203125,-8.84
16:15:47.218750,-8.56
16:15:47.234375,-7.71
16:15:47.250000,-6.39
16:15:47.265625,-4.81
16:15:47.281250,-3.20
16:15:47.296875,-1.71
16:15:47.312500,-0.42
16:15:47.328125,0.68
16:15:47.343750,1.66
16:15:47.359375,2.56
16:15:47.375000,3.41
16:15:47.390625,4.15
16:15:47.406250,4.68
16:15:47.421875,4.89
16:15:47.437500,4.74
16:15:47.453125,4.29
16:15:47.468750,3.68
16:15:47.484375,3.13
16:15:47.500000,2.81
16:15:47.515625,2.80
16:15:47.531250,3.04
16:15:47.546875,3.40
16:15:47.562500,3.73
16:15:47.578125,3.93
16:15:47.593750,3.97
16:15:47.609375,3.89
16:15:47.625000,3.73
16:15:47.640625,3.53
16:15:47.656250,3.27
16:15:47.671875,2.96
16:15:47.687500,2.59
16:15:47.703125,2.20
16:15:47.718750,1.81
16:15:47.734375,1.42
16:15:47.750000,0.99
16:15:47.765625,0.49
16:15:47.781250,-0.06
16:15:47.796875,-0.59
16:15:47.812500,-1.03
16:15:47.828125,-1.32
16:15:47.843750,-1.48
16:15:47.859375,-1.57
16:15:47.875000,-1.67
16:15:47.890625,-1.79
16:15:47.906250,-1.96
16:15:47.921875,-2.19
16:15:47.937500,-2.52
16:15:47.953125,-3.02
16:15:47.968750,-3.74
16:15:47.984375,-4.65
16:15:48,-5.63
16:15:48.015625,-6.56
16:15:48.031250,-7.32
16:15:48.046875,-7.89
16:15:48.062500,-8.30
16:15:48.078125,-8.55
16:15:48.093750,-8.56
16:15:48.109375,-8.20
16:15:48.125000,-7.35
16:15:48.140625,-6.00
16:15:48.156250,-4.27
16:15:48.171875,-2.41
16:15:48.187500,-0.64
16:15:48.203125,0.86
16:15:48.218750,2.02
16:15:48.234375,2.84
16:15:48.250000,3.36
16:15:48.265625,3.61
16:15:48.281250,3.65
16:15:48.296875,3.57
16:15:48.312500,3.47
16:15:48.328125,3.43
16:15:48.343750,3.48
16:15:48.359375,3.59
16:15:48.375000,3.73
16:15:48.390625,3.82
16:15:48.406250,3.86
16:15:48.421875,3.84
16:15:48.437500,3.78
16:15:48.453125,3.74
16:15:48.468750,3.73
16:15:48.484375,3.78
16:15:48.500000,3.88
16:15:48.515625,4.01
16:15:48.531250,4.10
16:15:48.546875,4.14
16:15:48.562500,4.09
16:15:48.578125,3.96
16:15:48.593750,3.79
16:15:48.609375,3.57
16:15:48.625000,3.30
16:15:48.640625,2.97
16:15:48.656250,2.60
16:15:48.671875,2.18
16:15:48.687500,1.70
16:15:48.703125,1.17
16:15:48.718750,0.53
16:15:48.734375,-0.21
16:15:48.750000,-1.04
16:15:48.765625,-1.90
16:15:48.781250,-2.71
16:15:48.796875,-3.39
16:15:48.812500,-3.94
16:15:48.828125,-4.35
16:15:48.843750,-4.69
16:15:48.859375,-5.00
16:15:48.875000,-5.36
16:15:48.890625,-5.88
16:15:48.906250,-6.62
16:15:48.921875,-7.58
16:15:48.937500,-8.68
16:15:48.953125,-9.71
16:15:48.968750,-10.44
16:15:48.984375,-10.69
16:15:49,-10.36
16:15:49.015625,-9.47
16:15:49.031250,-8.14
16:15:49.046875,-6.48
16:15:49.062500,-4.59
16:15:49.078125,-2.59
16:15:49.093750,-0.59
16:15:49.109375,1.26
16:15:49.125000,2.79
16:15:49.140625,3.90
16:15:49.156250,4.61
16:15:49.171875,5.06
16:15:49.187500,5.42
16:15:49.203125,5.81
16:15:49.218750,6.23
16:15:49.234375,6.55
16:15:49.250000,6.62
16:15:49.265625,6.38
16:15:49.281250,5.86
16:15:49.296875,5.27
16:15:49.312500,4.83
16:15:49.328125,4.69
16:15:49.343750,4.86
16:15:49.359375,5.25
16:15:49.375000,5.65
16:15:49.390625,5.89
16:15:49.406250,5.83
16:15:49.421875,5.42
16:15:49.437500,4.66
16:15:49.453125,3.63
16:15:49.468750,2.50
16:15:49.484375,1.44
16:15:49.500000,0.64
16:15:49.515625,0.20
16:15:49.531250,0.09
16:15:49.546875,0.17
16:15:49.562500,0.21
16:15:49.578125,0.06
16:15:49.593750,-0.34
16:15:49.609375,-0.93
16:15:49.625000,-1.55
16:15:49.640625,-2.10
16:15:49.656250,-2.50
16:15:49.671875,-2.81
16:15:49.687500,-3.11
16:15:49.703125,-3.48
16:15:49.718750,-3.99
16:15:49.734375,-4.62
16:15:49.750000,-5.35
16:15:49.765625,-6.13
16:15:49.781250,-6.89
16:15:49.796875,-7.52
16:15:49.812500,-7.89
16:15:49.828125,-7.88
16:15:49.843750,-7.41
16:15:49.859375,-6.44
16:15:49.875000,-5.01
16:15:49.890625,-3.24
16:15:49.906250,-1.30
16:15:49.921875,0.58
16:15:49.937500,2.21
16:15:49.953125,3.41
16:15:49.968750,4.15
16:15:49.984375,4.48
16:15:50,4.59
16:15:50.015625,4.65
16:15:50.031250,4.80
16:15:50.046875,5.06
16:15:50.062500,5.34
16:15:50.078125,5.52
16:15:50.093750,5.52
16:15:50.109375,5.35
16:15:50.125000,5.08
16:15:50.140625,4.82
16:15:50.156250,4.64
16:15:50.171875,4.53
16:15:50.187500,4.48
16:15:50.203125,4.43
16:15:50.218750,4.37
16:15:50.234375,4.33
16:15:50.250000,4.33
16:15:50.265625,4.37
16:15:50.281250,4.41
16:15:50.296875,4.34
16:15:50.312500,4.06
16:15:50.328125,3.53
16:15:50.343750,2.75
16:15:50.359375,1.83
16:15:50.375000,0.88
16:15:50.390625,0.02
16:15:50.406250,-0.68
16:15:50.421875,-1.18
16:15:50.437500,-1.49
16:15:50.453125,-1.68
16:15:50.468750,-1.82
16:15:50.484375,-2.01
16:15:50.500000,-2.32
16:15:50.515625,-2.80
16:15:50.531250,-3.45
16:15:50.546875,-4.23
16:15:50.562500,-5.07
16:15:50.578125,-5.87
16:15:50.593750,-6.54
16:15:50.609375,-6.93
16:15:50.625000,-6.95
16:15:50.640625,-6.53
16:15:50.656250,-5.67
16:15:50.671875,-4.48
16:15:50.687500,-3.09
16:15:50.703125,-1.68
16:15:50.718750,-0.34
16:15:50.734375,0.87
16:15:50.750000,1.94
16:15:50.765625,2.86
16:15:50.781250,3.64
16:15:50.796875,4.24
16:15:50.812500,4.67
16:15:50.828125,4.97
16:15:50.843750,5.17
16:15:50.859375,5.32
16:15:50.875000,5.43
16:15:50.890625,5.51
16:15:50.906250,5.52
16:15:50.921875,5.42
16:15:50.937500,5.25
16:15:50.953125,5.06
16:15:50.968750,4.91
16:15:50.984375,4.84
16:15:51,4.82
16:15:51.015625,4.80
16:15:51.031250,4.71
16:15:51.046875,4.54
16:15:51.062500,4.26
16:15:51.078125,3.92
16:15:51.093750,3.53
16:15:51.109375,3.14
16:15:51.125000,2.77
16:15:51.140625,2.45
16:15:51.156250,2.19
16:15:51.171875,1.97
16:15:51.187500,1.77
16:15:51.203125,1.53
16:15:51.218750,1.22
16:15:51.234375,0.81
16:15:51.250000,0.31
16:15:51.265625,-0.29
16:15:51.281250,-0.97
16:15:51.296875,-1.71
16:15:51.312500,-2.47
16:15:51.328125,-3.16
16:15:51.343750,-3.69
16:15:51.359375,-4.02
16:15:51.375000,-4.17
16:15:51.390625,-4.24
16:15:51.406250,-4.37
16:15:51.421875,-4.67
16:15:51.437500,-5.17
16:15:51.453125,-5.84
16:15:51.468750,-6.55
16:15:51.484375,-7.19
16:15:51.500000,-7.65
16:15:51.515625,-7.85
16:15:51.531250,-7.72
16:15:51.546875,-7.23
16:15:51.562500,-6.34
16:15:51.578125,-5.08
16:15:51.593750,-3.55
16:15:51.609375,-1.92
16:15:51.625000,-0.40
16:15:51.640625,0.83
16:15:51.656250,1.68
16:15:51.671875,2.22
16:15:51.687500,2.58
16:15:51.703125,2.93
16:15:51.718750,3.38
16:15:51.734375,3.93
16:15:51.750000,4.49
16:15:51.765625,4.93
16:15:51.781250,5.14
16:15:51.796875,5.09
16:15:51.812500,4.81
16:15:51.828125,4.40
16:15:51.843750,3.99
16:15:51.859375,3.70
16:15:51.875000,3.61
16:15:51.890625,3.72
16:15:51.906250,3.97
16:15:51.921875,4.23
16:15:51.937500,4.43
16:15:51.953125,4.50
16:15:51.968750,4.46
16:15:51.984375,4.33
16:15:52,4.14
16:15:52.015625,3.84
16:15:52.031250,3.36
16:15:52.046875,2.67
16:15:52.062500,1.83
16:15:52.078125,1.00
16:15:52.093750,0.38
16:15:52.109375,0.11
16:15:52.125000,0.21
16:15:52.140625,0.53
16:15:52.156250,0.84
16:15:52.171875,0.91
16:15:52.187500,0.65
16:15:52.203125,0.09
16:15:52.218750,-0.60
16:15:52.234375,-1.23
16:15:52.250000,-1.68
16:15:52.265625,-1.93
16:15:52.281250,-2.04
16:15:52.296875,-2.06
16:15:52.312500,-2.03
16:15:52.328125,-1.96
16:15:52.343750,-1.85
16:15:52.359375,-1.71
16:15:52.375000,-1.61
16:15:52.390625,-1.61
16:15:52.406250,-1.78
16:15:52.421875,-2.17
16:15:52.437500,-2.80
16:15:52.453125,-3.63
16:15:52.468750,-4.65
16:15:52.484375,-5.78
16:15:52.500000,-6.87
16:15:52.515625,-7.80
16:15:52.531250,-8.40
16:15:52.546875,-8.60
16:15:52.562500,-8.37
16:15:52.578125,-7.71
16:15:52.593750,-6.68
16:15:52.609375,-5.34
16:15:52.625000,-3.82
16:15:52.640625,-2.30
16:15:52.656250,-0.98
16:15:52.671875,0.01
16:15:52.687500,0.66
16:15:52.703125,1.03
16:15:52.718750,1.26
16:15:52.734375,1.46
16:15:52.750000,1.65
16:15:52.765625,1.78
16:15:52.781250,1.74
16:15:52.796875,1.51
16:15:52.812500,1.14
16:15:52.828125,0.74
16:15:52.843750,0.48
16:15:52.859375,0.46
16:15:52.875000,0.70
16:15:52.890625,1.18
16:15:52.906250,1.79
16:15:52.921875,2.45
16:15:52.937500,3.05
16:15:52.953125,3.51
16:15:52.968750,3.74
16:15:52.984375,3.71
16:15:53,3.46
16:15:53.015625,3.08
16:15:53.031250,2.73
16:15:53.046875,2.56
16:15:53.062500,2.67
16:15:53.078125,3.05
16:15:53.093750,3.55
16:15:53.109375,3.97
16:15:53.125000,4.10
16:15:53.140625,3.84
16:15:53.156250,3.23
16:15:53.171875,2.39
16:15:53.187500,1.51
16:15:53.203125,0.68
16:15:53.218750,-0.03
16:15:53.234375,-0.65
16:15:53.250000,-1.16
16:15:53.265625,-1.50
16:15:53.281250,-1.61
16:15:53.296875,-1.48
16:15:53.312500,-1.19
16:15:53.328125,-0.94
16:15:53.343750,-0.93
16:15:53.359375,-1.30
16:15:53.375000,-1.98
16:15:53.390625,-2.78
16:15:53.406250,-3.49
16:15:53.421875,-4.01
16:15:53.437500,-4.39
16:15:53.453125,-4.79
16:15:53.468750,-5.36
16:15:53.484375,-6.14
16:15:53.500000,-7.02
16:15:53.515625,-7.83
16:15:53.531250,-8.38
16:15:53.546875,-8.56
16:15:53.562500,-8.33
16:15:53.578125,-7.65
16:15:53.593750,-6.52
16:15:53.609375,-5.03
16:15:53.625000,-3.34
16:15:53.640625,-1.71
16:15:53.656250,-0.43
16:15:53.671875,0.33
16:15:53.687500,0.57
16:15:53.703125,0.50
16:15:53.718750,0.37
16:15:53.734375,0.41
16:15:53.750000,0.68
16:15:53.765625,1.07
16:15:53.781250,1.43
16:15:53.796875,1.63
16:15:53.812500,1.66
16:15:53.828125,1.60
16:15:53.843750,1.54
16:15:53.859375,1.53
16:15:53.875000,1.56
16:15:53.890625,1.58
16:15:53.906250,1.56
16:15:53.921875,1.52
16:15:53.937500,1.54
16:15:53.953125,1.66
16:15:53.968750,1.90
16:15:53.984375,2.19
16:15:54,2.44
16:15:54.015625,2.59
16:15:54.031250,2.63
16:15:54.046875,2.62
16:15:54.062500,2.59
16:15:54.078125,2.56
16:15:54.093750,2.50
16:15:54.109375,2.34
16:15:54.125000,2.03
16:15:54.140625,1.58
16:15:54.156250,1.02
16:15:54.171875,0.42
16:15:54.187500,-0.16
16:15:54.203125,-0.70
16:15:54.218750,-1.19
16:15:54.234375,-1.62
16:15:54.250000,-1.98
16:15:54.265625,-2.21
16:15:54.281250,-2.31
16:15:54.296875,-2.30
16:15:54.312500,-2.22
16:15:54.328125,-2.17
16:15:54.343750,-2.24
16:15:54.359375,-2.48
16:15:54.375000,-2.94
16:15:54.390625,-3.57
16:15:54.406250,-4.32
16:15:54.421875,-5.11
16:15:54.437500,-5.85
16:15:54.453125,-6.43
16:15:54.468750,-6.73
16:15:54.484375,-6.63
16:15:54.500000,-6.07
16:15:54.515625,-5.03
16:15:54.531250,-3.62
16:15:54.546875,-2.02
16:15:54.562500,-0.43
16:15:54.578125,0.99
16:15:54.593750,2.16
16:15:54.609375,3.10
16:15:54.625000,3.86
16:15:54.640625,4.46
16:15:54.656250,4.86
16:15:54.671875,5.01
16:15:54.687500,4.83
16:15:54.703125,4.38
16:15:54.718750,3.76
16:15:54.734375,3.17
16:15:54.750000,2.75
16:15:54.765625,2.59
16:15:54.781250,2.65
16:15:54.796875,2.82
16:15:54.812500,2.96
16:15:54.828125,3.01
16:15:54.843750,2.98
16:15:54.859375,2.94
16:15:54.875000,2.96
16:15:54.890625,3.09
16:15:54.906250,3.29
16:15:54.921875,3.48
16:15:54.937500,3.54
16:15:54.953125,3.41
16:15:54.968750,3.08
16:15:54.984375,2.64
16:15:55,2.18
16:15:55.015625,1.78
16:15:55.031250,1.42
16:15:55.046875,1.05
16:15:55.062500,0.60
16:15:55.078125,0.06
16:15:55.093750,-0.51
16:15:55.109375,-1.06
16:15:55.125000,-1.60
16:15:55.140625,-2.13
16:15:55.156250,-2.70
16:15:55.171875,-3.30
16:15:55.187500,-3.87
16:15:55.203125,-4.33
16:15:55.218750,-4.61
16:15:55.234375,-4.75
16:15:55.250000,-4.86
16:15:55.265625,-5.09
16:15:55.281250,-5.53
16:15:55.296875,-6.20
16:15:55.312500,-6.99
16:15:55.328125,-7.74
16:15:55.343750,-8.21
16:15:55.359375,-8.20
16:15:55.375000,-7.56
16:15:55.390625,-6.27
16:15:55.406250,-4.44
16:15:55.421875,-2.31
16:15:55.437500,-0.15
16:15:55.453125,1.77
16:15:55.468750,3.32
16:15:55.484375,4.46
16:15:55.500000,5.21
16:15:55.515625,5.63
16:15:55.531250,5.74
16:15:55.546875,5.58
16:15:55.562500,5.19
16:15:55.578125,4.66
16:15:55.593750,4.12
16:15:55.609375,3.68
16:15:55.625000,3.46
16:15:55.640625,3.48
16:15:55.656250,3.75
16:15:55.671875,4.19
16:15:55.687500,4.71
16:15:55.703125,5.21
16:15:55.718750,5.63
16:15:55.734375,5.90
16:15:55.750000,5.98
16:15:55.765625,5.86
16:15:55.781250,5.56
16:15:55.796875,5.14
16:15:55.812500,4.64
16:15:55.828125,4.12
16:15:55.843750,3.60
16:15:55.859375,3.07
16:15:55.875000,2.51
16:15:55.890625,1.92
16:15:55.906250,1.32
16:15:55.921875,0.77
16:15:55.937500,0.30
16:15:55.953125,-0.07
16:15:55.968750,-0.37
16:15:55.984375,-0.70
16:15:56,-1.13
16:15:56.015625,-1.73
16:15:56.031250,-2.47
16:15:56.046875,-3.24
16:15:56.062500,-3.91
16:15:56.078125,-4.35
16:15:56.093750,-4.55
16:15:56.109375,-4.59
16:15:56.125000,-4.65
16:15:56.140625,-4.94
16:15:56.156250,-5.58
16:15:56.171875,-6.56
16:15:56.187500,-7.72
16:15:56.203125,-8.82
16:15:56.218750,-9.60
16:15:56.234375,-9.88
16:15:56.250000,-9.57
16:15:56.265625,-8.68
16:15:56.281250,-7.29
16:15:56.296875,-5.51
16:15:56.312500,-3.49
16:15:56.328125,-1.42
16:15:56.343750,0.51
16:15:56.359375,2.11
16:15:56.375000,3.27
16:15:56.390625,4.00
16:15:56.406250,4.38
16:15:56.421875,4.53
16:15:56.437500,4.56
16:15:56.453125,4.51
16:15:56.468750,4.38
16:15:56.484375,4.21
16:15:56.500000,4.01
16:15:56.515625,3.87
16:15:56.531250,3.83
16:15:56.546875,3.89
16:15:56.562500,4.00
16:15:56.578125,4.08
16:15:56.593750,4.09
16:15:56.609375,4.07
16:15:56.625000,4.11
16:15:56.640625,4.29
16:15:56.656250,4.61
16:15:56.671875,4.96
16:15:56.687500,5.19
16:15:56.703125,5.14
16:15:56.718750,4.76
16:15:56.734375,4.10
16:15:56.750000,3.30
16:15:56.765625,2.50
16:15:56.781250,1.76
16:15:56.796875,1.11
16:15:56.812500,0.54
16:15:56.828125,0.03
16:15:56.843750,-0.35
16:15:56.859375,-0.57
16:15:56.875000,-0.64
16:15:56.890625,-0.68
16:15:56.906250,-0.84
16:15:56.921875,-1.24
16:15:56.937500,-1.91
16:15:56.953125,-2.71
16:15:56.968750,-3.45
16:15:56.984375,-3.96
16:15:57,-4.18
16:15:57.015625,-4.21
16:15:57.031250,-4.22
16:15:57.046875,-4.37
16:15:57.062500,-4.75
16:15:57.078125,-5.35
16:15:57.093750,-6.08
16:15:57.109375,-6.83
16:15:57.125000,-7.48
16:15:57.140625,-7.89
16:15:57.156250,-7.93
16:15:57.171875,-7.46
16:15:57.187500,-6.44
16:15:57.203125,-4.92
16:15:57.218750,-3.09
16:15:57.234375,-1.19
16:15:57.250000,0.50
16:15:57.265625,1.81
16:15:57.281250,2.70
16:15:57.296875,3.27
16:15:57.312500,3.68
16:15:57.328125,4.04
16:15:57.343750,4.42
16:15:57.359375,4.78
16:15:57.375000,5.04
16:15:57.390625,5.09
16:15:57.406250,4.88
16:15:57.421875,4.45
16:15:57.437500,3.94
16:15:57.453125,3.51
16:15:57.468750,3.32
16:15:57.484375,3.42
16:15:57.500000,3.74
16:15:57.515625,4.15
16:15:57.531250,4.53
16:15:57.546875,4.82
16:15:57.562500,5.07
16:15:57.578125,5.32
16:15:57.593750,5.54
16:15:57.609375,5.61
16:15:57.625000,5.37
16:15:57.640625,4.76
16:15:57.656250,3.88
16:15:57.671875,2.97
16:15:57.687500,2.26
16:15:57.703125,1.85
16:15:57.718750,1.64
16:15:57.734375,1.44
16:15:57.750000,1.09
16:15:57.765625,0.57
16:15:57.781250,-0.02
16:15:57.796875,-0.53
16:15:57.812500,-0.93
16:15:57.828125,-1.28
16:15:57.843750,-1.67
16:15:57.859375,-2.14
16:15:57.875000,-2.65
16:15:57.890625,-3.07
16:15:57.906250,-3.34
16:15:57.921875,-3.46
16:15:57.937500,-3.53
16:15:57.953125,-3.65
16:15:57.968750,-3.91
16:15:57.984375,-4.34
16:15:58,-4.93
16:15:58.015625,-5.66
16:15:58.031250,-6.49
16:15:58.046875,-7.37
16:15:58.062500,-8.24
16:15:58.078125,-9.01
16:15:58.093750,-9.59
16:15:58.109375,-9.92
16:15:58.125000,-9.95
16:15:58.140625,-9.62
16:15:58.156250,-8.90
16:15:58.171875,-7.75
16:15:58.187500,-6.14
16:15:58.203125,-4.19
16:15:58.218750,-2.06
16:15:58.234375,-0.01
16:15:58.250000,1.71
16:15:58.265625,2.97
16:15:58.281250,3.71
16:15:58.296875,4.07
16:15:58.312500,4.17
16:15:58.328125,4.18
16:15:58.343750,4.15
16:15:58.359375,4.10
16:15:58.375000,3.97
16:15:58.390625,3.78
16:15:58.406250,3.57
16:15:58.421875,3.43
16:15:58.437500,3.45
16:15:58.453125,3.60
16:15:58.468750,3.82
16:15:58.484375,4.00
16:15:58.500000,4.08
16:15:58.515625,4.08
16:15:58.531250,4.10
16:15:58.546875,4.16
16:15:58.562500,4.25
16:15:58.578125,4.29
16:15:58.593750,4.21
16:15:58.609375,4.02
16:15:58.625000,3.78
16:15:58.640625,3.60
16:15:58.656250,3.54
16:15:58.671875,3.51
16:15:58.687500,3.40
16:15:58.703125,3.08
16:15:58.718750,2.53
16:15:58.734375,1.84
16:15:58.750000,1.16
16:15:58.765625,0.62
16:15:58.781250,0.23
16:15:58.796875,-0.07
16:15:58.812500,-0.37
16:15:58.828125,-0.73
16:15:58.843750,-1.14
16:15:58.859375,-1.62
16:15:58.875000,-2.14
16:15:58.890625,-2.74
16:15:58.906250,-3.43
16:15:58.921875,-4.18
16:15:58.937500,-4.91
16:15:58.953125,-5.53
16:15:58.968750,-5.99
16:15:58.984375,-6.32
16:15:59,-6.65
16:15:59.015625,-7.10
16:15:59.031250,-7.75
16:15:59.046875,-8.58
16:15:59.062500,-9.51
16:15:59.078125,-10.32
16:15:59.093750,-10.76
16:15:59.109375,-10.59
16:15:59.125000,-9.69
16:15:59.140625,-8.07
16:15:59.156250,-5.90
16:15:59.171875,-3.49
16:15:59.187500,-1.09
16:15:59.203125,1.08
16:15:59.218750,2.93
16:15:59.234375,4.45
16:15:59.250000,5.64
16:15:59.265625,6.45
16:15:59.281250,6.84
16:15:59.296875,6.83
16:15:59.312500,6.52
16:15:59.328125,6.09
16:15:59.343750,5.72
16:15:59.359375,5.49
16:15:59.375000,5.41
16:15:59.390625,5.43
16:15:59.406250,5.48
16:15:59.421875,5.57
16:15:59.437500,5.69
16:15:59.453125,5.86
16:15:59.468750,6.01
16:15:59.484375,6.08
16:15:59.500000,5.98
16:15:59.515625,5.70
16:15:59.531250,5.31
16:15:59.546875,4.90
16:15:59.562500,4.52
16:15:59.578125,4.22
16:15:59.593750,3.95
16:15:59.609375,3.66
16:15:59.625000,3.29
16:15:59.640625,2.86
16:15:59.656250,2.44
16:15:59.671875,2.08
16:15:59.687500,1.83
16:15:59.703125,1.65
16:15:59.718750,1.45
16:15:59.734375,1.09
16:15:59.750000,0.52
16:15:59.765625,-0.24
16:15:59.781250,-1.10
16:15:59.796875,-1.90
16:15:59.812500,-2.51
16:15:59.828125,-2.88
16:15:59.843750,-3.06
16:15:59.859375,-3.15
16:15:59.875000,-3.29
16:15:59.890625,-3.53
16:15:59.906250,-3.88
16:15:59.921875,-4.28
16:15:59.937500,-4.72
16:15:59.953125,-5.19
16:15:59.968750,-5.73
16:15:59.984375,-6.40
16:16:00,-7.19
16:16:00.015625,-8.04
16:16:00.031250,-8.85
16:16:00.046875,-9.46
16:16:00.062500,-9.71
16:16:00.078125,-9.47
16:16:00.093750,-8.66
16:16:00.109375,-7.31
16:16:00.125000,-5.55
16:16:00.140625,-3.56
16:16:00.156250,-1.57
16:16:00.171875,0.23
16:16:00.187500,1.70
16:16:00.203125,2.82
16:16:00.218750,3.60
16:16:00.234375,4.07
16:16:00.250000,4.28
16:16:00.265625,4.29
16:16:00.281250,4.17
16:16:00.296875,4.02
16:16:00.312500,3.91
16:16:00.328125,3.86
16:16:00.343750,3.89
16:16:00.359375,3.97
16:16:00.375000,4.13
16:16:00.390625,4.39
16:16:00.406250,4.74
16:16:00.421875,5.08
16:16:00.437500,5.29
16:16:00.453125,5.26
16:16:00.468750,4.97
16:16:00.484375,4.52
16:16:00.500000,4.04
16:16:00.515625,3.69
16:16:00.531250,3.50
16:16:00.546875,3.44
16:16:00.562500,3.42
16:16:00.578125,3.39
16:16:00.593750,3.33
16:16:00.609375,3.26
16:16:00.625000,3.17
16:16:00.640625,2.97
16:16:00.656250,2.56
16:16:00.671875,1.89
16:16:00.687500,1.00
16:16:00.703125,0.04
16:16:00.718750,-0.83
16:16:00.734375,-1.51
16:16:00.750000,-2.02
16:16:00.765625,-2.45
16:16:00.781250,-2.88
16:16:00.796875,-3.32
16:16:00.812500,-3.70
16:16:00.828125,-3.96
16:16:00.843750,-4.11
16:16:00.859375,-4.26
16:16:00.875000,-4.55
16:16:00.890625,-5.09
16:16:00.906250,-5.85
16:16:00.921875,-6.72
16:16:00.937500,-7.55
16:16:00.953125,-8.20
16:16:00.968750,-8.60
16:16:00.984375,-8.73
16:16:01,-8.50
16:16:01.015625,-7.83
16:16:01.031250,-6.66
16:16:01.046875,-5.01
16:16:01.062500,-3.04
16:16:01.078125,-0.98
16:16:01.093750,0.92
16:16:01.109375,2.52
16:16:01.125000,3.78
16:16:01.140625,4.72
16:16:01.156250,5.38
16:16:01.171875,5.75
16:16:01.187500,5.79
16:16:01.203125,5.47
16:16:01.218750,4.88
16:16:01.234375,4.18
16:16:01.250000,3.59
16:16:01.265625,3.25
16:16:01.281250,3.18
16:16:01.296875,3.29
16:16:01.312500,3.44
16:16:01.328125,3.52
16:16:01.343750,3.52
16:16:01.359375,3.51
16:16:01.375000,3.57
16:16:01.390625,3.75
16:16:01.406250,3.99
16:16:01.421875,4.20
16:16:01.437500,4.27
16:16:01.453125,4.12
16:16:01.468750,3.73
16:16:01.484375,3.18
16:16:01.500000,2.55
16:16:01.515625,1.94
16:16:01.531250,1.42
16:16:01.546875,0.97
16:16:01.562500,0.55
16:16:01.578125,0.12
16:16:01.593750,-0.35
16:16:01.609375,-0.81
16:16:01.625000,-1.20
16:16:01.640625,-1.45
16:16:01.656250,-1.54
16:16:01.671875,-1.53
16:16:01.687500,-1.53
16:16:01.703125,-1.62
16:16:01.718750,-1.86
16:16:01.734375,-2.21
16:16:01.750000,-2.59
16:16:01.765625,-2.94
16:16:01.781250,-3.26
16:16:01.796875,-3.59
16:16:01.812500,-4.02
16:16:01.828125,-4.61
16:16:01.843750,-5.38
16:16:01.859375,-6.23
16:16:01.875000,-7.06
16:16:01.890625,-7.74
16:16:01.906250,-8.18
16:16:01.921875,-8.34
16:16:01.937500,-8.18
16:16:01.953125,-7.66
16:16:01.968750,-6.71
16:16:01.984375,-5.29
16:16:02,-3.48
16:16:02.015625,-1.43
16:16:02.031250,0.64
16:16:02.046875,2.49
16:16:02.062500,3.92
16:16:02.078125,4.86
16:16:02.093750,5.29
16:16:02.109375,5.29
16:16:02.125000,4.95
16:16:02.140625,4.38
16:16:02.156250,3.67
16:16:02.171875,2.89
16:16:02.187500,2.09
16:16:02.203125,1.37
16:16:02.218750,0.81
16:16:02.234375,0.51
16:16:02.250000,0.55
16:16:02.265625,0.97
16:16:02.281250,1.68
16:16:02.296875,2.55
16:16:02.312500,3.32
16:16:02.328125,3.78
16:16:02.343750,3.81
16:16:02.359375,3.45
16:16:02.375000,2.86
16:16:02.390625,2.30
16:16:02.406250,1.94
16:16:02.421875,1.87
16:16:02.437500,2.00
16:16:02.453125,2.22
16:16:02.468750,2.39
16:16:02.484375,2.45
16:16:02.500000,2.39
16:16:02.515625,2.25
16:16:02.531250,2.04
16:16:02.546875,1.74
16:16:02.562500,1.33
16:16:02.578125,0.85
16:16:02.593750,0.40
16:16:02.609375,0.08
16:16:02.625000,-0.08
16:16:02.640625,-0.18
16:16:02.656250,-0.40
16:16:02.671875,-0.89
16:16:02.687500,-1.69
16:16:02.703125,-2.66
16:16:02.718750,-3.57
16:16:02.734375,-4.21
16:16:02.750000,-4.50
16:16:02.765625,-4.54
16:16:02.781250,-4.53
16:16:02.796875,-4.69
16:16:02.812500,-5.18
16:16:02.828125,-6.06
16:16:02.843750,-7.29
16:16:02.859375,-8.67
16:16:02.875000,-9.94
16:16:02.890625,-10.74
16:16:02.906250,-10.75
16:16:02.921875,-9.77
16:16:02.937500,-7.81
16:16:02.953125,-5.10
16:16:02.968750,-2.07
16:16:02.984375,0.79
16:16:03,3.09
16:16:03.015625,4.63
16:16:03.031250,5.40
16:16:03.046875,5.56
16:16:03.062500,5.37
16:16:03.078125,5.03
16:16:03.093750,4.69
16:16:03.109375,4.42
16:16:03.125000,4.22
16:16:03.140625,4.08
16:16:03.156250,3.93
16:16:03.171875,3.75
16:16:03.187500,3.55
16:16:03.203125,3.33
16:16:03.218750,3.15
16:16:03.234375,3.08
16:16:03.250000,3.16
16:16:03.265625,3.39
16:16:03.281250,3.69
16:16:03.296875,3.93
16:16:03.312500,3.96
16:16:03.328125,3.73
16:16:03.343750,3.30
16:16:03.359375,2.82
16:16:03.375000,2.45
16:16:03.390625,2.27
16:16:03.406250,2.23
16:16:03.421875,2.22
16:16:03.437500,2.14
16:16:03.453125,1.96
16:16:03.468750,1.69
16:16:03.484375,1.35
16:16:03.500000,0.91
16:16:03.515625,0.33
16:16:03.531250,-0.40
16:16:03.546875,-1.20
16:16:03.562500,-1.92
16:16:03.578125,-2.39
16:16:03.593750,-2.52
16:16:03.609375,-2.35
16:16:03.625000,-2.09
16:16:03.640625,-1.92
16:16:03.656250,-1.99
16:16:03.671875,-2.31
16:16:03.687500,-2.79
16:16:03.703125,-3.34
16:16:03.718750,-3.89
16:16:03.734375,-4.42
16:16:03.750000,-4.97
16:16:03.765625,-5.57
16:16:03.781250,-6.25
16:16:03.796875,-6.97
16:16:03.812500,-7.63
16:16:03.828125,-8.07
16:16:03.843750,-8.08
16:16:03.859375,-7.53
16:16:03.875000,-6.41
16:16:03.890625,-4.82
16:16:03.906250,-3.00
16:16:03.921875,-1.19
16:16:03.937500,0.48
16:16:03.953125,1.94
16:16:03.968750,3.25
16:16:03.984375,4.45
16:16:04,5.53
16:16:04.015625,6.43
16:16:04.031250,7.02
16:16:04.046875,7.20
16:16:04.062500,6.98
16:16:04.078125,6.48
16:16:04.093750,5.90
16:16:04.109375,5.42
16:16:04.125000,5.12
16:16:04.140625,4.96
16:16:04.156250,4.79
16:16:04.171875,4.50
16:16:04.187500,4.07
16:16:04.203125,3.60
16:16:04.218750,3.23
16:16:04.234375,3.07
16:16:04.250000,3.12
16:16:04.265625,3.27
16:16:04.281250,3.37
16:16:04.296875,3.33
16:16:04.312500,3.18
16:16:04.328125,2.96
16:16:04.343750,2.77
16:16:04.359375,2.62
16:16:04.375000,2.46
16:16:04.390625,2.26
16:16:04.406250,2.02
16:16:04.421875,1.78
16:16:04.437500,1.63
16:16:04.453125,1.61
16:16:04.468750,1.68
16:16:04.484375,1.73
16:16:04.500000,1.60
16:16:04.515625,1.17
16:16:04.531250,0.44
16:16:04.546875,-0.50
16:16:04.562500,-1.45
16:16:04.578125,-2.23
16:16:04.593750,-2.75
16:16:04.609375,-2.99
16:16:04.625000,-3.03
16:16:04.640625,-2.98
16:16:04.656250,-2.90
16:16:04.671875,-2.82
16:16:04.687500,-2.77
16:16:04.703125,-2.80
16:16:04.718750,-2.98
16:16:04.734375,-3.36
16:16:04.750000,-3.96
16:16:04.765625,-4.71
16:16:04.781250,-5.50
16:16:04.796875,-6.23
16:16:04.812500,-6.80
16:16:04.828125,-7.19
16:16:04.843750,-7.40
16:16:04.859375,-7.43
16:16:04.875000,-7.22
16:16:04.890625,-6.71
16:16:04.906250,-5.81
16:16:04.921875,-4.49
16:16:04.937500,-2.82
16:16:04.953125,-0.97
16:16:04.968750,0.86
16:16:04.984375,2.48
16:16:05,3.74
16:16:05.015625,4.60
16:16:05.031250,5.12
16:16:05.046875,5.41
16:16:05.062500,5.56
16:16:05.078125,5.63
16:16:05.093750,5.66
16:16:05.109375,5.64
16:16:05.125000,5.55
16:16:05.140625,5.41
16:16:05.156250,5.20
16:16:05.171875,4.97
16:16:05.187500,4.73
16:16:05.203125,4.53
16:16:05.218750,4.40
16:16:05.234375,4.35
16:16:05.250000,4.35
16:16:05.265625,4.35
16:16:05.281250,4.33
16:16:05.296875,4.29
16:16:05.312500,4.30
16:16:05.328125,4.43
16:16:05.343750,4.67
16:16:05.359375,4.94
16:16:05.375000,5.07
16:16:05.390625,4.87
16:16:05.406250,4.26
16:16:05.421875,3.35
16:16:05.437500,2.35
16:16:05.453125,1.49
16:16:05.468750,0.92
16:16:05.484375,0.65
16:16:05.500000,0.56
16:16:05.515625,0.53
16:16:05.531250,0.51
16:16:05.546875,0.50
16:16:05.562500,0.52
16:16:05.578125,0.54
16:16:05.593750,0.47
16:16:05.609375,0.22
16:16:05.625000,-0.24
16:16:05.640625,-0.82
16:16:05.656250,-1.37
16:16:05.671875,-1.76
16:16:05.687500,-1.97
16:16:05.703125,-2.13
16:16:05.718750,-2.41
16:16:05.734375,-2.92
16:16:05.750000,-3.62
16:16:05.765625,-4.36
16:16:05.781250,-4.92
16:16:05.796875,-5.19
16:16:05.812500,-5.19
16:16:05.828125,-5.09
16:16:05.843750,-5.08
16:16:05.859375,-5.35
16:16:05.875000,-5.98
16:16:05.890625,-6.92
16:16:05.906250,-8.03
16:16:05.921875,-9.07
16:16:05.937500,-9.77
16:16:05.953125,-9.86
16:16:05.968750,-9.18
16:16:05.984375,-7.72
16:16:06,-5.61
16:16:06.015625,-3.12
16:16:06.031250,-0.56
16:16:06.046875,1.81
16:16:06.062500,3.75
16:16:06.078125,5.13
16:16:06.093750,5.87
16:16:06.109375,5.98
16:16:06.125000,5.58
16:16:06.140625,4.89
16:16:06.156250,4.19
16:16:06.171875,3.72
16:16:06.187500,3.57
16:16:06.203125,3.65
16:16:06.218750,3.75
16:16:06.234375,3.69
16:16:06.250000,3.39
16:16:06.265625,2.95
16:16:06.281250,2.56
16:16:06.296875,2.40
16:16:06.312500,2.57
16:16:06.328125,2.97
16:16:06.343750,3.45
16:16:06.359375,3.82
16:16:06.375000,3.99
16:16:06.390625,3.96
16:16:06.406250,3.83
16:16:06.421875,3.70
16:16:06.437500,3.61
16:16:06.453125,3.55
16:16:06.468750,3.46
16:16:06.484375,3.28
16:16:06.500000,3.00
16:16:06.515625,2.63
16:16:06.531250,2.21
16:16:06.546875,1.73
16:16:06.562500,1.18
16:16:06.578125,0.55
16:16:06.593750,-0.14
16:16:06.609375,-0.78
16:16:06.625000,-1.26
16:16:06.640625,-1.49
16:16:06.656250,-1.45
16:16:06.671875,-1.27
16:16:06.687500,-1.09
16:16:06.703125,-1.05
16:16:06.718750,-1.21
16:16:06.734375,-1.54
16:16:06.750000,-1.95
16:16:06.765625,-2.36
16:16:06.781250,-2.74
16:16:06.796875,-3.11
16:16:06.812500,-3.54
16:16:06.828125,-4.05
16:16:06.843750,-4.67
16:16:06.859375,-5.36
16:16:06.875000,-6.05
16:16:06.890625,-6.66
16:16:06.906250,-7.10
16:16:06.921875,-7.37
16:16:06.937500,-7.52
16:16:06.953125,-7.66
16:16:06.968750,-7.96
16:16:06.984375,-8.49
16:16:07,-9.19
16:16:07.015625,-9.89
16:16:07.031250,-10.27
16:16:07.046875,-10.08
16:16:07.062500,-9.19
16:16:07.078125,-7.65
16:16:07.093750,-5.70
16:16:07.109375,-3.61
16:16:07.125000,-1.61
16:16:07.140625,0.15
16:16:07.156250,1.62
16:16:07.171875,2.81
16:16:07.187500,3.71
16:16:07.203125,4.35
16:16:07.218750,4.75
16:16:07.234375,4.97
16:16:07.250000,5.06
16:16:07.265625,5.08
16:16:07.281250,5.05
16:16:07.296875,4.97
16:16:07.312500,4.83
16:16:07.328125,4.61
16:16:07.343750,4.33
16:16:07.359375,4.05
16:16:07.375000,3.82
16:16:07.390625,3.69
16:16:07.406250,3.70
16:16:07.421875,3.88
16:16:07.437500,4.25
16:16:07.453125,4.76
16:16:07.468750,5.30
16:16:07.484375,5.76
16:16:07.500000,5.99
16:16:07.515625,5.87
16:16:07.531250,5.39
16:16:07.546875,4.63
16:16:07.562500,3.73
16:16:07.578125,2.87
16:16:07.593750,2.20
16:16:07.609375,1.80
16:16:07.625000,1.65
16:16:07.640625,1.67
16:16:07.656250,1.78
16:16:07.671875,1.85
16:16:07.687500,1.81
16:16:07.703125,1.60
16:16:07.718750,1.22
16:16:07.734375,0.71
16:16:07.750000,0.18
16:16:07.765625,-0.26
16:16:07.781250,-0.53
16:16:07.796875,-0.62
16:16:07.812500,-0.64
16:16:07.828125,-0.69
16:16:07.843750,-0.88
16:16:07.859375,-1.22
16:16:07.875000,-1.61
16:16:07.890625,-1.97
16:16:07.906250,-2.24
16:16:07.921875,-2.48
16:16:07.937500,-2.77
16:16:07.953125,-3.20
16:16:07.968750,-3.79
16:16:07.984375,-4.44
16:16:08,-5.05
16:16:08.015625,-5.53
16:16:08.031250,-5.87
16:16:08.046875,-6.11
16:16:08.062500,-6.37
16:16:08.078125,-6.72
16:16:08.093750,-7.19
16:16:08.109375,-7.77
16:16:08.125000,-8.43
16:16:08.140625,-9.08
16:16:08.156250,-9.59
16:16:08.171875,-9.77
16:16:08.187500,-9.43
16:16:08.203125,-8.44
16:16:08.218750,-6.82
16:16:08.234375,-4.71
16:16:08.250000,-2.41
16:16:08.265625,-0.22
16:16:08.281250,1.63
16:16:08.296875,3.02
16:16:08.312500,3.96
16:16:08.328125,4.52
16:16:08.343750,4.81
16:16:08.359375,4.94
16:16:08.375000,4.99
16:16:08.390625,5.04
16:16:08.406250,5.14
16:16:08.421875,5.30
16:16:08.437500,5.46
16:16:08.453125,5.51
16:16:08.468750,5.34
16:16:08.484375,4.89
16:16:08.500000,4.24
16:16:08.515625,3.59
16:16:08.531250,3.17
16:16:08.546875,3.15
16:16:08.562500,3.49
16:16:08.578125,4.05
16:16:08.593750,4.57
16:16:08.609375,4.86
16:16:08.625000,4.87
16:16:08.640625,4.67
16:16:08.656250,4.40
16:16:08.671875,4.15
16:16:08.687500,3.95
16:16:08.703125,3.74
16:16:08.718750,3.47
16:16:08.734375,3.15
16:16:08.750000,2.83
16:16:08.765625,2.59
16:16:08.781250,2.44
16:16:08.796875,2.34
16:16:08.812500,2.22
16:16:08.828125,1.97
16:16:08.843750,1.57
16:16:08.859375,1.07
16:16:08.875000,0.58
16:16:08.890625,0.22
16:16:08.906250,0.01
16:16:08.921875,-0.10
16:16:08.937500,-0.23
16:16:08.953125,-0.49
16:16:08.968750,-0.89
16:16:08.984375,-1.34
16:16:09,-1.75
16:16:09.015625,-2.05
16:16:09.031250,-2.25
16:16:09.046875,-2.45
16:16:09.062500,-2.78
16:16:09.078125,-3.27
16:16:09.093750,-3.91
16:16:09.109375,-4.56
16:16:09.125000,-5.12
16:16:09.140625,-5.50
16:16:09.156250,-5.72
16:16:09.171875,-5.86
16:16:09.187500,-6.02
16:16:09.203125,-6.33
16:16:09.218750,-6.86
16:16:09.234375,-7.62
16:16:09.250000,-8.54
16:16:09.265625,-9.49
16:16:09.281250,-10.28
16:16:09.296875,-10.73
16:16:09.312500,-10.69
16:16:09.328125,-10.09
16:16:09.343750,-8.91
16:16:09.359375,-7.18
16:16:09.375000,-5.02
16:16:09.390625,-2.63
16:16:09.406250,-0.25
16:16:09.421875,1.84
16:16:09.437500,3.43
16:16:09.453125,4.45
16:16:09.468750,4.97
16:16:09.484375,5.15
16:16:09.500000,5.21
16:16:09.515625,5.28
16:16:09.531250,5.39
16:16:09.546875,5.50
16:16:09.562500,5.49
16:16:09.578125,5.33
16:16:09.593750,5.04
16:16:09.609375,4.72
16:16:09.625000,4.51
16:16:09.640625,4.49
16:16:09.656250,4.64
16:16:09.671875,4.86
16:16:09.687500,5.04
16:16:09.703125,5.10
16:16:09.718750,5.04
16:16:09.734375,4.93
16:16:09.750000,4.86
16:16:09.765625,4.87
16:16:09.781250,4.93
16:16:09.796875,4.96
16:16:09.812500,4.90
16:16:09.828125,4.76
16:16:09.843750,4.60
16:16:09.859375,4.47
16:16:09.875000,4.36
16:16:09.890625,4.17
16:16:09.906250,3.75
16:16:09.921875,3.05
16:16:09.937500,2.12
16:16:09.953125,1.15
16:16:09.968750,0.41
16:16:09.984375,0.03
16:16:10,0.04
16:16:10.015625,0.27
16:16:10.031250,0.50
16:16:10.046875,0.54
16:16:10.062500,0.35
16:16:10.078125,-0.01
16:16:10.093750,-0.42
16:16:10.109375,-0.86
16:16:10.125000,-1.37
16:16:10.140625,-2.06
16:16:10.156250,-3.00
16:16:10.171875,-4.14
16:16:10.187500,-5.33
16:16:10.203125,-6.32
16:16:10.218750,-6.95
16:16:10.234375,-7.19
16:16:10.250000,-7.09
16:16:10.265625,-6.82
16:16:10.281250,-6.53
16:16:10.296875,-6.37
16:16:10.312500,-6.45
16:16:10.328125,-6.85
16:16:10.343750,-7.59
16:16:10.359375,-8.55
16:16:10.375000,-9.48
16:16:10.390625,-10.07
16:16:10.406250,-10.05
16:16:10.421875,-9.31
16:16:10.437500,-7.94
16:16:10.453125,-6.14
16:16:10.468750,-4.12
16:16:10.484375,-2.03
16:16:10.500000,0.06
16:16:10.515625,2.07
16:16:10.531250,3.88
16:16:10.546875,5.31
16:16:10.562500,6.21
16:16:10.578125,6.56
16:16:10.593750,6.48
16:16:10.609375,6.20
16:16:10.625000,5.90
16:16:10.640625,5.62
16:16:10.656250,5.32
16:16:10.671875,4.89
16:16:10.687500,4.33
16:16:10.703125,3.73
16:16:10.718750,3.28
16:16:10.734375,3.15
16:16:10.750000,3.43
16:16:10.765625,4.04
16:16:10.781250,4.83
16:16:10.796875,5.60
16:16:10.812500,6.17
16:16:10.828125,6.44
16:16:10.843750,6.38
16:16:10.859375,6.03
16:16:10.875000,5.46
16:16:10.890625,4.76
16:16:10.906250,4.02
16:16:10.921875,3.28
16:16:10.937500,2.60
16:16:10.953125,2.02
16:16:10.968750,1.63
16:16:10.984375,1.50
16:16:11,1.68
16:16:11.015625,2.13
16:16:11.031250,2.72
16:16:11.046875,3.25
16:16:11.062500,3.56
16:16:11.078125,3.55
16:16:11.093750,3.28
16:16:11.109375,2.86
16:16:11.125000,2.43
16:16:11.140625,2.07
16:16:11.156250,1.76
16:16:11.171875,1.43
16:16:11.187500,0.95
16:16:11.203125,0.30
16:16:11.218750,-0.46
16:16:11.234375,-1.18
16:16:11.250000,-1.68
16:16:11.265625,-1.90
16:16:11.281250,-1.86
16:16:11.296875,-1.76
16:16:11.312500,-1.80
16:16:11.328125,-2.14
16:16:11.343750,-2.81
16:16:11.359375,-3.74
16:16:11.375000,-4.85
16:16:11.390625,-6.09
16:16:11.406250,-7.47
16:16:11.421875,-8.94
16:16:11.437500,-10.38
16:16:11.453125,-11.53
16:16:11.468750,-12.05
16:16:11.484375,-11.69
16:16:11.500000,-10.38
16:16:11.515625,-8.31
16:16:11.531250,-5.89
16:16:11.546875,-3.55
16:16:11.562500,-1.63
16:16:11.578125,-0.25
16:16:11.593750,0.69
16:16:11.609375,1.38
16:16:11.625000,1.96
16:16:11.640625,2.47
16:16:11.656250,2.85
16:16:11.671875,3.03
16:16:11.687500,3.00
16:16:11.703125,2.85
16:16:11.718750,2.75
16:16:11.734375,2.80
16:16:11.750000,3.04
16:16:11.765625,3.37
16:16:11.781250,3.67
16:16:11.796875,3.81
16:16:11.812500,3.74
16:16:11.828125,3.52
16:16:11.843750,3.24
16:16:11.859375,2.98
16:16:11.875000,2.78
16:16:11.890625,2.63
16:16:11.906250,2.51
16:16:11.921875,2.40
16:16:11.937500,2.34
16:16:11.953125,2.41
16:16:11.968750,2.65
16:16:11.984375,3.06
16:16:12,3.55
16:16:12.015625,3.95
16:16:12.031250,4.10
16:16:12.046875,3.92
16:16:12.062500,3.43
16:16:12.078125,2.72
16:16:12.093750,1.89
16:16:12.109375,0.99
16:16:12.125000,0.06
16:16:12.140625,-0.87
16:16:12.156250,-1.71
16:16:12.171875,-2.33
16:16:12.187500,-2.60
16:16:12.203125,-2.44
16:16:12.218750,-1.92
16:16:12.234375,-1.19
16:16:12.250000,-0.48
16:16:12.265625,0.01
16:16:12.281250,0.19
16:16:12.296875,0.02
16:16:12.312500,-0.43
16:16:12.328125,-1.06
16:16:12.343750,-1.80
16:16:12.359375,-2.57
16:16:12.375000,-3.30
16:16:12.390625,-3.99
16:16:12.406250,-4.65
16:16:12.421875,-5.34
16:16:12.437500,-6.14
16:16:12.453125,-7.10
16:16:12.468750,-8.12
16:16:12.484375,-9.05
16:16:12.500000,-9.62
16:16:12.515625,-9.63
16:16:12.531250,-8.97
16:16:12.546875,-7.71
16:16:12.562500,-6.03
16:16:12.578125,-4.18
16:16:12.593750,-2.35
16:16:12.609375,-0.70
16:16:12.625000,0.71
16:16:12.640625,1.86
16:16:12.656250,2.74
16:16:12.671875,3.35
16:16:12.687500,3.71
16:16:12.703125,3.90
16:16:12.718750,3.99
16:16:12.734375,4.08
16:16:12.750000,4.22
16:16:12.765625,4.42
16:16:12.781250,4.66
16:16:12.796875,4.88
16:16:12.812500,4.99
16:16:12.828125,4.95
16:16:12.843750,4.73
16:16:12.859375,4.37
16:16:12.875000,3.98
16:16:12.890625,3.70
16:16:12.906250,3.63
16:16:12.921875,3.83
16:16:12.937500,4.23
16:16:12.953125,4.69
16:16:12.968750,5.02
16:16:12.984375,5.12
16:16:13,4.95
16:16:13.015625,4.60
16:16:13.031250,4.19
16:16:13.046875,3.80
16:16:13.062500,3.42
16:16:13.078125,2.97
16:16:13.093750,2.35
16:16:13.109375,1.53
16:16:13.125000,0.55
16:16:13.140625,-0.40
16:16:13.156250,-1.12
16:16:13.171875,-1.47
16:16:13.187500,-1.38
16:16:13.203125,-0.98
16:16:13.218750,-0.48
16:16:13.234375,-0.17
16:16:13.250000,-0.32
16:16:13.265625,-1.04
16:16:13.281250,-2.28
16:16:13.296875,-3.78
16:16:13.312500,-5.21
16:16:13.328125,-6.29
16:16:13.343750,-6.96
16:16:13.359375,-7.37
16:16:13.375000,-7.80
16:16:13.390625,-8.52
16:16:13.406250,-9.61
16:16:13.421875,-10.91
16:16:13.437500,-12.06
16:16:13.453125,-12.72
16:16:13.468750,-12.61
16:16:13.484375,-11.68
16:16:13.500000,-10.00
16:16:13.515625,-7.79
16:16:13.531250,-5.28
16:16:13.546875,-2.69
16:16:13.562500,-0.23
16:16:13.578125,1.92
16:16:13.593750,3.64
16:16:13.609375,4.88
16:16:13.625000,5.67
16:16:13.640625,6.11
16:16:13.656250,6.30
16:16:13.671875,6.34
16:16:13.687500,6.29
16:16:13.703125,6.20
16:16:13.718750,6.09
16:16:13.734375,5.95
16:16:13.750000,5.78
16:16:13.765625,5.56
16:16:13.781250,5.31
16:16:13.796875,5.06
16:16:13.812500,4.86
16:16:13.828125,4.75
16:16:13.843750,4.74
16:16:13.859375,4.77
16:16:13.875000,4.79
16:16:13.890625,4.72
16:16:13.906250,4.55
16:16:13.921875,4.30
16:16:13.937500,4.00
16:16:13.953125,3.67
16:16:13.968750,3.30
16:16:13.984375,2.83
16:16:14,2.20
16:16:14.015625,1.40
16:16:14.031250,0.47
16:16:14.046875,-0.50
16:16:14.062500,-1.41
16:16:14.078125,-2.14
16:16:14.093750,-2.69
16:16:14.109375,-3.06
16:16:14.125000,-3.34
16:16:14.140625,-3.58
16:16:14.156250,-3.81
16:16:14.171875,-4.02
16:16:14.187500,-4.21
16:16:14.203125,-4.41
16:16:14.218750,-4.72
16:16:14.234375,-5.26
16:16:14.250000,-6.11
16:16:14.265625,-7.22
16:16:14.281250,-8.43
16:16:14.296875,-9.45
16:16:14.312500,-10.01
16:16:14.328125,-9.93
16:16:14.343750,-9.19
16:16:14.359375,-7.91
16:16:14.375000,-6.27
16:16:14.390625,-4.48
16:16:14.406250,-2.65
16:16:14.421875,-0.84
16:16:14.437500,0.92
16:16:14.453125,2.59
16:16:14.468750,4.05
16:16:14.484375,5.18
16:16:14.500000,5.84
16:16:14.515625,6.03
16:16:14.531250,5.84
16:16:14.546875,5.46
16:16:14.562500,5.07
16:16:14.578125,4.78
16:16:14.593750,4.60
16:16:14.609375,4.47
16:16:14.625000,4.34
16:16:14.640625,4.19
16:16:14.656250,4.05
16:16:14.671875,3.93
16:16:14.687500,3.83
16:16:14.703125,3.75
16:16:14.718750,3.69
16:16:14.734375,3.65
16:16:14.750000,3.64
16:16:14.765625,3.65
16:16:14.781250,3.64
16:16:14.796875,3.52
16:16:14.812500,3.21
16:16:14.828125,2.71
16:16:14.843750,2.08
16:16:14.859375,1.44
16:16:14.875000,0.89
16:16:14.890625,0.44
16:16:14.906250,0.04
16:16:14.921875,-0.42
16:16:14.937500,-1.01
16:16:14.953125,-1.71
16:16:14.968750,-2.47
16:16:14.984375,-3.20
16:16:15,-3.83
16:16:15.015625,-4.34
16:16:15.031250,-4.77
16:16:15.046875,-5.17
16:16:15.062500,-5.57
16:16:15.078125,-6.00
16:16:15.093750,-6.50
16:16:15.109375,-7.08
16:16:15.125000,-7.80
16:16:15.140625,-8.66
16:16:15.156250,-9.57
16:16:15.171875,-10.35
16:16:15.187500,-10.76
16:16:15.203125,-10.57
16:16:15.218750,-9.60
16:16:15.234375,-7.84
16:16:15.250000,-5.45
16:16:15.265625,-2.72
16:16:15.281250,-0.04
16:16:15.296875,2.28
16:16:15.312500,4.03
16:16:15.328125,5.22
16:16:15.343750,5.96
16:16:15.359375,6.40
16:16:15.375000,6.65
16:16:15.390625,6.69
16:16:15.406250,6.48
16:16:15.421875,6.00
16:16:15.437500,5.39
16:16:15.453125,4.85
16:16:15.468750,4.61
16:16:15.484375,4.75
16:16:15.500000,5.17
16:16:15.515625,5.64
16:16:15.531250,5.96
16:16:15.546875,6.07
16:16:15.562500,6.08
16:16:15.578125,6.13
16:16:15.593750,6.27
16:16:15.609375,6.42
16:16:15.625000,6.36
16:16:15.640625,5.92
16:16:15.656250,5.06
16:16:15.671875,3.93
16:16:15.687500,2.78
16:16:15.703125,1.89
16:16:15.718750,1.36
16:16:15.734375,1.12
16:16:15.750000,1.04
16:16:15.765625,0.97
16:16:15.781250,0.86
16:16:15.796875,0.77
16:16:15.812500,0.82
16:16:15.828125,1.04
16:16:15.843750,1.34
16:16:15.859375,1.53
16:16:15.875000,1.43
16:16:15.890625,0.96
16:16:15.906250,0.18
16:16:15.921875,-0.74
16:16:15.937500,-1.59
16:16:15.953125,-2.26
16:16:15.968750,-2.74
16:16:15.984375,-3.10
16:16:16,-3.43
16:16:16.015625,-3.76
16:16:16.031250,-4.06
16:16:16.046875,-4.31
16:16:16.062500,-4.52
16:16:16.078125,-4.81
16:16:16.093750,-5.30
16:16:16.109375,-6.09
16:16:16.125000,-7.16
16:16:16.140625,-8.34
16:16:16.156250,-9.36
16:16:16.171875,-9.97
16:16:16.187500,-9.98
16:16:16.203125,-9.31
16:16:16.218750,-8.03
16:16:16.234375,-6.23
16:16:16.250000,-4.08
16:16:16.265625,-1.74
16:16:16.281250,0.56
16:16:16.296875,2.61
16:16:16.312500,4.21
16:16:16.328125,5.28
16:16:16.343750,5.82
16:16:16.359375,5.95
16:16:16.375000,5.85
16:16:16.390625,5.66
16:16:16.406250,5.47
16:16:16.421875,5.32
16:16:16.437500,5.21
16:16:16.453125,5.12
16:16:16.468750,5.08
16:16:16.484375,5.09
16:16:16.500000,5.17
16:16:16.515625,5.32
16:16:16.531250,5.50
16:16:16.546875,5.65
16:16:16.562500,5.71
16:16:16.578125,5.60
16:16:16.593750,5.33
16:16:16.609375,4.94
16:16:16.625000,4.51
16:16:16.640625,4.10
16:16:16.656250,3.71
16:16:16.671875,3.31
16:16:16.687500,2.84
16:16:16.703125,2.28
16:16:16.718750,1.72
16:16:16.734375,1.26
16:16:16.750000,1.00
16:16:16.765625,0.95
16:16:16.781250,1.01
16:16:16.796875,1.04
16:16:16.812500,0.93
16:16:16.828125,0.63
16:16:16.843750,0.21
16:16:16.859375,-0.25
16:16:16.875000,-0.64
16:16:16.890625,-0.95
16:16:16.906250,-1.19
16:16:16.921875,-1.40
16:16:16.937500,-1.63
16:16:16.953125,-1.92
16:16:16.968750,-2.29
16:16:16.984375,-2.74
16:16:17,-3.27
16:16:17.015625,-3.84
16:16:17.031250,-4.40
16:16:17.046875,-4.92
16:16:17.062500,-5.39
16:16:17.078125,-5.85
16:16:17.093750,-6.34
16:16:17.109375,-6.89
16:16:17.125000,-7.52
16:16:17.140625,-8.22
16:16:17.156250,-8.94
16:16:17.171875,-9.57
16:16:17.187500,-9.99
16:16:17.203125,-9.99
16:16:17.218750,-9.41
16:16:17.234375,-8.15
16:16:17.250000,-6.29
16:16:17.265625,-4.05
16:16:17.281250,-1.75
16:16:17.296875,0.30
16:16:17.312500,1.92
16:16:17.328125,3.08
16:16:17.343750,3.86
16:16:17.359375,4.37
16:16:17.375000,4.69
16:16:17.390625,4.88
16:16:17.406250,4.96
16:16:17.421875,4.99
16:16:17.437500,5.01
16:16:17.453125,5.04
16:16:17.468750,5.04
16:16:17.484375,4.96
16:16:17.500000,4.76
16:16:17.515625,4.49
16:16:17.531250,4.23
16:16:17.546875,4.10
16:16:17.562500,4.15
16:16:17.578125,4.33
16:16:17.593750,4.52
16:16:17.609375,4.63
16:16:17.625000,4.65
16:16:17.640625,4.63
16:16:17.656250,4.64
16:16:17.671875,4.69
16:16:17.687500,4.69
16:16:17.703125,4.53
16:16:17.718750,4.12
16:16:17.734375,3.48
16:16:17.750000,2.71
16:16:17.765625,1.98
16:16:17.781250,1.38
16:16:17.796875,0.95
16:16:17.812500,0.64
16:16:17.828125,0.37
16:16:17.843750,0.08
16:16:17.859375,-0.30
16:16:17.875000,-0.82
16:16:17.890625,-1.48
16:16:17.906250,-2.25
16:16:17.921875,-3.03
16:16:17.937500,-3.71
16:16:17.953125,-4.20
16:16:17.968750,-4.48
16:16:17.984375,-4.60
16:16:18,-4.64
16:16:18.015625,-4.70
16:16:18.031250,-4.84
16:16:18.046875,-5.09
16:16:18.062500,-5.51
16:16:18.078125,-6.11
16:16:18.093750,-6.89
16:16:18.109375,-7.74
16:16:18.125000,-8.49
16:16:18.140625,-8.91
16:16:18.156250,-8.78
16:16:18.171875,-7.98
16:16:18.187500,-6.54
16:16:18.203125,-4.61
16:16:18.218750,-2.42
16:16:18.234375,-0.26
16:16:18.250000,1.65
16:16:18.265625,3.16
16:16:18.281250,4.24
16:16:18.296875,4.94
16:16:18.312500,5.33
16:16:18.328125,5.46
16:16:18.343750,5.37
16:16:18.359375,5.07
16:16:18.375000,4.60
16:16:18.390625,4.09
16:16:18.406250,3.63
16:16:18.421875,3.31
16:16:18.437500,3.15
16:16:18.453125,3.11
16:16:18.468750,3.13
16:16:18.484375,3.19
16:16:18.500000,3.33
16:16:18.515625,3.56
16:16:18.531250,3.88
16:16:18.546875,4.23
16:16:18.562500,4.46
16:16:18.578125,4.47
16:16:18.593750,4.22
16:16:18.609375,3.77
16:16:18.625000,3.27
16:16:18.640625,2.86
16:16:18.656250,2.59
16:16:18.671875,2.39
16:16:18.687500,2.15
16:16:18.703125,1.73
16:16:18.718750,1.10
16:16:18.734375,0.34
16:16:18.750000,-0.38
16:16:18.765625,-0.91
16:16:18.781250,-1.16
16:16:18.796875,-1.14
16:16:18.812500,-1.01
16:16:18.828125,-0.91
16:16:18.843750,-0.99
16:16:18.859375,-1.31
16:16:18.875000,-1.83
16:16:18.890625,-2.47
16:16:18.906250,-3.14
16:16:18.921875,-3.79
16:16:18.937500,-4.40
16:16:18.953125,-5.02
16:16:18.968750,-5.65
16:16:18.984375,-6.27
16:16:19,-6.84
16:16:19.015625,-7.34
16:16:19.031250,-7.76
16:16:19.046875,-8.20
16:16:19.062500,-8.72
16:16:19.078125,-9.28
16:16:19.093750,-9.78
16:16:19.109375,-9.98
16:16:19.125000,-9.68
16:16:19.140625,-8.79
16:16:19.156250,-7.37
16:16:19.171875,-5.58
16:16:19.187500,-3.63
16:16:19.203125,-1.66
16:16:19.218750,0.21
16:16:19.234375,1.87
16:16:19.250000,3.23
16:16:19.265625,4.19
16:16:19.281250,4.72
16:16:19.296875,4.90
16:16:19.312500,4.88
16:16:19.328125,4.83
16:16:19.343750,4.79
16:16:19.359375,4.77
16:16:19.375000,4.67
16:16:19.390625,4.49
16:16:19.406250,4.28
16:16:19.421875,4.15
16:16:19.437500,4.18
16:16:19.453125,4.36
16:16:19.468750,4.62
16:16:19.484375,4.84
16:16:19.500000,4.94
16:16:19.515625,4.93
16:16:19.531250,4.88
16:16:19.546875,4.87
16:16:19.562500,4.92
16:16:19.578125,5.00
16:16:19.593750,5.04
16:16:19.609375,4.99
16:16:19.625000,4.80
16:16:19.640625,4.50
16:16:19.656250,4.13
16:16:19.671875,3.69
16:16:19.687500,3.21
16:16:19.703125,2.66
16:16:19.718750,2.02
16:16:19.734375,1.30
16:16:19.750000,0.53
16:16:19.765625,-0.23
16:16:19.781250,-0.87
16:16:19.796875,-1.36
16:16:19.812500,-1.66
16:16:19.828125,-1.83
16:16:19.843750,-1.94
16:16:19.859375,-2.03
16:16:19.875000,-2.16
16:16:19.890625,-2.32
16:16:19.906250,-2.51
16:16:19.921875,-2.71
16:16:19.937500,-2.93
16:16:19.953125,-3.18
16:16:19.968750,-3.46
16:16:19.984375,-3.83
16:16:20,-4.31
16:16:20.015625,-4.92
16:16:20.031250,-5.66
16:16:20.046875,-6.50
16:16:20.062500,-7.40
16:16:20.078125,-8.32
16:16:20.093750,-9.27
16:16:20.109375,-10.20
16:16:20.125000,-11.02
16:16:20.140625,-11.58
16:16:20.156250,-11.71
16:16:20.171875,-11.27
16:16:20.187500,-10.24
16:16:20.203125,-8.73
16:16:20.218750,-6.90
16:16:20.234375,-4.95
16:16:20.250000,-2.99
16:16:20.265625,-1.13
16:16:20.281250,0.56
16:16:20.296875,1.97
16:16:20.312500,2.98
16:16:20.328125,3.57
16:16:20.343750,3.78
16:16:20.359375,3.76
16:16:20.375000,3.72
16:16:20.390625,3.79
16:16:20.406250,4.00
16:16:20.421875,4.28
16:16:20.437500,4.51
16:16:20.453125,4.62
16:16:20.468750,4.64
16:16:20.484375,4.64
16:16:20.500000,4.65
16:16:20.515625,4.69
16:16:20.531250,4.68
16:16:20.546875,4.56
16:16:20.562500,4.31
16:16:20.578125,4.03
16:16:20.593750,3.82
16:16:20.609375,3.82
16:16:20.625000,4.03
16:16:20.640625,4.34
16:16:20.656250,4.59
16:16:20.671875,4.64
16:16:20.687500,4.45
16:16:20.703125,4.06
16:16:20.718750,3.60
16:16:20.734375,3.15
16:16:20.750000,2.81
16:16:20.765625,2.62
16:16:20.781250,2.61
16:16:20.796875,2.78
16:16:20.812500,3.09
16:16:20.828125,3.43
16:16:20.843750,3.69
16:16:20.859375,3.76
16:16:20.875000,3.63
16:16:20.890625,3.33
16:16:20.906250,2.96
16:16:20.921875,2.61
16:16:20.937500,2.29
16:16:20.953125,1.95
16:16:20.968750,1.49
16:16:20.984375,0.83
16:16:21,-0.05
16:16:21.015625,-1.07
16:16:21.031250,-2.10
16:16:21.046875,-2.97
16:16:21.062500,-3.59
16:16:21.078125,-3.96
16:16:21.093750,-4.19
16:16:21.109375,-4.48
16:16:21.125000,-5.01
16:16:21.140625,-5.86
16:16:21.156250,-6.95
16:16:21.171875,-8.08
16:16:21.187500,-9.01
16:16:21.203125,-9.54
16:16:21.218750,-9.55
16:16:21.234375,-9.01
16:16:21.250000,-7.96
16:16:21.265625,-6.45
16:16:21.281250,-4.56
16:16:21.296875,-2.44
16:16:21.312500,-0.29
16:16:21.328125,1.66
16:16:21.343750,3.25
16:16:21.359375,4.41
16:16:21.375000,5.18
16:16:21.390625,5.64
16:16:21.406250,5.87
16:16:21.421875,5.89
16:16:21.437500,5.71
16:16:21.453125,5.37
16:16:21.468750,4.96
16:16:21.484375,4.64
16:16:21.500000,4.52
16:16:21.515625,4.66
16:16:21.531250,5.02
16:16:21.546875,5.51
16:16:21.562500,5.99
16:16:21.578125,6.37
16:16:21.593750,6.62
16:16:21.609375,6.76
16:16:21.625000,6.81
16:16:21.640625,6.77
16:16:21.656250,6.62
16:16:21.671875,6.33
16:16:21.687500,5.88
16:16:21.703125,5.33
16:16:21.718750,4.78
16:16:21.734375,4.31
16:16:21.750000,3.97
16:16:21.765625,3.71
16:16:21.781250,3.40
16:16:21.796875,2.91
16:16:21.812500,2.18
16:16:21.828125,1.26
16:16:21.843750,0.26
16:16:21.859375,-0.66
16:16:21.875000,-1.39
16:16:21.890625,-1.90
16:16:21.906250,-2.21
16:16:21.921875,-2.41
16:16:21.937500,-2.56
16:16:21.953125,-2.72
16:16:21.968750,-2.92
16:16:21.984375,-3.14
16:16:22,-3.39
16:16:22.015625,-3.66
16:16:22.031250,-4.02
16:16:22.046875,-4.53
16:16:22.062500,-5.25
16:16:22.078125,-6.15
16:16:22.093750,-7.14
16:16:22.109375,-8.08
16:16:22.125000,-8.88
16:16:22.140625,-9.54
16:16:22.156250,-10.14
16:16:22.171875,-10.79
16:16:22.187500,-11.46
16:16:22.203125,-12.03
16:16:22.218750,-12.26
16:16:22.234375,-11.90
16:16:22.250000,-10.85
16:16:22.265625,-9.18
16:16:22.281250,-7.11
16:16:22.296875,-4.91
16:16:22.312500,-2.81
16:16:22.328125,-0.90
16:16:22.343750,0.80
16:16:22.359375,2.30
16:16:22.375000,3.58
16:16:22.390625,4.55
16:16:22.406250,5.11
16:16:22.421875,5.20
16:16:22.437500,4.88
16:16:22.453125,4.32
16:16:22.468750,3.71
16:16:22.484375,3.21
16:16:22.500000,2.91
16:16:22.515625,2.80
16:16:22.531250,2.84
16:16:22.546875,3.03
16:16:22.562500,3.36
16:16:22.578125,3.84
16:16:22.593750,4.43
16:16:22.609375,5.05
16:16:22.625000,5.55
16:16:22.640625,5.83
16:16:22.656250,5.85
16:16:22.671875,5.66
16:16:22.687500,5.30
16:16:22.703125,4.85
16:16:22.718750,4.36
16:16:22.734375,3.88
16:16:22.750000,3.45
16:16:22.765625,3.12
16:16:22.781250,2.93
16:16:22.796875,2.86
16:16:22.812500,2.85
16:16:22.828125,2.78
16:16:22.843750,2.53
16:16:22.859375,2.00
16:16:22.875000,1.20
16:16:22.890625,0.20
16:16:22.906250,-0.90
16:16:22.921875,-1.93
16:16:22.937500,-2.78
16:16:22.953125,-3.38
16:16:22.968750,-3.72
16:16:22.984375,-3.85
16:16:23,-3.87
16:16:23.015625,-3.86
16:16:23.031250,-3.90
16:16:23.046875,-4.05
16:16:23.062500,-4.31
16:16:23.078125,-4.69
16:16:23.093750,-5.18
16:16:23.109375,-5.77
16:16:23.125000,-6.48
16:16:23.140625,-7.32
16:16:23.156250,-8.27
16:16:23.171875,-9.18
16:16:23.187500,-9.84
16:16:23.203125,-9.96
16:16:23.218750,-9.33
16:16:23.234375,-7.90
16:16:23.250000,-5.85
16:16:23.265625,-3.51
16:16:23.281250,-1.21
16:16:23.296875,0.82
16:16:23.312500,2.51
16:16:23.328125,3.90
16:16:23.343750,5.02
16:16:23.359375,5.82
16:16:23.375000,6.20
16:16:23.390625,6.12
16:16:23.406250,5.64
16:16:23.421875,5.00
16:16:23.437500,4.50
16:16:23.453125,4.34
16:16:23.468750,4.59
16:16:23.484375,5.08
16:16:23.500000,5.55
16:16:23.515625,5.75
16:16:23.531250,5.61
16:16:23.546875,5.24
16:16:23.562500,4.84
16:16:23.578125,4.63
16:16:23.593750,4.65
16:16:23.609375,4.82
16:16:23.625000,4.92
16:16:23.640625,4.79
16:16:23.656250,4.40
16:16:23.671875,3.85
16:16:23.687500,3.33
16:16:23.703125,2.96
16:16:23.718750,2.77
16:16:23.734375,2.66
16:16:23.750000,2.49
16:16:23.765625,2.17
16:16:23.781250,1.71
16:16:23.796875,1.17
16:16:23.812500,0.63
16:16:23.828125,0.15
16:16:23.843750,-0.31
16:16:23.859375,-0.82
16:16:23.875000,-1.45
16:16:23.890625,-2.20
16:16:23.906250,-3.02
16:16:23.921875,-3.79
16:16:23.937500,-4.40
16:16:23.953125,-4.79
16:16:23.968750,-4.98
16:16:23.984375,-5.07
16:16:24,-5.19
16:16:24.015625,-5.45
16:16:24.031250,-5.88
16:16:24.046875,-6.47
16:16:24.062500,-7.19
16:16:24.078125,-8.00
16:16:24.093750,-8.83
16:16:24.109375,-9.58
16:16:24.125000,-10.06
16:16:24.140625,-10.04
16:16:24.156250,-9.35
16:16:24.171875,-7.95
16:16:24.187500,-5.97
16:16:24.203125,-3.73
16:16:24.218750,-1.61
16:16:24.234375,0.11
16:16:24.250000,1.32
16:16:24.265625,2.07
16:16:24.281250,2.55
16:16:24.296875,2.90
16:16:24.312500,3.22
16:16:24.328125,3.55
16:16:24.343750,3.91
16:16:24.359375,4.28
16:16:24.375000,4.69
16:16:24.390625,5.12
16:16:24.406250,5.52
16:16:24.421875,5.83
16:16:24.437500,5.98
16:16:24.453125,5.97
16:16:24.468750,5.87
16:16:24.484375,5.73
16:16:24.500000,5.61
16:16:24.515625,5.53
16:16:24.531250,5.45
16:16:24.546875,5.33
16:16:24.562500,5.15
16:16:24.578125,4.94
16:16:24.593750,4.74
16:16:24.609375,4.56
16:16:24.625000,4.37
16:16:24.640625,4.14
16:16:24.656250,3.83
16:16:24.671875,3.42
16:16:24.687500,2.95
16:16:24.703125,2.45
16:16:24.718750,1.96
16:16:24.734375,1.46
16:16:24.750000,0.97
16:16:24.765625,0.51
16:16:24.781250,0.10
16:16:24.796875,-0.26
16:16:24.812500,-0.58
16:16:24.828125,-0.92
16:16:24.843750,-1.31
16:16:24.859375,-1.74
16:16:24.875000,-2.16
16:16:24.890625,-2.48
16:16:24.906250,-2.68
16:16:24.921875,-2.79
16:16:24.937500,-2.95
16:16:24.953125,-3.31
16:16:24.968750,-3.97
16:16:24.984375,-4.89
16:16:25,-5.97
16:16:25.015625,-7.01
16:16:25.031250,-7.86
16:16:25.046875,-8.37
16:16:25.062500,-8.45
16:16:25.078125,-8.06
16:16:25.093750,-7.16
16:16:25.109375,-5.83
16:16:25.125000,-4.17
16:16:25.140625,-2.37
16:16:25.156250,-0.62
16:16:25.171875,0.90
16:16:25.187500,2.07
16:16:25.203125,2.86
16:16:25.218750,3.29
16:16:25.234375,3.45
16:16:25.250000,3.48
16:16:25.265625,3.51
16:16:25.281250,3.62
16:16:25.296875,3.83
16:16:25.312500,4.09
16:16:25.328125,4.29
16:16:25.343750,4.32
16:16:25.359375,4.17
16:16:25.375000,3.91
16:16:25.390625,3.74
16:16:25.406250,3.78
16:16:25.421875,4.12
16:16:25.437500,4.67
16:16:25.453125,5.24
16:16:25.468750,5.62
16:16:25.484375,5.68
16:16:25.500000,5.41
16:16:25.515625,4.88
16:16:25.531250,4.24
16:16:25.546875,3.61
16:16:25.562500,3.09
16:16:25.578125,2.72
16:16:25.593750,2.49
16:16:25.609375,2.35
16:16:25.625000,2.26
16:16:25.640625,2.16
16:16:25.656250,2.01
16:16:25.671875,1.81
16:16:25.687500,1.55
16:16:25.703125,1.25
16:16:25.718750,0.92
16:16:25.734375,0.61
16:16:25.750000,0.33
16:16:25.765625,0.11
16:16:25.781250,-0.05
16:16:25.796875,-0.20
16:16:25.812500,-0.43
16:16:25.828125,-0.81
16:16:25.843750,-1.36
16:16:25.859375,-2.01
16:16:25.875000,-2.66
16:16:25.890625,-3.23
16:16:25.906250,-3.72
16:16:25.921875,-4.16
16:16:25.937500,-4.61
16:16:25.953125,-5.06
16:16:25.968750,-5.49
16:16:25.984375,-5.85
16:16:26,-6.17
16:16:26.015625,-6.52
16:16:26.031250,-7.02
16:16:26.046875,-7.67
16:16:26.062500,-8.41
16:16:26.078125,-9.06
16:16:26.093750,-9.37
16:16:26.109375,-9.20
16:16:26.125000,-8.48
16:16:26.140625,-7.26
16:16:26.156250,-5.67
16:16:26.171875,-3.89
16:16:26.187500,-2.09
16:16:26.203125,-0.41
16:16:26.218750,1.00
16:16:26.234375,2.11
16:16:26.250000,2.88
16:16:26.265625,3.39
16:16:26.281250,3.71
16:16:26.296875,3.94
16:16:26.312500,4.09
16:16:26.328125,4.16
16:16:26.343750,4.15
16:16:26.359375,4.07
16:16:26.375000,3.99
16:16:26.390625,3.98
16:16:26.406250,4.11
16:16:26.421875,4.33
16:16:26.437500,4.57
16:16:26.453125,4.71
16:16:26.468750,4.71
16:16:26.484375,4.56
16:16:26.500000,4.34
16:16:26.515625,4.15
16:16:26.531250,4.02
16:16:26.546875,3.97
16:16:26.562500,3.93
16:16:26.578125,3.84
16:16:26.593750,3.66
16:16:26.609375,3.36
16:16:26.625000,2.96
16:16:26.640625,2.49
16:16:26.656250,2.02
16:16:26.671875,1.63
16:16:26.687500,1.37
16:16:26.703125,1.26
16:16:26.718750,1.29
16:16:26.734375,1.39
16:16:26.750000,1.44
16:16:26.765625,1.35
16:16:26.781250,1.05
16:16:26.796875,0.53
16:16:26.812500,-0.10
16:16:26.828125,-0.72
16:16:26.843750,-1.18
16:16:26.859375,-1.40
16:16:26.875000,-1.37
16:16:26.890625,-1.19
16:16:26.906250,-1.00
16:16:26.921875,-0.92
16:16:26.937500,-1.00
16:16:26.953125,-1.22
16:16:26.968750,-1.52
16:16:26.984375,-1.81
16:16:27,-2.06
16:16:27.015625,-2.28
16:16:27.031250,-2.56
16:16:27.046875,-2.97
16:16:27.062500,-3.54
16:16:27.078125,-4.23
16:16:27.093750,-4.89
16:16:27.109375,-5.38
16:16:27.125000,-5.64
16:16:27.140625,-5.76
16:16:27.156250,-5.93
16:16:27.171875,-6.34
16:16:27.187500,-7.09
16:16:27.203125,-8.10
16:16:27.218750,-9.11
16:16:27.234375,-9.85
16:16:27.250000,-10.12
16:16:27.265625,-9.85
16:16:27.281250,-9.09
16:16:27.296875,-7.94
16:16:27.312500,-6.50
16:16:27.328125,-4.86
16:16:27.343750,-3.12
16:16:27.359375,-1.46
16:16:27.375000,-0.06
16:16:27.390625,0.93
16:16:27.406250,1.50
16:16:27.421875,1.79
16:16:27.437500,2.00
16:16:27.453125,2.33
16:16:27.468750,2.86
16:16:27.484375,3.49
16:16:27.500000,4.09
16:16:27.515625,4.50
16:16:27.531250,4.68
16:16:27.546875,4.68
16:16:27.562500,4.61
16:16:27.578125,4.55
16:16:27.593750,4.52
16:16:27.609375,4.52
16:16:27.625000,4.51
16:16:27.640625,4.50
16:16:27.656250,4.54
16:16:27.671875,4.67
16:16:27.687500,4.86
16:16:27.703125,5.03
16:16:27.718750,5.05
16:16:27.734375,4.81
16:16:27.750000,4.30
16:16:27.765625,3.64
16:16:27.781250,2.99
16:16:27.796875,2.51
16:16:27.812500,2.25
16:16:27.828125,2.13
16:16:27.843750,1.99
16:16:27.859375,1.67
16:16:27.875000,1.15
16:16:27.890625,0.50
16:16:27.906250,-0.11
16:16:27.921875,-0.53
16:16:27.937500,-0.72
16:16:27.953125,-0.76
16:16:27.968750,-0.80
16:16:27.984375,-0.94
16:16:28,-1.19
16:16:28.015625,-1.50
16:16:28.031250,-1.78
16:16:28.046875,-2.06
16:16:28.062500,-2.37
16:16:28.078125,-2.78
16:16:28.093750,-3.32
16:16:28.109375,-3.93
16:16:28.125000,-4.55
16:16:28.140625,-5.11
16:16:28.156250,-5.64
16:16:28.171875,-6.20
16:16:28.187500,-6.83
16:16:28.203125,-7.46
16:16:28.218750,-7.89
16:16:28.234375,-7.92
16:16:28.250000,-7.41
16:16:28.265625,-6.42
16:16:28.281250,-5.13
16:16:28.296875,-3.78
16:16:28.312500,-2.56
16:16:28.328125,-1.51
16:16:28.343750,-0.61
16:16:28.359375,0.21
16:16:28.375000,0.95
16:16:28.390625,1.57
16:16:28.406250,2.01
16:16:28.421875,2.23
16:16:28.437500,2.25
16:16:28.453125,2.17
16:16:28.468750,2.04
16:16:28.484375,1.92
16:16:28.500000,1.79
16:16:28.515625,1.66
16:16:28.531250,1.52
16:16:28.546875,1.39
16:16:28.562500,1.34
16:16:28.578125,1.44
16:16:28.593750,1.74
16:16:28.609375,2.23
16:16:28.625000,2.84
16:16:28.640625,3.46
16:16:28.656250,3.98
16:16:28.671875,4.33
16:16:28.687500,4.47
16:16:28.703125,4.41
16:16:28.718750,4.19
16:16:28.734375,3.84
16:16:28.750000,3.34
16:16:28.765625,2.70
16:16:28.781250,1.94
16:16:28.796875,1.12
16:16:28.812500,0.34
16:16:28.828125,-0.26
16:16:28.843750,-0.60
16:16:28.859375,-0.67
16:16:28.875000,-0.57
16:16:28.890625,-0.46
16:16:28.906250,-0.49
16:16:28.921875,-0.74
16:16:28.937500,-1.17
16:16:28.953125,-1.67
16:16:28.968750,-2.12
16:16:28.984375,-2.45
16:16:29,-2.71
16:16:29.015625,-3.03
16:16:29.031250,-3.51
16:16:29.046875,-4.20
16:16:29.062500,-5.08
16:16:29.078125,-6.03
16:16:29.093750,-6.96
16:16:29.109375,-7.73
16:16:29.125000,-8.21
16:16:29.140625,-8.24
16:16:29.156250,-7.67
16:16:29.171875,-6.45
16:16:29.187500,-4.69
16:16:29.203125,-2.67
16:16:29.218750,-0.71
16:16:29.234375,0.91
16:16:29.250000,2.09
16:16:29.265625,2.89
16:16:29.281250,3.45
16:16:29.296875,3.89
16:16:29.312500,4.21
16:16:29.328125,4.35
16:16:29.343750,4.24
16:16:29.359375,3.87
16:16:29.375000,3.38
16:16:29.390625,2.96
16:16:29.406250,2.77
16:16:29.421875,2.83
16:16:29.437500,3.05
16:16:29.453125,3.25
16:16:29.468750,3.34
16:16:29.484375,3.30
16:16:29.500000,3.24
16:16:29.515625,3.28
16:16:29.531250,3.44
16:16:29.546875,3.68
16:16:29.562500,3.83
16:16:29.578125,3.75
16:16:29.593750,3.41
16:16:29.609375,2.87
16:16:29.625000,2.31
16:16:29.640625,1.87
16:16:29.656250,1.60
16:16:29.671875,1.43
16:16:29.687500,1.21
16:16:29.703125,0.81
16:16:29.718750,0.14
16:16:29.734375,-0.76
16:16:29.750000,-1.80
16:16:29.765625,-2.80
16:16:29.781250,-3.59
16:16:29.796875,-4.05
16:16:29.812500,-4.17
16:16:29.828125,-4.06
16:16:29.843750,-3.95
16:16:29.859375,-4.07
16:16:29.875000,-4.60
16:16:29.890625,-5.57
16:16:29.906250,-6.82
16:16:29.921875,-8.07
16:16:29.937500,-9.01
16:16:29.953125,-9.37
16:16:29.968750,-9.03
16:16:29.984375,-7.99
16:16:30,-6.35
16:16:30.015625,-4.30
16:16:30.031250,-2.05
16:16:30.046875,0.15
16:16:30.062500,2.08
16:16:30.078125,3.59
16:16:30.093750,4.60
16:16:30.109375,5.15
16:16:30.125000,5.37
16:16:30.140625,5.41
16:16:30.156250,5.39
16:16:30.171875,5.37
16:16:30.187500,5.34
16:16:30.203125,5.28
16:16:30.218750,5.13
16:16:30.234375,4.88
16:16:30.250000,4.53
16:16:30.265625,4.13
16:16:30.281250,3.80
16:16:30.296875,3.65
16:16:30.312500,3.75
16:16:30.328125,4.10
16:16:30.343750,4.60
16:16:30.359375,5.06
16:16:30.375000,5.31
16:16:30.390625,5.30
16:16:30.406250,5.06
16:16:30.421875,4.73
16:16:30.437500,4.43
16:16:30.453125,4.20
16:16:30.468750,3.96
16:16:30.484375,3.62
16:16:30.500000,3.12
16:16:30.515625,2.53
16:16:30.531250,2.00
16:16:30.546875,1.66
16:16:30.562500,1.53
16:16:30.578125,1.51
16:16:30.593750,1.39
16:16:30.609375,0.99
16:16:30.625000,0.23
16:16:30.640625,-0.82
16:16:30.656250,-2.02
16:16:30.671875,-3.18
16:16:30.687500,-4.16
16:16:30.703125,-4.88
16:16:30.718750,-5.31
16:16:30.734375,-5.48
16:16:30.750000,-5.49
16:16:30.765625,-5.47
16:16:30.781250,-5.57
16:16:30.796875,-5.95
16:16:30.812500,-6.69
16:16:30.828125,-7.73
16:16:30.843750,-8.94
16:16:30.859375,-10.06
16:16:30.875000,-10.79
16:16:30.890625,-10.89
16:16:30.906250,-10.18
16:16:30.921875,-8.67
16:16:30.937500,-6.51
16:16:30.953125,-3.96
16:16:30.968750,-1.37
16:16:30.984375,0.96
16:16:31,2.82
16:16:31.015625,4.12
16:16:31.031250,4.87
16:16:31.046875,5.20
16:16:31.062500,5.25
16:16:31.078125,5.17
16:16:31.093750,5.08
16:16:31.109375,5.05
16:16:31.125000,5.10
16:16:31.140625,5.21
16:16:31.156250,5.36
16:16:31.171875,5.55
16:16:31.187500,5.78
16:16:31.203125,6.05
16:16:31.218750,6.32
16:16:31.234375,6.48
16:16:31.250000,6.42
16:16:31.265625,6.09
16:16:31.281250,5.57
16:16:31.296875,5.01
16:16:31.312500,4.60
16:16:31.328125,4.47
16:16:31.343750,4.62
16:16:31.359375,4.90
16:16:31.375000,5.12
16:16:31.390625,5.13
16:16:31.406250,4.84
16:16:31.421875,4.29
16:16:31.437500,3.60
16:16:31.453125,2.91
16:16:31.468750,2.34
16:16:31.484375,1.96
16:16:31.500000,1.72
16:16:31.515625,1.54
16:16:31.531250,1.29
16:16:31.546875,0.91
16:16:31.562500,0.40
16:16:31.578125,-0.15
16:16:31.593750,-0.67
16:16:31.609375,-1.11
16:16:31.625000,-1.50
16:16:31.640625,-1.89
16:16:31.656250,-2.34
16:16:31.671875,-2.86
16:16:31.687500,-3.39
16:16:31.703125,-3.87
16:16:31.718750,-4.25
16:16:31.734375,-4.57
16:16:31.750000,-4.85
16:16:31.765625,-5.13
16:16:31.781250,-5.42
16:16:31.796875,-5.71
16:16:31.812500,-6.04
16:16:31.828125,-6.48
16:16:31.843750,-7.07
16:16:31.859375,-7.82
16:16:31.875000,-8.63
16:16:31.890625,-9.34
16:16:31.906250,-9.75
16:16:31.921875,-9.67
16:16:31.937500,-9.04
16:16:31.953125,-7.85
16:16:31.968750,-6.19
16:16:31.984375,-4.24
16:16:32,-2.18
16:16:32.015625,-0.18
16:16:32.031250,1.65
16:16:32.046875,3.26
16:16:32.062500,4.62
16:16:32.078125,5.71
16:16:32.093750,6.50
16:16:32.109375,6.94
16:16:32.125000,7.02
16:16:32.140625,6.76
16:16:32.156250,6.23
16:16:32.171875,5.55
16:16:32.187500,4.81
16:16:32.203125,4.13
16:16:32.218750,3.61
16:16:32.234375,3.33
16:16:32.250000,3.37
16:16:32.265625,3.76
16:16:32.281250,4.43
16:16:32.296875,5.22
16:16:32.312500,5.98
16:16:32.328125,6.54
16:16:32.343750,6.80
16:16:32.359375,6.76
16:16:32.375000,6.43
16:16:32.390625,5.89
16:16:32.406250,5.21
16:16:32.421875,4.49
16:16:32.437500,3.85
16:16:32.453125,3.38
16:16:32.468750,3.15
16:16:32.484375,3.12
16:16:32.500000,3.18
16:16:32.515625,3.19
16:16:32.531250,3.00
16:16:32.546875,2.55
16:16:32.562500,1.89
16:16:32.578125,1.15
16:16:32.593750,0.53
16:16:32.609375,0.16
16:16:32.625000,0.06
16:16:32.640625,0.12
16:16:32.656250,0.16
16:16:32.671875,0.05
16:16:32.687500,-0.29
16:16:32.703125,-0.81
16:16:32.718750,-1.39
16:16:32.734375,-1.93
16:16:32.750000,-2.40
16:16:32.765625,-2.86
16:16:32.781250,-3.39
16:16:32.796875,-4.05
16:16:32.812500,-4.78
16:16:32.828125,-5.47
16:16:32.843750,-6.00
16:16:32.859375,-6.33
16:16:32.875000,-6.50
16:16:32.890625,-6.66
16:16:32.906250,-6.94
16:16:32.921875,-7.45
16:16:32.937500,-8.19
16:16:32.953125,-9.07
16:16:32.968750,-9.91
16:16:32.984375,-10.50
16:16:33,-10.64
16:16:33.015625,-10.22
16:16:33.031250,-9.24
16:16:33.046875,-7.79
16:16:33.062500,-6.05
16:16:33.078125,-4.16
16:16:33.093750,-2.22
16:16:33.109375,-0.31
16:16:33.125000,1.51
16:16:33.140625,3.15
16:16:33.156250,4.45
16:16:33.171875,5.31
16:16:33.187500,5.68
16:16:33.203125,5.62
16:16:33.218750,5.30
16:16:33.234375,4.89
16:16:33.250000,4.49
16:16:33.265625,4.11
16:16:33.281250,3.74
16:16:33.296875,3.36
16:16:33.312500,3.03
16:16:33.328125,2.84
16:16:33.343750,2.88
16:16:33.359375,3.18
16:16:33.375000,3.69
16:16:33.390625,4.31
16:16:33.406250,4.89
16:16:33.421875,5.33
16:16:33.437500,5.56
16:16:33.453125,5.60
16:16:33.468750,5.47
16:16:33.484375,5.25
16:16:33.500000,4.96
16:16:33.515625,4.62
16:16:33.531250,4.22
16:16:33.546875,3.78
16:16:33.562500,3.30
16:16:33.578125,2.82
16:16:33.593750,2.35
16:16:33.609375,1.89
16:16:33.625000,1.47
16:16:33.640625,1.06
16:16:33.656250,0.65
16:16:33.671875,0.24
16:16:33.687500,-0.16
16:16:33.703125,-0.55
16:16:33.718750,-0.92
16:16:33.734375,-1.24
16:16:33.750000,-1.54
16:16:33.765625,-1.83
16:16:33.781250,-2.13
16:16:33.796875,-2.46
16:16:33.812500,-2.82
16:16:33.828125,-3.19
16:16:33.843750,-3.56
16:16:33.859375,-3.91
16:16:33.875000,-4.28
16:16:33.890625,-4.69
16:16:33.906250,-5.14
16:16:33.921875,-5.63
16:16:33.937500,-6.11
16:16:33.953125,-6.56
16:16:33.968750,-7.00
16:16:33.984375,-7.49
16:16:34,-8.10
16:16:34.015625,-8.82
16:16:34.031250,-9.58
16:16:34.046875,-10.23
16:16:34.062500,-10.58
16:16:34.078125,-10.48
16:16:34.093750,-9.87
16:16:34.109375,-8.74
16:16:34.125000,-7.17
16:16:34.140625,-5.26
16:16:34.156250,-3.13
16:16:34.171875,-0.89
16:16:34.187500,1.30
16:16:34.203125,3.32
16:16:34.218750,4.96
16:16:34.234375,6.08
16:16:34.250000,6.54
16:16:34.265625,6.37
16:16:34.281250,5.72
16:16:34.296875,4.89
16:16:34.312500,4.19
16:16:34.328125,3.85
16:16:34.343750,3.94
16:16:34.359375,4.34
16:16:34.375000,4.85
16:16:34.390625,5.28
16:16:34.406250,5.57
16:16:34.421875,5.73
16:16:34.437500,5.85
16:16:34.453125,5.97
16:16:34.468750,6.04
16:16:34.484375,6.00
16:16:34.500000,5.75
16:16:34.515625,5.29
16:16:34.531250,4.68
16:16:34.546875,4.05
16:16:34.562500,3.55
16:16:34.578125,3.24
16:16:34.593750,3.12
16:16:34.609375,3.13
16:16:34.625000,3.17
16:16:34.640625,3.15
16:16:34.656250,2.98
16:16:34.671875,2.64
16:16:34.687500,2.12
16:16:34.703125,1.44
16:16:34.718750,0.64
16:16:34.734375,-0.22
16:16:34.750000,-1.07
16:16:34.765625,-1.81
16:16:34.781250,-2.35
16:16:34.796875,-2.66
16:16:34.812500,-2.72
16:16:34.828125,-2.61
16:16:34.843750,-2.42
16:16:34.859375,-2.27
16:16:34.875000,-2.22
16:16:34.890625,-2.36
16:16:34.906250,-2.71
16:16:34.921875,-3.29
16:16:34.937500,-4.06
16:16:34.953125,-4.93
16:16:34.968750,-5.83
16:16:34.984375,-6.68
16:16:35,-7.48
16:16:35.015625,-8.26
16:16:35.031250,-9.08
16:16:35.046875,-9.90
16:16:35.062500,-10.62
16:16:35.078125,-11.04
16:16:35.093750,-10.99
16:16:35.109375,-10.37
16:16:35.125000,-9.22
16:16:35.140625,-7.68
16:16:35.156250,-5.92
16:16:35.171875,-4.08
16:16:35.187500,-2.25
16:16:35.203125,-0.50
16:16:35.218750,1.09
16:16:35.234375,2.42
16:16:35.250000,3.43
16:16:35.265625,4.10
16:16:35.281250,4.53
16:16:35.296875,4.83
16:16:35.312500,5.13
16:16:35.328125,5.46
16:16:35.343750,5.78
16:16:35.359375,5.98
16:16:35.375000,6.00
16:16:35.390625,5.80
16:16:35.406250,5.45
16:16:35.421875,5.07
16:16:35.437500,4.80
16:16:35.453125,4.70
16:16:35.468750,4.78
16:16:35.484375,4.98
16:16:35.500000,5.24
16:16:35.515625,5.49
16:16:35.531250,5.71
16:16:35.546875,5.88
16:16:35.562500,5.95
16:16:35.578125,5.84
16:16:35.593750,5.47
16:16:35.609375,4.84
16:16:35.625000,4.01
16:16:35.640625,3.14
16:16:35.656250,2.39
16:16:35.671875,1.84
16:16:35.687500,1.49
16:16:35.703125,1.26
16:16:35.718750,1.07
16:16:35.734375,0.84
16:16:35.750000,0.57
16:16:35.765625,0.27
16:16:35.781250,-0.01
16:16:35.796875,-0.27
16:16:35.812500,-0.50
16:16:35.828125,-0.69
16:16:35.843750,-0.88
16:16:35.859375,-1.10
16:16:35.875000,-1.46
16:16:35.890625,-2.01
16:16:35.906250,-2.80
16:16:35.921875,-3.79
16:16:35.937500,-4.84
16:16:35.953125,-5.80
16:16:35.968750,-6.51
16:16:35.984375,-6.94
16:16:36,-7.14
16:16:36.015625,-7.21
16:16:36.031250,-7.26
16:16:36.046875,-7.40
16:16:36.062500,-7.67
16:16:36.078125,-8.12
16:16:36.093750,-8.77
16:16:36.109375,-9.59
16:16:36.125000,-10.50
16:16:36.140625,-11.29
16:16:36.156250,-11.70
16:16:36.171875,-11.48
16:16:36.187500,-10.48
16:16:36.203125,-8.71
16:16:36.218750,-6.36
16:16:36.234375,-3.68
16:16:36.250000,-0.97
16:16:36.265625,1.53
16:16:36.281250,3.67
16:16:36.296875,5.33
16:16:36.312500,6.49
16:16:36.328125,7.19
16:16:36.343750,7.46
16:16:36.359375,7.41
16:16:36.375000,7.09
16:16:36.390625,6.58
16:16:36.406250,5.93
16:16:36.421875,5.28
16:16:36.437500,4.80
16:16:36.453125,4.62
16:16:36.468750,4.76
16:16:36.484375,5.12
16:16:36.500000,5.50
16:16:36.515625,5.70
16:16:36.531250,5.67
16:16:36.546875,5.51
16:16:36.562500,5.40
16:16:36.578125,5.45
16:16:36.593750,5.63
16:16:36.609375,5.78
16:16:36.625000,5.74
16:16:36.640625,5.43
16:16:36.656250,4.94
16:16:36.671875,4.43
16:16:36.687500,4.05
16:16:36.703125,3.83
16:16:36.718750,3.70
16:16:36.734375,3.53
16:16:36.750000,3.22
16:16:36.765625,2.75
16:16:36.781250,2.17
16:16:36.796875,1.53
16:16:36.812500,0.87
16:16:36.828125,0.20
16:16:36.843750,-0.50
16:16:36.859375,-1.20
16:16:36.875000,-1.85
16:16:36.890625,-2.41
16:16:36.906250,-2.84
16:16:36.921875,-3.18
16:16:36.937500,-3.47
16:16:36.953125,-3.78
16:16:36.968750,-4.13
16:16:36.984375,-4.52
16:16:37,-4.92
16:16:37.015625,-5.33
16:16:37.031250,-5.83
16:16:37.046875,-6.51
16:16:37.062500,-7.49
16:16:37.078125,-8.77
16:16:37.093750,-10.21
16:16:37.109375,-11.52
16:16:37.125000,-12.37
16:16:37.140625,-12.48
16:16:37.156250,-11.73
16:16:37.171875,-10.18
16:16:37.187500,-8.01
16:16:37.203125,-5.50
16:16:37.218750,-2.91
16:16:37.234375,-0.49
16:16:37.250000,1.59
16:16:37.265625,3.19
16:16:37.281250,4.27
16:16:37.296875,4.87
16:16:37.312500,5.17
16:16:37.328125,5.33
16:16:37.343750,5.52
16:16:37.359375,5.78
16:16:37.375000,6.04
16:16:37.390625,6.20
16:16:37.406250,6.20
16:16:37.421875,6.09
16:16:37.437500,5.99
16:16:37.453125,6.02
16:16:37.468750,6.17
16:16:37.484375,6.35
16:16:37.500000,6.43
16:16:37.515625,6.35
16:16:37.531250,6.15
16:16:37.546875,5.98
16:16:37.562500,5.96
16:16:37.578125,6.10
16:16:37.593750,6.25
16:16:37.609375,6.20
16:16:37.625000,5.82
16:16:37.640625,5.12
16:16:37.656250,4.27
16:16:37.671875,3.51
16:16:37.687500,3.00
16:16:37.703125,2.74
16:16:37.718750,2.62
16:16:37.734375,2.46
16:16:37.750000,2.13
16:16:37.765625,1.63
16:16:37.781250,1.02
16:16:37.796875,0.42
16:16:37.812500,-0.08
16:16:37.828125,-0.47
16:16:37.843750,-0.79
16:16:37.859375,-1.09
16:16:37.875000,-1.37
16:16:37.890625,-1.61
16:16:37.906250,-1.75
16:16:37.921875,-1.81
16:16:37.937500,-1.87
16:16:37.953125,-2.05
16:16:37.968750,-2.44
16:16:37.984375,-3.05
16:16:38,-3.77
16:16:38.015625,-4.46
16:16:38.031250,-5.03
16:16:38.046875,-5.46
16:16:38.062500,-5.78
16:16:38.078125,-6.10
16:16:38.093750,-6.49
16:16:38.109375,-6.98
16:16:38.125000,-7.60
16:16:38.140625,-8.35
16:16:38.156250,-9.20
16:16:38.171875,-10.08
16:16:38.187500,-10.80
16:16:38.203125,-11.14
16:16:38.218750,-10.92
16:16:38.234375,-10.01
16:16:38.250000,-8.42
16:16:38.265625,-6.29
16:16:38.281250,-3.83
16:16:38.296875,-1.29
16:16:38.312500,1.07
16:16:38.328125,3.06
16:16:38.343750,4.56
16:16:38.359375,5.58
16:16:38.375000,6.25
16:16:38.390625,6.74
16:16:38.406250,7.17
16:16:38.421875,7.55
16:16:38.437500,7.78
16:16:38.453125,7.73
16:16:38.468750,7.32
16:16:38.484375,6.63
16:16:38.500000,5.85
16:16:38.515625,5.22
16:16:38.531250,4.90
16:16:38.546875,4.90
16:16:38.562500,5.08
16:16:38.578125,5.29
16:16:38.593750,5.43
16:16:38.609375,5.50
16:16:38.625000,5.57
16:16:38.640625,5.67
16:16:38.656250,5.75
16:16:38.671875,5.72
16:16:38.687500,5.48
16:16:38.703125,5.03
16:16:38.718750,4.44
16:16:38.734375,3.88
16:16:38.750000,3.49
16:16:38.765625,3.29
16:16:38.781250,3.17
16:16:38.796875,2.96
16:16:38.812500,2.50
16:16:38.828125,1.78
16:16:38.843750,0.91
16:16:38.859375,0.08
16:16:38.875000,-0.52
16:16:38.890625,-0.80
16:16:38.906250,-0.80
16:16:38.921875,-0.67
16:16:38.937500,-0.60
16:16:38.953125,-0.77
16:16:38.968750,-1.27
16:16:38.984375,-2.07
16:16:39,-3.07
16:16:39.015625,-4.09
16:16:39.031250,-4.97
16:16:39.046875,-5.60
16:16:39.062500,-5.95
16:16:39.078125,-6.11
16:16:39.093750,-6.21
16:16:39.109375,-6.41
16:16:39.125000,-6.85
16:16:39.140625,-7.57
16:16:39.156250,-8.55
16:16:39.171875,-9.66
16:16:39.187500,-10.71
16:16:39.203125,-11.45
16:16:39.218750,-11.65
16:16:39.234375,-11.10
16:16:39.250000,-9.73
16:16:39.265625,-7.61
16:16:39.281250,-5.00
16:16:39.296875,-2.24
16:16:39.312500,0.31
16:16:39.328125,2.39
16:16:39.343750,3.90
16:16:39.359375,4.91
16:16:39.375000,5.53
16:16:39.390625,5.90
16:16:39.406250,6.07
16:16:39.421875,6.06
16:16:39.437500,5.87
16:16:39.453125,5.57
16:16:39.468750,5.25
16:16:39.484375,5.05
16:16:39.500000,5.03
16:16:39.515625,5.19
