16:13:16,-0.00
16:13:16.015625,-0.00
16:13:16.031250,-0.00
16:13:16.046875,-0.00
16:13:16.062500,-0.00
16:13:16.078125,-0.00
16:13:16.093750,-0.00
16:13:16.109375,-0.00
16:13:16.125000,-0.00
16:13:16.140625,-0.00
16:13:16.156250,0.00
16:13:16.171875,0.01
16:13:16.187500,0.01
16:13:16.203125,-0.00
16:13:16.218750,-0.03
16:13:16.234375,-0.05
16:13:16.250000,-0.05
16:13:16.265625,0.00
16:13:16.281250,0.13
16:13:16.296875,0.36
16:13:16.312500,0.66
16:13:16.328125,1.01
16:13:16.343750,1.37
16:13:16.359375,1.72
16:13:16.375000,2.06
16:13:16.390625,2.40
16:13:16.406250,2.79
16:13:16.421875,3.24
16:13:16.437500,3.80
16:13:16.453125,4.42
16:13:16.468750,5.06
16:13:16.484375,5.66
16:13:16.500000,6.20
16:13:16.515625,6.68
16:13:16.531250,7.15
16:13:16.546875,7.68
16:13:16.562500,8.31
16:13:16.578125,9.14
16:13:16.593750,10.09
16:13:16.609375,11.04
16:13:16.625000,11.88
16:13:16.640625,12.56
16:13:16.656250,13.14
16:13:16.671875,13.76
16:13:16.687500,14.65
16:13:16.703125,15.96
16:13:16.718750,17.91
16:13:16.734375,20.32
16:13:16.750000,22.90
16:13:16.765625,25.38
16:13:16.781250,27.58
16:13:16.796875,29.57
16:13:16.812500,31.68
16:13:16.828125,34.32
16:13:16.843750,37.81
16:13:16.859375,42.54
16:13:16.875000,48.15
16:13:16.890625,54.10
16:13:16.906250,59.83
16:13:16.921875,64.97
16:13:16.937500,69.58
16:13:16.953125,74.14
16:13:16.968750,79.34
16:13:16.984375,85.71
16:13:17,93.76
16:13:17.015625,103.00
16:13:17.031250,112.62
16:13:17.046875,121.73
16:13:17.062500,129.77
16:13:17.078125,136.75
16:13:17.093750,143.30
16:13:17.109375,150.75
16:13:17.125000,157.77
16:13:17.140625,166.64
16:13:17.156250,177.95
16:13:17.171875,191.79
16:13:17.187500,206.97
16:13:17.203125,220.57
16:13:17.218750,228.25
16:13:17.234375,225.36
16:13:17.250000,208.53
16:13:17.265625,176.87
16:13:17.281250,132.76
16:13:17.296875,80.05
16:13:17.312500,23.07
16:13:17.328125,-34.94
16:13:17.343750,-92.44
16:13:17.359375,-149.16
16:13:17.375000,-205.23
16:13:17.390625,-260.37
16:13:17.406250,-313.74
16:13:17.421875,-363.87
16:13:17.437500,-409.83
16:13:17.453125,-450.91
16:13:17.468750,-486.50
16:13:17.484375,-515.74
16:13:17.500000,-537.23
16:13:17.515625,-549.22
16:13:17.531250,-549.96
16:13:17.546875,-538.37
16:13:17.562500,-514.21
16:13:17.578125,-478.67
16:13:17.593750,-433.88
16:13:17.609375,-382.45
16:13:17.625000,-327.02
16:13:17.640625,-269.84
16:13:17.656250,-212.63
16:13:17.671875,-156.66
16:13:17.687500,-102.95
16:13:17.703125,-52.37
16:13:17.718750,-5.90
16:13:17.734375,35.58
16:13:17.750000,71.43
16:13:17.765625,101.35
16:13:17.781250,125.50
16:13:17.796875,144.38
16:13:17.812500,158.69
16:13:17.828125,169.15
16:13:17.843750,176.37
16:13:17.859375,180.75
16:13:17.875000,182.57
16:13:17.890625,182.07
16:13:17.906250,179.51
16:13:17.921875,175.23
16:13:17.937500,169.65
16:13:17.953125,163.18
16:13:17.968750,156.15
16:13:17.984375,148.81
16:13:18,141.30
16:13:18.015625,133.69
16:13:18.031250,126.02
16:13:18.046875,118.33
16:13:18.062500,110.69
16:13:18.078125,103.16
16:13:18.093750,95.80
16:13:18.109375,88.68
16:13:18.125000,81.83
16:13:18.140625,75.25
16:13:18.156250,68.95
16:13:18.171875,62.95
16:13:18.187500,57.25
16:13:18.203125,51.86
16:13:18.218750,46.78
16:13:18.234375,42.03
16:13:18.250000,37.59
16:13:18.265625,33.45
16:13:18.281250,29.61
16:13:18.296875,26.07
16:13:18.312500,22.81
16:13:18.328125,19.83
16:13:18.343750,17.11
16:13:18.359375,14.67
16:13:18.375000,12.48
16:13:18.390625,10.54
16:13:18.406250,8.83
16:13:18.421875,7.35
16:13:18.437500,6.07
16:13:18.453125,4.97
16:13:18.468750,4.05
16:13:18.484375,3.27
16:13:18.500000,2.62
16:13:18.515625,2.09
16:13:18.531250,1.65
16:13:18.546875,1.30
16:13:18.562500,1.01
16:13:18.578125,0.79
16:13:18.593750,0.61
16:13:18.609375,0.48
16:13:18.625000,0.37
16:13:18.640625,0.29
16:13:18.656250,0.24
16:13:18.671875,0.20
16:13:18.687500,0.18
16:13:18.703125,0.17
16:13:18.718750,0.17
16:13:18.734375,0.19
16:13:18.750000,0.21
16:13:18.765625,0.23
16:13:18.781250,0.26
16:13:18.796875,0.30
16:13:18.812500,0.34
16:13:18.828125,0.39
16:13:18.843750,0.43
16:13:18.859375,0.47
16:13:18.875000,0.52
16:13:18.890625,0.57
16:13:18.906250,0.62
16:13:18.921875,0.68
16:13:18.937500,0.74
16:13:18.953125,0.80
16:13:18.968750,0.87
16:13:18.984375,0.94
16:13:19,1.02
16:13:19.015625,1.11
16:13:19.031250,1.21
16:13:19.046875,1.33
16:13:19.062500,1.45
16:13:19.078125,1.59
16:13:19.093750,1.75
16:13:19.109375,1.93
16:13:19.125000,2.13
16:13:19.140625,2.35
16:13:19.156250,2.59
16:13:19.171875,2.86
16:13:19.187500,3.15
16:13:19.203125,3.47
16:13:19.218750,3.83
16:13:19.234375,4.23
16:13:19.250000,4.68
16:13:19.265625,5.15
16:13:19.281250,5.65
16:13:19.296875,6.15
16:13:19.312500,6.64
16:13:19.328125,7.14
16:13:19.343750,7.68
16:13:19.359375,8.26
16:13:19.375000,8.94
16:13:19.390625,9.70
16:13:19.406250,10.55
16:13:19.421875,11.43
16:13:19.437500,12.34
16:13:19.453125,13.24
16:13:19.468750,14.16
16:13:19.484375,15.12
16:13:19.500000,16.16
16:13:19.515625,17.32
16:13:19.531250,18.59
16:13:19.546875,19.89
16:13:19.562500,21.13
16:13:19.578125,22.17
16:13:19.593750,22.88
16:13:19.609375,23.15
16:13:19.625000,22.93
16:13:19.640625,22.20
16:13:19.656250,20.94
16:13:19.671875,19.11
16:13:19.687500,16.61
16:13:19.703125,13.35
16:13:19.718750,9.23
16:13:19.734375,4.32
16:13:19.750000,-1.13
16:13:19.765625,-6.74
16:13:19.781250,-12.06
16:13:19.796875,-16.68
16:13:19.812500,-20.40
16:13:19.828125,-23.28
16:13:19.843750,-25.56
16:13:19.859375,-27.57
16:13:19.875000,-29.53
16:13:19.890625,-31.45
16:13:19.906250,-33.08
16:13:19.921875,-34.05
16:13:19.937500,-34.11
16:13:19.953125,-33.26
16:13:19.968750,-31.88
16:13:19.984375,-30.58
16:13:20,-29.99
16:13:20.015625,-30.46
16:13:20.031250,-31.91
16:13:20.046875,-33.80
16:13:20.062500,-35.45
16:13:20.078125,-36.32
16:13:20.093750,-36.21
16:13:20.109375,-35.42
16:13:20.125000,-34.53
16:13:20.140625,-34.20
16:13:20.156250,-34.95
16:13:20.171875,-37.18
16:13:20.187500,-41.05
16:13:20.203125,-46.22
16:13:20.218750,-51.58
16:13:20.234375,-55.12
16:13:20.250000,-54.42
16:13:20.265625,-47.57
16:13:20.281250,-34.24
16:13:20.296875,-16.16
16:13:20.312500,3.29
16:13:20.328125,20.31
16:13:20.343750,32.25
16:13:20.359375,38.36
16:13:20.375000,39.78
16:13:20.390625,38.55
16:13:20.406250,36.44
16:13:20.421875,34.31
16:13:20.437500,32.12
16:13:20.453125,29.54
16:13:20.468750,26.54
16:13:20.484375,23.52
16:13:20.500000,21.13
16:13:20.515625,19.72
16:13:20.531250,19.21
16:13:20.546875,19.06
16:13:20.562500,18.65
16:13:20.578125,17.52
16:13:20.593750,15.66
16:13:20.609375,13.43
16:13:20.625000,11.39
16:13:20.640625,9.99
16:13:20.656250,9.37
16:13:20.671875,9.29
16:13:20.687500,9.23
16:13:20.703125,8.67
16:13:20.718750,7.29
16:13:20.734375,5.20
16:13:20.750000,2.88
16:13:20.765625,0.92
16:13:20.781250,-0.25
16:13:20.796875,-0.57
16:13:20.812500,-0.28
16:13:20.828125,0.26
16:13:20.843750,0.73
16:13:20.859375,1.09
16:13:20.875000,1.50
16:13:20.890625,2.17
16:13:20.906250,3.16
16:13:20.921875,4.37
16:13:20.937500,5.54
16:13:20.953125,6.47
16:13:20.968750,7.03
16:13:20.984375,7.23
16:13:21,7.15
16:13:21.015625,6.86
16:13:21.031250,6.35
16:13:21.046875,5.59
16:13:21.062500,4.61
16:13:21.078125,3.56
16:13:21.093750,2.69
16:13:21.109375,2.22
16:13:21.125000,2.27
16:13:21.140625,2.75
16:13:21.156250,3.42
16:13:21.171875,3.97
16:13:21.187500,4.14
16:13:21.203125,3.84
16:13:21.218750,3.16
16:13:21.234375,2.24
16:13:21.250000,1.26
16:13:21.265625,0.29
16:13:21.281250,-0.61
16:13:21.296875,-1.44
16:13:21.312500,-2.19
16:13:21.328125,-2.81
16:13:21.343750,-3.30
16:13:21.359375,-3.70
16:13:21.375000,-4.09
16:13:21.390625,-4.57
16:13:21.406250,-5.22
16:13:21.421875,-6.04
16:13:21.437500,-6.98
16:13:21.453125,-7.95
16:13:21.468750,-8.81
16:13:21.484375,-9.41
16:13:21.500000,-9.58
16:13:21.515625,-9.21
16:13:21.531250,-8.30
16:13:21.546875,-6.95
16:13:21.562500,-5.41
16:13:21.578125,-3.89
16:13:21.593750,-2.61
16:13:21.609375,-1.64
16:13:21.625000,-0.95
16:13:21.640625,-0.41
16:13:21.656250,0.09
16:13:21.671875,0.65
16:13:21.687500,1.30
16:13:21.703125,2.00
16:13:21.718750,2.69
16:13:21.734375,3.25
16:13:21.750000,3.60
16:13:21.765625,3.71
16:13:21.781250,3.65
16:13:21.796875,3.57
16:13:21.812500,3.65
16:13:21.828125,3.98
16:13:21.843750,4.52
16:13:21.859375,5.08
16:13:21.875000,5.41
16:13:21.890625,5.36
16:13:21.906250,4.93
16:13:21.921875,4.29
16:13:21.937500,3.68
16:13:21.953125,3.24
16:13:21.968750,2.98
16:13:21.984375,2.75
16:13:22,2.39
16:13:22.015625,1.83
16:13:22.031250,1.16
16:13:22.046875,0.52
16:13:22.062500,-0.02
16:13:22.078125,-0.52
16:13:22.093750,-1.18
16:13:22.109375,-2.16
16:13:22.125000,-3.47
16:13:22.140625,-4.88
16:13:22.156250,-6.08
16:13:22.171875,-6.72
16:13:22.187500,-6.68
16:13:22.203125,-6.03
16:13:22.218750,-4.97
16:13:22.234375,-3.76
16:13:22.250000,-2.57
16:13:22.265625,-1.44
16:13:22.281250,-0.38
16:13:22.296875,0.65
16:13:22.312500,1.58
16:13:22.328125,2.36
16:13:22.343750,2.90
16:13:22.359375,3.20
16:13:22.375000,3.32
16:13:22.390625,3.36
16:13:22.406250,3.45
16:13:22.421875,3.63
16:13:22.437500,3.86
16:13:22.453125,4.04
16:13:22.468750,4.13
16:13:22.484375,4.17
16:13:22.500000,4.25
16:13:22.515625,4.49
16:13:22.531250,4.93
16:13:22.546875,5.57
16:13:22.562500,6.33
16:13:22.578125,7.20
16:13:22.593750,8.16
16:13:22.609375,9.19
16:13:22.625000,10.15
16:13:22.640625,10.72
16:13:22.656250,10.55
16:13:22.671875,9.33
16:13:22.687500,7.08
16:13:22.703125,4.18
16:13:22.718750,1.27
16:13:22.734375,-1.01
16:13:22.750000,-2.27
16:13:22.765625,-2.46
16:13:22.781250,-1.89
16:13:22.796875,-1.03
16:13:22.812500,-0.37
16:13:22.828125,-0.17
16:13:22.843750,-0.50
16:13:22.859375,-1.14
16:13:22.875000,-1.82
16:13:22.890625,-2.30
16:13:22.906250,-2.47
16:13:22.921875,-2.38
16:13:22.937500,-2.17
16:13:22.953125,-1.86
16:13:22.968750,-1.33
16:13:22.984375,-0.42
16:13:23,0.99
16:13:23.015625,2.78
16:13:23.031250,4.58
16:13:23.046875,5.95
16:13:23.062500,6.53
16:13:23.078125,6.29
16:13:23.093750,5.46
16:13:23.109375,4.49
16:13:23.125000,3.72
16:13:23.140625,3.31
16:13:23.156250,3.19
16:13:23.171875,3.16
16:13:23.187500,3.06
16:13:23.203125,2.81
16:13:23.218750,2.38
16:13:23.234375,1.78
16:13:23.250000,0.99
16:13:23.265625,0.03
16:13:23.281250,-1.04
16:13:23.296875,-2.06
16:13:23.312500,-2.84
16:13:23.328125,-3.26
16:13:23.343750,-3.31
16:13:23.359375,-3.14
16:13:23.375000,-3.00
16:13:23.390625,-3.08
16:13:23.406250,-3.41
16:13:23.421875,-3.91
16:13:23.437500,-4.41
16:13:23.453125,-4.80
16:13:23.468750,-5.12
16:13:23.484375,-5.48
16:13:23.500000,-5.97
16:13:23.515625,-6.57
16:13:23.531250,-7.11
16:13:23.546875,-7.37
16:13:23.562500,-7.20
16:13:23.578125,-6.64
16:13:23.593750,-5.87
16:13:23.609375,-5.12
16:13:23.625000,-4.51
16:13:23.640625,-3.98
16:13:23.656250,-3.38
16:13:23.671875,-2.53
16:13:23.687500,-1.44
16:13:23.703125,-0.20
16:13:23.718750,0.97
16:13:23.734375,1.99
16:13:23.750000,2.79
16:13:23.765625,3.44
16:13:23.781250,3.98
16:13:23.796875,4.37
16:13:23.812500,4.55
16:13:23.828125,4.47
16:13:23.843750,4.18
16:13:23.859375,3.82
16:13:23.875000,3.60
16:13:23.890625,3.65
16:13:23.906250,3.96
16:13:23.921875,4.40
16:13:23.937500,4.77
16:13:23.953125,4.97
16:13:23.968750,4.97
16:13:23.984375,4.88
16:13:24,4.77
16:13:24.015625,4.69
16:13:24.031250,4.59
16:13:24.046875,4.33
16:13:24.062500,3.80
16:13:24.078125,2.96
16:13:24.093750,1.90
16:13:24.109375,0.80
16:13:24.125000,-0.15
16:13:24.140625,-0.88
16:13:24.156250,-1.42
16:13:24.171875,-1.94
16:13:24.187500,-2.54
16:13:24.203125,-3.25
16:13:24.218750,-3.97
16:13:24.234375,-4.56
16:13:24.250000,-4.92
16:13:24.265625,-4.99
16:13:24.281250,-4.81
16:13:24.296875,-4.41
16:13:24.312500,-3.88
16:13:24.328125,-3.24
16:13:24.343750,-2.51
16:13:24.359375,-1.73
16:13:24.375000,-0.98
16:13:24.390625,-0.34
16:13:24.406250,0.16
16:13:24.421875,0.53
16:13:24.437500,0.79
16:13:24.453125,0.98
16:13:24.468750,1.09
16:13:24.484375,1.11
16:13:24.500000,1.06
16:13:24.515625,0.99
16:13:24.531250,1.01
16:13:24.546875,1.22
16:13:24.562500,1.68
16:13:24.578125,2.36
16:13:24.593750,3.12
16:13:24.609375,3.78
16:13:24.625000,4.14
16:13:24.640625,4.12
16:13:24.656250,3.76
16:13:24.671875,3.23
16:13:24.687500,2.82
16:13:24.703125,2.73
16:13:24.718750,3.07
16:13:24.734375,3.70
16:13:24.750000,4.34
16:13:24.765625,4.64
16:13:24.781250,4.39
16:13:24.796875,3.61
16:13:24.812500,2.57
16:13:24.828125,1.69
16:13:24.843750,1.26
16:13:24.859375,1.39
16:13:24.875000,1.88
16:13:24.890625,2.41
16:13:24.906250,2.69
16:13:24.921875,2.63
16:13:24.937500,2.39
16:13:24.953125,2.25
16:13:24.968750,2.55
16:13:24.984375,3.52
16:13:25,5.22
16:13:25.015625,7.47
16:13:25.031250,9.86
16:13:25.046875,11.68
16:13:25.062500,12.15
16:13:25.078125,10.62
16:13:25.093750,6.89
16:13:25.109375,1.54
16:13:25.125000,-4.25
16:13:25.140625,-9.02
16:13:25.156250,-11.59
16:13:25.171875,-11.57
16:13:25.187500,-9.43
16:13:25.203125,-6.24
16:13:25.218750,-3.19
16:13:25.234375,-1.16
16:13:25.250000,-0.44
16:13:25.265625,-0.81
16:13:25.281250,-1.75
16:13:25.296875,-2.74
16:13:25.312500,-3.53
16:13:25.328125,-4.30
16:13:25.343750,-5.70
16:13:25.359375,-8.63
16:13:25.375000,-13.69
16:13:25.390625,-20.66
16:13:25.406250,-28.18
16:13:25.421875,-34.11
16:13:25.437500,-36.21
16:13:25.453125,-33.17
16:13:25.468750,-25.24
16:13:25.484375,-14.23
16:13:25.500000,-2.78
16:13:25.515625,6.49
16:13:25.531250,11.89
16:13:25.546875,12.90
16:13:25.562500,10.10
16:13:25.578125,4.82
16:13:25.593750,-1.25
16:13:25.609375,-6.42
16:13:25.625000,-9.35
16:13:25.640625,-9.41
16:13:25.656250,-6.94
16:13:25.671875,-3.20
16:13:25.687500,0.09
16:13:25.703125,1.41
16:13:25.718750,0.15
16:13:25.734375,-3.20
16:13:25.750000,-7.26
16:13:25.765625,-10.30
16:13:25.781250,-11.00
16:13:25.796875,-8.76
16:13:25.812500,-3.89
16:13:25.828125,2.64
16:13:25.843750,9.53
16:13:25.859375,15.45
16:13:25.875000,19.37
16:13:25.890625,20.71
16:13:25.906250,19.46
16:13:25.921875,16.04
16:13:25.937500,11.25
16:13:25.953125,6.02
16:13:25.968750,1.27
16:13:25.984375,-2.30
16:13:26,-4.27
16:13:26.015625,-4.70
16:13:26.031250,-4.09
16:13:26.046875,-3.27
16:13:26.062500,-3.19
16:13:26.078125,-4.48
16:13:26.093750,-7.23
16:13:26.109375,-10.96
16:13:26.125000,-14.75
16:13:26.140625,-17.78
16:13:26.156250,-19.63
16:13:26.171875,-20.49
16:13:26.187500,-20.90
16:13:26.203125,-21.45
16:13:26.218750,-22.49
16:13:26.234375,-23.99
16:13:26.250000,-25.78
16:13:26.265625,-27.66
16:13:26.281250,-29.62
16:13:26.296875,-31.74
16:13:26.312500,-34.05
16:13:26.328125,-36.34
16:13:26.343750,-38.17
16:13:26.359375,-39.07
16:13:26.375000,-38.80
16:13:26.390625,-37.48
16:13:26.406250,-35.61
16:13:26.421875,-33.85
16:13:26.437500,-32.76
16:13:26.453125,-32.62
16:13:26.468750,-33.34
16:13:26.484375,-34.53
16:13:26.500000,-35.68
16:13:26.515625,-36.23
16:13:26.531250,-35.70
16:13:26.546875,-33.75
16:13:26.562500,-30.16
16:13:26.578125,-24.95
16:13:26.593750,-18.25
16:13:26.609375,-10.31
16:13:26.625000,-1.40
16:13:26.640625,8.17
16:13:26.656250,18.11
16:13:26.671875,28.00
16:13:26.687500,37.28
16:13:26.703125,45.38
16:13:26.718750,51.75
16:13:26.734375,56.06
16:13:26.750000,58.25
16:13:26.765625,58.53
16:13:26.781250,57.30
16:13:26.796875,54.99
16:13:26.812500,52.00
16:13:26.828125,48.66
16:13:26.843750,45.28
16:13:26.859375,42.12
16:13:26.875000,39.43
16:13:26.890625,37.30
16:13:26.906250,35.70
16:13:26.921875,34.38
16:13:26.937500,33.02
16:13:26.953125,31.35
16:13:26.968750,29.29
16:13:26.984375,27.01
16:13:27,24.75
16:13:27.015625,22.76
16:13:27.031250,21.10
16:13:27.046875,19.57
16:13:27.062500,17.86
16:13:27.078125,15.72
16:13:27.093750,13.10
16:13:27.109375,10.24
16:13:27.125000,7.57
16:13:27.140625,5.46
16:13:27.156250,4.12
16:13:27.171875,3.49
16:13:27.187500,3.31
16:13:27.203125,3.26
16:13:27.218750,3.09
16:13:27.234375,2.68
16:13:27.250000,2.05
16:13:27.265625,1.23
16:13:27.281250,0.27
16:13:27.296875,-0.83
16:13:27.312500,-2.03
16:13:27.328125,-3.27
16:13:27.343750,-4.44
16:13:27.359375,-5.41
16:13:27.375000,-6.10
16:13:27.390625,-6.55
16:13:27.406250,-6.78
16:13:27.421875,-6.86
16:13:27.437500,-6.81
16:13:27.453125,-6.60
16:13:27.468750,-6.21
16:13:27.484375,-5.61
16:13:27.500000,-4.80
16:13:27.515625,-3.83
16:13:27.531250,-2.71
16:13:27.546875,-1.52
16:13:27.562500,-0.35
16:13:27.578125,0.62
16:13:27.593750,1.19
16:13:27.609375,1.24
16:13:27.625000,0.84
16:13:27.640625,0.28
16:13:27.656250,0.04
16:13:27.671875,0.56
16:13:27.687500,2.02
16:13:27.703125,4.23
16:13:27.718750,6.67
16:13:27.734375,8.72
16:13:27.750000,9.90
16:13:27.765625,10.10
16:13:27.781250,9.52
16:13:27.796875,8.58
16:13:27.812500,7.59
16:13:27.828125,6.72
16:13:27.843750,5.90
16:13:27.859375,5.06
16:13:27.875000,4.14
16:13:27.890625,3.21
16:13:27.906250,2.39
16:13:27.921875,1.71
16:13:27.937500,1.07
16:13:27.953125,0.23
16:13:27.968750,-1.05
16:13:27.984375,-2.93
16:13:28,-5.39
16:13:28.015625,-8.26
16:13:28.031250,-11.30
16:13:28.046875,-14.29
16:13:28.062500,-17.08
16:13:28.078125,-19.51
16:13:28.093750,-21.34
16:13:28.109375,-22.18
16:13:28.125000,-21.57
16:13:28.140625,-19.12
16:13:28.156250,-14.74
16:13:28.171875,-8.76
16:13:28.187500,-1.93
16:13:28.203125,4.82
16:13:28.218750,10.62
16:13:28.234375,14.89
16:13:28.250000,17.42
16:13:28.265625,18.33
16:13:28.281250,17.89
16:13:28.296875,16.43
16:13:28.312500,14.22
16:13:28.328125,11.54
16:13:28.343750,8.62
16:13:28.359375,5.77
16:13:28.375000,3.21
16:13:28.390625,1.16
16:13:28.406250,-0.24
16:13:28.421875,-0.92
16:13:28.437500,-0.91
16:13:28.453125,-0.25
16:13:28.468750,0.91
16:13:28.484375,2.37
16:13:28.500000,3.85
16:13:28.515625,4.95
16:13:28.531250,5.16
16:13:28.546875,3.96
16:13:28.562500,0.85
16:13:28.578125,-4.36
16:13:28.593750,-11.39
16:13:28.609375,-19.43
16:13:28.625000,-27.23
16:13:28.640625,-33.48
16:13:28.656250,-37.18
16:13:28.671875,-38.04
16:13:28.687500,-36.40
16:13:28.703125,-33.03
16:13:28.718750,-28.64
16:13:28.734375,-23.65
16:13:28.750000,-18.07
16:13:28.765625,-11.72
16:13:28.781250,-4.54
16:13:28.796875,3.19
16:13:28.812500,10.93
16:13:28.828125,18.05
16:13:28.843750,24.11
16:13:28.859375,28.92
16:13:28.875000,32.50
16:13:28.890625,34.93
16:13:28.906250,36.23
16:13:28.921875,36.38
16:13:28.937500,35.40
16:13:28.953125,33.44
16:13:28.968750,30.77
16:13:28.984375,27.67
16:13:29,24.38
16:13:29.015625,21.08
16:13:29.031250,17.88
16:13:29.046875,14.95
16:13:29.062500,12.52
16:13:29.078125,10.76
16:13:29.093750,9.72
16:13:29.109375,9.24
16:13:29.125000,9.00
16:13:29.140625,8.71
16:13:29.156250,8.21
16:13:29.171875,7.53
16:13:29.187500,6.87
16:13:29.203125,6.40
16:13:29.218750,6.20
16:13:29.234375,6.15
16:13:29.250000,5.97
16:13:29.265625,5.40
16:13:29.281250,4.22
16:13:29.296875,2.47
16:13:29.312500,0.47
16:13:29.328125,-1.20
16:13:29.343750,-1.90
16:13:29.359375,-1.11
16:13:29.375000,1.23
16:13:29.390625,4.61
16:13:29.406250,8.06
16:13:29.421875,10.34
16:13:29.437500,10.42
16:13:29.453125,7.71
16:13:29.468750,2.38
16:13:29.484375,-4.79
16:13:29.500000,-12.51
16:13:29.515625,-19.32
16:13:29.531250,-23.92
16:13:29.546875,-25.45
16:13:29.562500,-23.66
16:13:29.578125,-18.99
16:13:29.593750,-12.38
16:13:29.609375,-5.07
16:13:29.625000,1.77
16:13:29.640625,7.20
16:13:29.656250,10.64
16:13:29.671875,11.84
16:13:29.687500,10.87
16:13:29.703125,8.01
16:13:29.718750,3.78
16:13:29.734375,-1.08
16:13:29.750000,-5.71
16:13:29.765625,-9.26
16:13:29.781250,-11.09
16:13:29.796875,-10.96
16:13:29.812500,-9.14
16:13:29.828125,-6.30
16:13:29.843750,-3.25
16:13:29.859375,-0.70
16:13:29.875000,1.05
16:13:29.890625,2.03
16:13:29.906250,2.54
16:13:29.921875,2.91
16:13:29.937500,3.22
16:13:29.953125,3.39
16:13:29.968750,3.22
16:13:29.984375,2.59
16:13:30,1.62
16:13:30.015625,0.63
16:13:30.031250,-0.00
16:13:30.046875,-0.04
16:13:30.062500,0.49
16:13:30.078125,1.29
16:13:30.093750,2.01
16:13:30.109375,2.29
16:13:30.125000,2.05
16:13:30.140625,1.40
16:13:30.156250,0.64
16:13:30.171875,0.03
16:13:30.187500,-0.30
16:13:30.203125,-0.37
16:13:30.218750,-0.31
16:13:30.234375,-0.24
16:13:30.250000,-0.24
16:13:30.265625,-0.25
16:13:30.281250,-0.19
16:13:30.296875,-0.01
16:13:30.312500,0.25
16:13:30.328125,0.41
16:13:30.343750,0.31
16:13:30.359375,-0.18
16:13:30.375000,-1.02
16:13:30.390625,-2.05
16:13:30.406250,-2.98
16:13:30.421875,-3.55
16:13:30.437500,-3.65
16:13:30.453125,-3.37
16:13:30.468750,-2.92
16:13:30.484375,-2.54
16:13:30.500000,-2.37
16:13:30.515625,-2.38
16:13:30.531250,-2.37
16:13:30.546875,-2.11
16:13:30.562500,-1.49
16:13:30.578125,-0.54
16:13:30.593750,0.60
16:13:30.609375,1.68
16:13:30.625000,2.52
16:13:30.640625,3.00
16:13:30.656250,3.02
16:13:30.671875,2.55
16:13:30.687500,1.62
16:13:30.703125,0.35
16:13:30.718750,-1.03
16:13:30.734375,-2.18
16:13:30.750000,-2.84
16:13:30.765625,-2.89
16:13:30.781250,-2.44
16:13:30.796875,-1.77
16:13:30.812500,-1.24
16:13:30.828125,-1.08
16:13:30.843750,-1.37
16:13:30.859375,-2.00
16:13:30.875000,-2.77
16:13:30.890625,-3.52
16:13:30.906250,-4.18
16:13:30.921875,-4.78
16:13:30.937500,-5.37
16:13:30.953125,-5.98
16:13:30.968750,-6.50
16:13:30.984375,-6.78
16:13:31,-6.74
16:13:31.015625,-6.40
16:13:31.031250,-5.97
16:13:31.046875,-5.77
16:13:31.062500,-6.02
16:13:31.078125,-6.76
16:13:31.093750,-7.75
16:13:31.109375,-8.63
16:13:31.125000,-9.03
16:13:31.140625,-8.79
16:13:31.156250,-7.92
16:13:31.171875,-6.55
16:13:31.187500,-4.85
16:13:31.203125,-2.96
16:13:31.218750,-1.01
16:13:31.234375,0.79
16:13:31.250000,2.21
16:13:31.265625,3.03
16:13:31.281250,3.20
16:13:31.296875,2.87
16:13:31.312500,2.28
16:13:31.328125,1.69
16:13:31.343750,1.30
16:13:31.359375,1.16
16:13:31.375000,1.28
16:13:31.390625,1.64
16:13:31.406250,2.19
16:13:31.421875,2.85
16:13:31.437500,3.43
16:13:31.453125,3.75
16:13:31.468750,3.64
16:13:31.484375,3.12
16:13:31.500000,2.34
16:13:31.515625,1.49
16:13:31.531250,0.69
16:13:31.546875,-0.09
16:13:31.562500,-0.93
16:13:31.578125,-1.88
16:13:31.593750,-2.83
16:13:31.609375,-3.59
16:13:31.625000,-3.95
16:13:31.640625,-3.87
16:13:31.656250,-3.48
16:13:31.671875,-3.01
16:13:31.687500,-2.65
16:13:31.703125,-2.47
16:13:31.718750,-2.37
16:13:31.734375,-2.21
16:13:31.750000,-1.95
16:13:31.765625,-1.71
16:13:31.781250,-1.68
16:13:31.796875,-2.05
16:13:31.812500,-2.83
16:13:31.828125,-3.85
16:13:31.843750,-4.78
16:13:31.859375,-5.34
16:13:31.875000,-5.39
16:13:31.890625,-4.98
16:13:31.906250,-4.38
16:13:31.921875,-3.87
16:13:31.937500,-3.63
16:13:31.953125,-3.62
16:13:31.968750,-3.65
16:13:31.984375,-3.44
16:13:32,-2.82
16:13:32.015625,-1.80
16:13:32.031250,-0.63
16:13:32.046875,0.35
16:13:32.062500,0.80
16:13:32.078125,0.62
16:13:32.093750,-0.10
16:13:32.109375,-1.06
16:13:32.125000,-1.91
16:13:32.140625,-2.36
16:13:32.156250,-2.32
16:13:32.171875,-1.87
16:13:32.187500,-1.24
16:13:32.203125,-0.71
16:13:32.218750,-0.46
16:13:32.234375,-0.53
16:13:32.250000,-0.84
16:13:32.265625,-1.26
16:13:32.281250,-1.68
16:13:32.296875,-2.10
16:13:32.312500,-2.55
16:13:32.328125,-3.13
16:13:32.343750,-3.88
16:13:32.359375,-4.77
16:13:32.375000,-5.68
16:13:32.390625,-6.45
16:13:32.406250,-6.90
16:13:32.421875,-6.95
16:13:32.437500,-6.60
16:13:32.453125,-5.94
16:13:32.468750,-5.16
16:13:32.484375,-4.45
16:13:32.500000,-3.93
16:13:32.515625,-3.64
16:13:32.531250,-3.50
16:13:32.546875,-3.39
16:13:32.562500,-3.18
16:13:32.578125,-2.76
16:13:32.593750,-2.12
16:13:32.609375,-1.30
16:13:32.625000,-0.39
16:13:32.640625,0.52
16:13:32.656250,1.32
16:13:32.671875,1.96
16:13:32.687500,2.40
16:13:32.703125,2.61
16:13:32.718750,2.59
16:13:32.734375,2.38
16:13:32.750000,2.06
16:13:32.765625,1.81
16:13:32.781250,1.73
16:13:32.796875,1.90
16:13:32.812500,2.22
16:13:32.828125,2.52
16:13:32.843750,2.61
16:13:32.859375,2.45
16:13:32.875000,2.17
16:13:32.890625,2.09
16:13:32.906250,2.50
16:13:32.921875,3.48
16:13:32.937500,4.82
16:13:32.953125,6.11
16:13:32.968750,6.87
16:13:32.984375,6.81
16:13:33,6.00
16:13:33.015625,4.79
16:13:33.031250,3.77
16:13:33.046875,3.38
16:13:33.062500,3.81
16:13:33.078125,4.86
16:13:33.093750,6.08
16:13:33.109375,7.00
16:13:33.125000,7.37
16:13:33.140625,7.33
16:13:33.156250,7.34
16:13:33.171875,8.06
16:13:33.187500,10.02
16:13:33.203125,13.44
16:13:33.218750,18.05
16:13:33.234375,23.21
16:13:33.250000,28.07
16:13:33.265625,31.93
16:13:33.281250,34.46
16:13:33.296875,35.92
16:13:33.312500,36.99
16:13:33.328125,38.56
16:13:33.343750,41.22
16:13:33.359375,44.90
16:13:33.375000,48.79
16:13:33.390625,51.60
16:13:33.406250,52.24
16:13:33.421875,50.44
16:13:33.437500,47.05
16:13:33.453125,43.87
16:13:33.468750,42.77
16:13:33.484375,44.86
16:13:33.500000,49.75
16:13:33.515625,55.67
16:13:33.531250,60.22
16:13:33.546875,61.39
16:13:33.562500,58.54
16:13:33.578125,52.62
16:13:33.593750,45.64
16:13:33.609375,40.13
16:13:33.625000,38.26
16:13:33.640625,40.98
16:13:33.656250,47.59
16:13:33.671875,55.53
16:13:33.687500,60.39
16:13:33.703125,56.82
16:13:33.718750,40.15
16:13:33.734375,8.25
16:13:33.750000,-36.79
16:13:33.765625,-88.21
16:13:33.781250,-135.93
16:13:33.796875,-169.14
16:13:33.812500,-179.98
16:13:33.828125,-166.71
16:13:33.843750,-134.53
16:13:33.859375,-94.12
16:13:33.875000,-57.63
16:13:33.890625,-34.15
16:13:33.906250,-26.50
16:13:33.921875,-31.27
16:13:33.937500,-41.75
16:13:33.953125,-51.60
16:13:33.968750,-57.20
16:13:33.984375,-57.05
16:13:34,-49.83
16:13:34.015625,-32.72
16:13:34.031250,-2.51
16:13:34.046875,41.67
16:13:34.062500,95.53
16:13:34.078125,149.45
16:13:34.093750,191.52
16:13:34.109375,212.50
16:13:34.125000,209.35
16:13:34.140625,185.04
16:13:34.156250,145.94
16:13:34.171875,98.22
16:13:34.187500,46.44
16:13:34.203125,-5.59
16:13:34.218750,-52.81
16:13:34.234375,-88.22
16:13:34.250000,-104.21
16:13:34.265625,-95.43
16:13:34.281250,-61.52
16:13:34.296875,-7.42
16:13:34.312500,58.64
16:13:34.328125,127.78
16:13:34.343750,192.63
16:13:34.359375,247.73
16:13:34.375000,288.74
16:13:34.390625,311.85
16:13:34.406250,314.53
16:13:34.421875,297.06
16:13:34.437500,263.94
16:13:34.453125,223.80
16:13:34.468750,187.15
16:13:34.484375,162.42
16:13:34.500000,152.55
16:13:34.515625,153.87
16:13:34.531250,158.03
16:13:34.546875,156.13
16:13:34.562500,142.50
16:13:34.578125,116.13
16:13:34.593750,80.33
16:13:34.609375,40.35
16:13:34.625000,0.85
16:13:34.640625,-35.88
16:13:34.656250,-69.57
16:13:34.671875,-101.21
16:13:34.687500,-131.62
16:13:34.703125,-161.25
16:13:34.718750,-191.62
16:13:34.734375,-224.05
16:13:34.750000,-258.60
16:13:34.765625,-294.00
16:13:34.781250,-328.82
16:13:34.796875,-362.02
16:13:34.812500,-392.89
16:13:34.828125,-420.20
16:13:34.843750,-442.17
16:13:34.859375,-459.35
16:13:34.875000,-471.99
16:13:34.890625,-478.87
16:13:34.906250,-476.92
16:13:34.921875,-463.14
16:13:34.937500,-436.09
16:13:34.953125,-396.43
16:13:34.968750,-346.87
16:13:34.984375,-292.31
16:13:35,-244.05
16:13:35.015625,-213.11
16:13:35.031250,-205.55
16:13:35.046875,-219.98
16:13:35.062500,-249.19
16:13:35.078125,-282.77
16:13:35.093750,-309.20
16:13:35.109375,-318.17
16:13:35.125000,-303.76
16:13:35.140625,-272.52
16:13:35.156250,-236.72
16:13:35.171875,-208.86
16:13:35.187500,-196.65
16:13:35.203125,-202.49
16:13:35.218750,-224.02
16:13:35.234375,-255.24
16:13:35.250000,-288.27
16:13:35.265625,-280.63
16:13:35.281250,-208.53
16:13:35.296875,-80.27
16:13:35.312500,67.74
16:13:35.328125,200.19
16:13:35.343750,301.81
16:13:35.359375,374.34
16:13:35.375000,425.67
16:13:35.390625,462.45
16:13:35.406250,487.71
16:13:35.421875,496.86
16:13:35.437500,486.65
16:13:35.453125,459.70
16:13:35.468750,424.72
16:13:35.484375,391.58
16:13:35.500000,366.15
16:13:35.515625,349.32
16:13:35.531250,338.63
16:13:35.546875,329.66
16:13:35.562500,313.99
16:13:35.578125,286.17
16:13:35.593750,246.53
16:13:35.609375,200.85
16:13:35.625000,156.32
16:13:35.640625,117.47
16:13:35.656250,85.49
16:13:35.671875,63.02
16:13:35.687500,47.66
16:13:35.703125,33.97
16:13:35.718750,18.06
16:13:35.734375,-0.60
16:13:35.750000,-19.36
16:13:35.765625,-34.55
16:13:35.781250,-44.34
16:13:35.796875,-48.63
16:13:35.812500,-48.57
16:13:35.828125,-46.27
16:13:35.843750,-44.60
16:13:35.859375,-45.57
16:13:35.875000,-49.59
16:13:35.890625,-55.49
16:13:35.906250,-61.21
16:13:35.921875,-65.60
16:13:35.937500,-67.98
16:13:35.953125,-68.02
16:13:35.968750,-66.07
16:13:35.984375,-63.00
16:13:36,-59.72
16:13:36.015625,-56.92
16:13:36.031250,-56.66
16:13:36.046875,-57.44
16:13:36.062500,-58.62
16:13:36.078125,-59.49
16:13:36.093750,-59.30
16:13:36.109375,-57.77
16:13:36.125000,-54.84
16:13:36.140625,-51.02
16:13:36.156250,-47.25
16:13:36.171875,-44.53
16:13:36.187500,-43.18
16:13:36.203125,-43.17
16:13:36.218750,-43.68
16:13:36.234375,-43.73
16:13:36.250000,-42.76
16:13:36.265625,-40.93
16:13:36.281250,-39.41
16:13:36.296875,-39.80
16:13:36.312500,-44.01
16:13:36.328125,-53.75
16:13:36.343750,-70.80
16:13:36.359375,-96.10
16:13:36.375000,-128.95
16:13:36.390625,-166.43
16:13:36.406250,-203.28
16:13:36.421875,-233.18
16:13:36.437500,-250.74
16:13:36.453125,-253.87
16:13:36.468750,-244.63
16:13:36.484375,-228.74
16:13:36.500000,-212.93
16:13:36.515625,-202.34
16:13:36.531250,-198.80
16:13:36.546875,-200.58
16:13:36.562500,-205.39
16:13:36.578125,-210.60
16:13:36.593750,-214.36
16:13:36.609375,-215.84
16:13:36.625000,-214.80
16:13:36.640625,-210.74
16:13:36.656250,-202.58
16:13:36.671875,-189.13
16:13:36.687500,-169.78
16:13:36.703125,-144.99
16:13:36.718750,-115.88
16:13:36.734375,-83.93
16:13:36.750000,-50.39
16:13:36.765625,-15.76
16:13:36.781250,20.15
16:13:36.796875,57.84
16:13:36.812500,97.52
16:13:36.828125,138.62
16:13:36.843750,179.52
16:13:36.859375,217.93
16:13:36.875000,251.33
16:13:36.890625,277.49
16:13:36.906250,294.98
16:13:36.921875,303.39
16:13:36.937500,303.22
16:13:36.953125,295.58
16:13:36.968750,281.77
16:13:36.984375,262.99
16:13:37,240.27
16:13:37.015625,214.38
16:13:37.031250,185.98
16:13:37.046875,155.79
16:13:37.062500,124.83
16:13:37.078125,94.46
16:13:37.093750,66.11
16:13:37.109375,41.15
16:13:37.125000,20.34
16:13:37.140625,3.57
16:13:37.156250,-10.22
16:13:37.171875,-22.60
16:13:37.187500,-35.04
16:13:37.203125,-48.24
16:13:37.218750,-61.81
16:13:37.234375,-74.22
16:13:37.250000,-83.19
16:13:37.265625,-86.54
16:13:37.281250,-82.96
16:13:37.296875,-72.33
16:13:37.312500,-55.41
16:13:37.328125,-33.35
16:13:37.343750,-7.02
16:13:37.359375,23.42
16:13:37.375000,58.56
16:13:37.390625,99.81
16:13:37.406250,148.97
16:13:37.421875,207.85
16:13:37.437500,277.68
16:13:37.453125,358.01
16:13:37.468750,445.43
16:13:37.484375,532.75
16:13:37.500000,609.85
16:13:37.515625,666.25
16:13:37.531250,695.34
16:13:37.546875,696.13
16:13:37.562500,673.39
16:13:37.578125,635.42
16:13:37.593750,590.61
16:13:37.609375,544.60
16:13:37.625000,499.11
16:13:37.640625,453.10
16:13:37.656250,405.07
16:13:37.671875,356.46
16:13:37.687500,310.14
16:13:37.703125,268.81
16:13:37.718750,233.30
16:13:37.734375,202.13
16:13:37.750000,172.53
16:13:37.765625,141.80
16:13:37.781250,108.16
16:13:37.796875,71.73
16:13:37.812500,36.38
16:13:37.828125,5.30
16:13:37.843750,-20.93
16:13:37.859375,-44.70
16:13:37.875000,-69.19
16:13:37.890625,-95.49
16:13:37.906250,-121.53
16:13:37.921875,-143.09
16:13:37.937500,-156.35
16:13:37.953125,-157.24
16:13:37.968750,-146.28
16:13:37.984375,-128.09
16:13:38,-108.31
16:13:38.015625,-90.44
16:13:38.031250,-74.24
16:13:38.046875,-57.32
16:13:38.062500,-38.13
16:13:38.078125,-37.69
16:13:38.093750,-69.18
16:13:38.109375,-132.58
16:13:38.125000,-213.00
16:13:38.140625,-290.36
16:13:38.156250,-351.01
16:13:38.171875,-390.81
16:13:38.187500,-412.59
16:13:38.203125,-421.78
16:13:38.218750,-423.02
16:13:38.234375,-415.77
16:13:38.250000,-398.46
16:13:38.265625,-370.45
16:13:38.281250,-332.79
16:13:38.296875,-289.16
16:13:38.312500,-244.64
16:13:38.328125,-203.75
16:13:38.343750,-168.79
16:13:38.359375,-139.14
16:13:38.375000,-109.14
16:13:38.390625,-75.94
16:13:38.406250,-37.78
16:13:38.421875,7.27
16:13:38.437500,59.13
16:13:38.453125,115.55
16:13:38.468750,172.06
16:13:38.484375,222.63
16:13:38.500000,261.17
16:13:38.515625,284.85
16:13:38.531250,292.73
16:13:38.546875,274.45
16:13:38.562500,230.33
16:13:38.578125,171.02
16:13:38.593750,111.92
16:13:38.609375,64.14
16:13:38.625000,30.34
16:13:38.640625,7.65
16:13:38.656250,-7.22
16:13:38.671875,-16.01
16:13:38.687500,-23.13
16:13:38.703125,-31.42
16:13:38.718750,-44.62
16:13:38.734375,-67.21
16:13:38.750000,-103.06
16:13:38.765625,-153.67
16:13:38.781250,-217.45
16:13:38.796875,-281.34
16:13:38.812500,-328.85
16:13:38.828125,-346.25
16:13:38.843750,-327.79
16:13:38.859375,-280.29
16:13:38.875000,-219.40
16:13:38.890625,-161.78
16:13:38.906250,-118.41
16:13:38.921875,-91.58
16:13:38.937500,-76.71
16:13:38.953125,-67.92
16:13:38.968750,-61.60
16:13:38.984375,-56.30
16:13:39,-52.92
16:13:39.015625,-52.69
16:13:39.031250,-55.47
16:13:39.046875,-59.51
16:13:39.062500,-62.28
16:13:39.078125,-61.73
16:13:39.093750,-58.31
16:13:39.109375,-54.41
16:13:39.125000,-52.45
16:13:39.140625,-53.93
16:13:39.156250,-58.79
16:13:39.171875,-65.46
16:13:39.187500,-71.76
16:13:39.203125,-75.64
16:13:39.218750,-75.84
16:13:39.234375,-72.86
16:13:39.250000,-68.23
16:13:39.265625,-63.57
16:13:39.281250,-59.82
16:13:39.296875,-57.29
16:13:39.312500,-54.70
16:13:39.328125,-50.73
16:13:39.343750,-44.46
16:13:39.359375,-35.74
16:13:39.375000,-25.48
16:13:39.390625,-15.03
16:13:39.406250,-5.88
16:13:39.421875,0.97
16:13:39.437500,5.18
16:13:39.453125,7.03
16:13:39.468750,6.96
16:13:39.484375,5.28
16:13:39.500000,2.14
16:13:39.515625,-2.63
16:13:39.531250,-9.00
16:13:39.546875,-16.99
16:13:39.562500,-26.46
16:13:39.578125,-37.09
16:13:39.593750,-48.44
16:13:39.609375,-60.13
16:13:39.625000,-71.87
16:13:39.640625,-83.45
16:13:39.656250,-94.76
16:13:39.671875,-105.30
16:13:39.687500,-114.70
16:13:39.703125,-122.79
16:13:39.718750,-129.49
16:13:39.734375,-134.77
16:13:39.750000,-138.48
16:13:39.765625,-140.08
16:13:39.781250,-138.36
16:13:39.796875,-134.68
16:13:39.812500,-128.91
16:13:39.828125,-120.80
16:13:39.843750,-110.30
16:13:39.859375,-97.77
16:13:39.875000,-83.85
16:13:39.890625,-69.22
16:13:39.906250,-54.33
16:13:39.921875,-39.18
16:13:39.937500,-23.41
16:13:39.953125,-6.04
16:13:39.968750,13.56
16:13:39.984375,35.42
16:13:40,58.85
16:13:40.015625,82.79
16:13:40.031250,106.09
16:13:40.046875,128.00
16:13:40.062500,148.36
16:13:40.078125,167.55
16:13:40.093750,186.74
16:13:40.109375,207.17
16:13:40.125000,230.06
16:13:40.140625,256.24
16:13:40.156250,285.61
16:13:40.171875,316.50
16:13:40.187500,345.50
16:13:40.203125,368.00
16:13:40.218750,379.53
16:13:40.234375,377.66
16:13:40.250000,362.86
16:13:40.265625,338.48
16:13:40.281250,309.52
16:13:40.296875,280.69
16:13:40.312500,254.93
16:13:40.328125,232.81
16:13:40.343750,213.20
16:13:40.359375,194.42
16:13:40.375000,175.45
16:13:40.390625,156.04
16:13:40.406250,136.52
16:13:40.421875,117.13
16:13:40.437500,97.72
16:13:40.453125,77.76
16:13:40.468750,56.67
16:13:40.484375,34.21
16:13:40.500000,10.65
16:13:40.515625,-13.11
16:13:40.531250,-35.83
16:13:40.546875,-56.26
16:13:40.562500,-73.37
16:13:40.578125,-86.63
16:13:40.593750,-95.97
16:13:40.609375,-101.72
16:13:40.625000,-104.37
16:13:40.640625,-104.40
16:13:40.656250,-102.23
16:13:40.671875,-98.33
16:13:40.687500,-93.30
16:13:40.703125,-87.90
16:13:40.718750,-82.98
16:13:40.734375,-79.25
16:13:40.750000,-77.07
16:13:40.765625,-76.32
16:13:40.781250,-76.50
16:13:40.796875,-77.00
16:13:40.812500,-77.31
16:13:40.828125,-77.19
16:13:40.843750,-76.57
16:13:40.859375,-75.37
16:13:40.875000,-73.33
16:13:40.890625,-69.98
16:13:40.906250,-64.84
16:13:40.921875,-57.75
16:13:40.937500,-49.23
16:13:40.953125,-40.51
16:13:40.968750,-33.21
16:13:40.984375,-28.64
16:13:41,-27.07
16:13:41.015625,-27.50
16:13:41.031250,-28.08
16:13:41.046875,-26.89
16:13:41.062500,-22.95
16:13:41.078125,-16.65
16:13:41.093750,-9.43
16:13:41.109375,-2.99
16:13:41.125000,1.57
16:13:41.140625,4.10
16:13:41.156250,5.25
16:13:41.171875,5.77
16:13:41.187500,5.95
16:13:41.203125,5.58
16:13:41.218750,4.16
16:13:41.234375,1.54
16:13:41.250000,-1.90
16:13:41.265625,-5.27
16:13:41.281250,-7.65
16:13:41.296875,-8.54
16:13:41.312500,-8.02
16:13:41.328125,-6.65
16:13:41.343750,-5.11
16:13:41.359375,-3.97
16:13:41.375000,-3.45
16:13:41.390625,-3.59
16:13:41.406250,-4.33
16:13:41.421875,-5.70
16:13:41.437500,-7.79
16:13:41.453125,-10.61
16:13:41.468750,-14.02
16:13:41.484375,-17.60
16:13:41.500000,-20.78
16:13:41.515625,-23.10
16:13:41.531250,-24.44
16:13:41.546875,-25.09
16:13:41.562500,-25.78
16:13:41.578125,-27.28
16:13:41.593750,-30.01
16:13:41.609375,-33.94
16:13:41.625000,-38.46
16:13:41.640625,-42.62
16:13:41.656250,-45.41
16:13:41.671875,-46.16
16:13:41.687500,-44.82
16:13:41.703125,-42.09
16:13:41.718750,-39.29
16:13:41.734375,-37.84
16:13:41.750000,-38.96
16:13:41.765625,-43.05
16:13:41.781250,-49.26
16:13:41.796875,-55.39
16:13:41.812500,-58.24
16:13:41.828125,-54.44
16:13:41.843750,-41.59
16:13:41.859375,-19.22
16:13:41.875000,10.89
16:13:41.890625,44.69
16:13:41.906250,76.97
16:13:41.921875,102.76
16:13:41.937500,118.76
16:13:41.953125,124.05
16:13:41.968750,119.87
16:13:41.984375,108.66
16:13:42,93.23
16:13:42.015625,76.50
16:13:42.031250,60.55
16:13:42.046875,46.75
16:13:42.062500,35.90
16:13:42.078125,28.40
16:13:42.093750,24.33
16:13:42.109375,23.28
16:13:42.125000,24.19
16:13:42.140625,25.94
16:13:42.156250,28.77
16:13:42.171875,32.96
16:13:42.187500,38.74
16:13:42.203125,46.10
16:13:42.218750,54.60
16:13:42.234375,63.37
16:13:42.250000,71.12
16:13:42.265625,76.03
16:13:42.281250,77.04
16:13:42.296875,76.19
16:13:42.312500,76.44
16:13:42.328125,81.21
16:13:42.343750,93.40
16:13:42.359375,114.63
16:13:42.375000,145.02
16:13:42.390625,183.33
16:13:42.406250,226.76
16:13:42.421875,272.66
16:13:42.437500,320.33
16:13:42.453125,367.73
16:13:42.468750,410.99
16:13:42.484375,445.08
16:13:42.500000,465.58
16:13:42.515625,470.81
16:13:42.531250,462.83
16:13:42.546875,446.04
16:13:42.562500,411.01
16:13:42.578125,354.77
16:13:42.593750,279.96
16:13:42.609375,195.44
16:13:42.625000,112.72
16:13:42.640625,41.04
16:13:42.656250,-15.07
16:13:42.671875,-51.46
16:13:42.687500,-73.94
16:13:42.703125,-88.17
16:13:42.718750,-96.08
16:13:42.734375,-99.04
16:13:42.750000,-98.52
16:13:42.765625,-96.63
16:13:42.781250,-94.98
16:13:42.796875,-94.42
16:13:42.812500,-95.13
16:13:42.828125,-97.45
16:13:42.843750,-100.54
16:13:42.859375,-101.67
16:13:42.875000,-98.88
16:13:42.890625,-91.31
16:13:42.906250,-79.29
16:13:42.921875,-63.95
16:13:42.937500,-46.76
16:13:42.953125,-29.21
16:13:42.968750,-13.31
16:13:42.984375,-0.24
16:13:43,10.15
16:13:43.015625,17.94
16:13:43.031250,23.13
16:13:43.046875,25.66
16:13:43.062500,25.54
16:13:43.078125,22.84
16:13:43.093750,17.65
16:13:43.109375,9.55
16:13:43.125000,-1.63
16:13:43.140625,-15.51
16:13:43.156250,-31.67
16:13:43.171875,-49.40
16:13:43.187500,-67.73
16:13:43.203125,-85.55
16:13:43.218750,-102.05
16:13:43.234375,-117.08
16:13:43.250000,-131.56
16:13:43.265625,-146.87
16:13:43.281250,-164.38
16:13:43.296875,-184.97
16:13:43.312500,-208.57
16:13:43.328125,-234.18
16:13:43.343750,-260.38
16:13:43.359375,-285.97
16:13:43.375000,-310.58
16:13:43.390625,-334.92
16:13:43.406250,-360.26
16:13:43.421875,-388.13
16:13:43.437500,-419.98
16:13:43.453125,-457.03
16:13:43.468750,-499.87
16:13:43.484375,-547.60
16:13:43.500000,-597.00
16:13:43.515625,-642.10
16:13:43.531250,-675.10
16:13:43.546875,-688.55
16:13:43.562500,-677.93
16:13:43.578125,-643.45
16:13:43.593750,-589.90
16:13:43.609375,-524.78
16:13:43.625000,-455.49
16:13:43.640625,-387.32
16:13:43.656250,-322.89
16:13:43.671875,-262.95
16:13:43.687500,-207.83
16:13:43.703125,-157.98
16:13:43.718750,-113.79
16:13:43.734375,-74.75
16:13:43.750000,-38.76
16:13:43.765625,-2.41
16:13:43.781250,37.76
16:13:43.796875,83.52
16:13:43.812500,133.47
16:13:43.828125,182.79
16:13:43.843750,224.33
16:13:43.859375,251.22
16:13:43.875000,259.70
16:13:43.890625,251.02
16:13:43.906250,231.10
16:13:43.921875,208.07
16:13:43.937500,188.81
16:13:43.953125,176.10
16:13:43.968750,167.90
16:13:43.984375,159.24
16:13:44,145.27
16:13:44.015625,123.62
16:13:44.031250,95.30
16:13:44.046875,63.54
16:13:44.062500,32.09
16:13:44.078125,4.22
16:13:44.093750,-17.55
16:13:44.109375,-31.04
16:13:44.125000,-34.81
16:13:44.140625,-29.11
16:13:44.156250,-16.34
16:13:44.171875,-0.59
16:13:44.187500,14.29
16:13:44.203125,26.65
16:13:44.218750,37.81
16:13:44.234375,50.66
16:13:44.250000,67.21
16:13:44.265625,86.42
16:13:44.281250,104.07
16:13:44.296875,114.96
16:13:44.312500,115.77
16:13:44.328125,107.26
16:13:44.343750,93.97
16:13:44.359375,81.94
16:13:44.375000,75.54
16:13:44.390625,75.52
16:13:44.406250,78.83
16:13:44.421875,80.25
16:13:44.437500,74.91
16:13:44.453125,59.80
16:13:44.468750,34.69
16:13:44.484375,1.62
16:13:44.500000,-36.07
16:13:44.515625,-74.56
16:13:44.531250,-109.84
16:13:44.546875,-137.98
16:13:44.562500,-155.87
16:13:44.578125,-162.09
16:13:44.593750,-158.07
16:13:44.609375,-147.64
16:13:44.625000,-135.63
16:13:44.640625,-125.51
16:13:44.656250,-117.71
16:13:44.671875,-109.60
16:13:44.687500,-97.31
16:13:44.703125,-78.16
16:13:44.718750,-52.26
16:13:44.734375,-22.35
16:13:44.750000,7.95
16:13:44.765625,36.04
16:13:44.781250,61.33
16:13:44.796875,84.69
16:13:44.812500,107.05
16:13:44.828125,128.18
16:13:44.843750,146.30
16:13:44.859375,158.80
16:13:44.875000,163.40
16:13:44.890625,159.32
16:13:44.906250,147.70
16:13:44.921875,131.45
16:13:44.937500,114.45
16:13:44.953125,99.85
16:13:44.968750,89.08
16:13:44.984375,81.28
16:13:45,73.89
16:13:45.015625,64.12
16:13:45.031250,50.55
16:13:45.046875,34.03
16:13:45.062500,17.44
16:13:45.078125,4.50
16:13:45.093750,-1.86
16:13:45.109375,-0.42
16:13:45.125000,8.19
16:13:45.140625,22.15
16:13:45.156250,39.41
16:13:45.171875,58.30
16:13:45.187500,77.70
16:13:45.203125,96.65
16:13:45.218750,114.09
16:13:45.234375,128.72
16:13:45.250000,139.26
16:13:45.265625,144.82
16:13:45.281250,145.29
16:13:45.296875,141.47
16:13:45.312500,135.06
16:13:45.328125,128.28
16:13:45.343750,123.25
16:13:45.359375,121.41
16:13:45.375000,123.05
16:13:45.390625,127.32
16:13:45.406250,132.53
16:13:45.421875,136.74
16:13:45.437500,138.20
16:13:45.453125,135.69
16:13:45.468750,128.64
16:13:45.484375,117.08
16:13:45.500000,101.84
16:13:45.515625,84.64
16:13:45.531250,67.93
16:13:45.546875,54.52
16:13:45.562500,46.50
16:13:45.578125,44.37
16:13:45.593750,46.77
16:13:45.609375,50.98
16:13:45.625000,53.98
16:13:45.640625,53.63
16:13:45.656250,49.22
16:13:45.671875,41.00
16:13:45.687500,29.53
16:13:45.703125,15.29
16:13:45.718750,-0.89
16:13:45.734375,-17.09
16:13:45.750000,-30.32
16:13:45.765625,-37.73
16:13:45.781250,-38.30
16:13:45.796875,-33.82
16:13:45.812500,-28.08
16:13:45.828125,-24.44
16:13:45.843750,-23.55
16:13:45.859375,-22.93
16:13:45.875000,-18.72
16:13:45.890625,-9.05
16:13:45.906250,3.69
16:13:45.921875,13.47
16:13:45.937500,13.87
16:13:45.953125,2.48
16:13:45.968750,-16.81
16:13:45.984375,-35.58
16:13:46,-45.50
16:13:46.015625,-42.90
16:13:46.031250,-30.49
16:13:46.046875,-15.10
16:13:46.062500,-3.23
16:13:46.078125,2.44
16:13:46.093750,3.78
16:13:46.109375,5.08
16:13:46.125000,9.59
16:13:46.140625,17.21
16:13:46.156250,24.95
16:13:46.171875,29.04
16:13:46.187500,27.38
16:13:46.203125,20.88
16:13:46.218750,12.40
16:13:46.234375,4.71
16:13:46.250000,-1.31
16:13:46.265625,-6.72
16:13:46.281250,-13.02
16:13:46.296875,-20.23
16:13:46.312500,-26.38
16:13:46.328125,-28.55
16:13:46.343750,-24.71
16:13:46.359375,-15.66
16:13:46.375000,-5.24
16:13:46.390625,1.23
16:13:46.406250,-0.06
16:13:46.421875,-9.13
16:13:46.437500,-21.86
16:13:46.453125,-32.26
16:13:46.468750,-35.90
16:13:46.484375,-32.70
16:13:46.500000,-26.83
16:13:46.515625,-23.74
16:13:46.531250,-26.54
16:13:46.546875,-33.90
16:13:46.562500,-40.90
16:13:46.578125,-42.07
16:13:46.593750,-34.71
16:13:46.609375,-20.21
16:13:46.625000,-2.99
16:13:46.640625,11.92
16:13:46.656250,21.45
16:13:46.671875,25.55
16:13:46.687500,26.28
16:13:46.703125,26.29
16:13:46.718750,27.44
16:13:46.734375,30.30
16:13:46.750000,34.47
16:13:46.765625,39.05
16:13:46.781250,42.85
16:13:46.796875,44.86
16:13:46.812500,44.55
16:13:46.828125,42.12
16:13:46.843750,38.47
16:13:46.859375,34.81
16:13:46.875000,31.83
16:13:46.890625,29.38
16:13:46.906250,26.80
16:13:46.921875,23.42
16:13:46.937500,19.18
16:13:46.953125,14.78
16:13:46.968750,11.36
16:13:46.984375,9.76
16:13:47,10.04
16:13:47.015625,11.41
16:13:47.031250,12.61
16:13:47.046875,12.40
16:13:47.062500,10.05
16:13:47.078125,5.51
16:13:47.093750,-0.68
16:13:47.109375,-7.59
16:13:47.125000,-14.20
16:13:47.140625,-19.59
16:13:47.156250,-23.26
16:13:47.171875,-25.20
16:13:47.187500,-25.93
16:13:47.203125,-26.33
16:13:47.218750,-27.38
16:13:47.234375,-29.80
16:13:47.250000,-34.07
16:13:47.265625,-40.61
16:13:47.281250,-49.64
16:13:47.296875,-60.77
16:13:47.312500,-72.28
16:13:47.328125,-81.07
16:13:47.343750,-83.45
16:13:47.359375,-76.83
16:13:47.375000,-61.32
16:13:47.390625,-40.28
16:13:47.406250,-19.10
16:13:47.421875,-2.83
16:13:47.437500,6.10
16:13:47.453125,8.79
16:13:47.468750,8.70
16:13:47.484375,9.47
16:13:47.500000,12.89
16:13:47.515625,18.37
16:13:47.531250,23.91
16:13:47.546875,27.72
16:13:47.562500,29.39
16:13:47.578125,29.81
16:13:47.593750,30.29
16:13:47.609375,31.48
16:13:47.625000,33.00
16:13:47.640625,33.92
16:13:47.656250,33.34
16:13:47.671875,31.09
16:13:47.687500,27.83
16:13:47.703125,24.71
16:13:47.718750,22.78
16:13:47.734375,22.57
16:13:47.750000,23.91
16:13:47.765625,26.07
16:13:47.781250,27.98
16:13:47.796875,28.68
16:13:47.812500,27.63
16:13:47.828125,24.94
16:13:47.843750,21.25
16:13:47.859375,17.53
16:13:47.875000,14.63
16:13:47.890625,12.96
16:13:47.906250,12.34
16:13:47.921875,12.13
16:13:47.937500,11.55
16:13:47.953125,10.08
16:13:47.968750,7.73
16:13:47.984375,4.96
16:13:48,2.42
16:13:48.015625,0.64
16:13:48.031250,-0.29
16:13:48.046875,-0.73
16:13:48.062500,-1.41
16:13:48.078125,-3.09
16:13:48.093750,-6.30
16:13:48.109375,-11.07
16:13:48.125000,-17.04
16:13:48.140625,-23.50
16:13:48.156250,-29.61
16:13:48.171875,-34.60
16:13:48.187500,-37.84
16:13:48.203125,-38.90
16:13:48.218750,-37.55
16:13:48.234375,-33.82
16:13:48.250000,-28.10
16:13:48.265625,-21.16
16:13:48.281250,-14.03
16:13:48.296875,-7.74
16:13:48.312500,-2.98
16:13:48.328125,0.14
16:13:48.343750,2.05
16:13:48.359375,3.49
16:13:48.375000,5.03
16:13:48.390625,6.84
16:13:48.406250,8.69
16:13:48.421875,10.07
16:13:48.437500,10.58
16:13:48.453125,10.11
16:13:48.468750,8.85
16:13:48.484375,7.24
16:13:48.500000,5.77
16:13:48.515625,4.90
16:13:48.531250,4.99
16:13:48.546875,6.14
16:13:48.562500,8.05
16:13:48.578125,10.01
16:13:48.593750,11.04
16:13:48.609375,10.34
16:13:48.625000,7.68
16:13:48.640625,3.61
16:13:48.656250,-0.74
16:13:48.671875,-4.19
16:13:48.687500,-6.05
16:13:48.703125,-6.33
16:13:48.718750,-5.64
16:13:48.734375,-4.78
16:13:48.750000,-4.35
16:13:48.765625,-4.67
16:13:48.781250,-5.79
16:13:48.796875,-7.65
16:13:48.812500,-10.08
16:13:48.828125,-12.77
16:13:48.843750,-15.26
16:13:48.859375,-17.04
16:13:48.875000,-17.93
16:13:48.890625,-18.15
16:13:48.906250,-18.41
16:13:48.921875,-19.70
16:13:48.937500,-22.87
16:13:48.953125,-28.00
16:13:48.968750,-34.09
16:13:48.984375,-38.99
16:13:49,-40.13
16:13:49.015625,-35.62
16:13:49.031250,-25.25
16:13:49.046875,-10.91
16:13:49.062500,4.14
16:13:49.078125,16.62
16:13:49.093750,24.65
16:13:49.109375,28.44
16:13:49.125000,29.81
16:13:49.140625,30.93
16:13:49.156250,33.09
16:13:49.171875,36.10
16:13:49.187500,38.72
16:13:49.203125,39.64
16:13:49.218750,38.35
16:13:49.234375,35.35
16:13:49.250000,31.70
16:13:49.265625,28.31
16:13:49.281250,25.46
16:13:49.296875,22.86
16:13:49.312500,20.02
16:13:49.328125,16.63
16:13:49.343750,12.92
16:13:49.359375,9.58
16:13:49.375000,7.38
16:13:49.390625,6.80
16:13:49.406250,7.63
16:13:49.421875,8.97
16:13:49.437500,9.60
16:13:49.453125,8.50
16:13:49.468750,5.40
16:13:49.484375,0.97
16:13:49.500000,-3.45
16:13:49.515625,-6.55
16:13:49.531250,-7.58
16:13:49.546875,-6.72
16:13:49.562500,-4.93
16:13:49.578125,-3.43
16:13:49.593750,-3.14
16:13:49.609375,-4.32
16:13:49.625000,-6.53
16:13:49.640625,-8.96
16:13:49.656250,-10.81
16:13:49.671875,-11.57
16:13:49.687500,-11.10
16:13:49.703125,-9.69
16:13:49.718750,-7.90
16:13:49.734375,-6.49
16:13:49.750000,-6.23
16:13:49.765625,-7.65
16:13:49.781250,-10.83
16:13:49.796875,-15.25
16:13:49.812500,-20.01
16:13:49.828125,-24.08
16:13:49.843750,-26.67
16:13:49.859375,-27.59
16:13:49.875000,-27.22
16:13:49.890625,-26.35
16:13:49.906250,-25.95
16:13:49.921875,-26.76
16:13:49.937500,-28.84
16:13:49.953125,-31.25
16:13:49.968750,-32.12
16:13:49.984375,-29.26
16:13:50,-21.25
16:13:50.015625,-8.46
16:13:50.031250,6.75
16:13:50.046875,20.70
16:13:50.062500,29.95
16:13:50.078125,32.80
16:13:50.093750,29.90
16:13:50.109375,23.75
16:13:50.125000,17.18
16:13:50.140625,12.10
16:13:50.156250,8.84
16:13:50.171875,6.46
16:13:50.187500,3.85
16:13:50.203125,0.31
16:13:50.218750,-4.22
16:13:50.234375,-9.52
16:13:50.250000,-15.40
16:13:50.265625,-21.47
16:13:50.281250,-26.83
16:13:50.296875,-29.93
16:13:50.312500,-29.21
16:13:50.328125,-24.01
16:13:50.343750,-15.12
16:13:50.359375,-4.82
16:13:50.375000,4.14
16:13:50.390625,9.76
16:13:50.406250,11.52
16:13:50.421875,10.23
16:13:50.437500,7.21
16:13:50.453125,3.35
16:13:50.468750,-1.14
16:13:50.484375,-6.36
16:13:50.500000,-12.14
16:13:50.515625,-17.72
16:13:50.531250,-22.02
16:13:50.546875,-24.30
16:13:50.562500,-24.77
16:13:50.578125,-24.56
16:13:50.593750,-24.98
16:13:50.609375,-26.74
16:13:50.625000,-29.54
16:13:50.640625,-32.16
16:13:50.656250,-33.08
16:13:50.671875,-31.30
16:13:50.687500,-26.63
16:13:50.703125,-19.74
16:13:50.718750,-11.74
16:13:50.734375,-3.76
16:13:50.750000,3.30
16:13:50.765625,8.90
16:13:50.781250,12.84
16:13:50.796875,15.28
16:13:50.812500,16.74
16:13:50.828125,17.95
16:13:50.843750,19.66
16:13:50.859375,22.24
16:13:50.875000,25.51
16:13:50.890625,28.77
16:13:50.906250,31.11
16:13:50.921875,31.95
16:13:50.937500,31.32
16:13:50.953125,29.77
16:13:50.968750,27.92
16:13:50.984375,26.11
16:13:51,24.17
16:13:51.015625,21.51
16:13:51.031250,17.69
16:13:51.046875,12.87
16:13:51.062500,8.04
16:13:51.078125,4.53
16:13:51.093750,3.39
16:13:51.109375,4.77
16:13:51.125000,7.82
16:13:51.140625,11.19
16:13:51.156250,13.69
16:13:51.171875,14.89
16:13:51.187500,15.15
16:13:51.203125,15.29
16:13:51.218750,15.85
16:13:51.234375,16.82
16:13:51.250000,17.67
16:13:51.265625,17.75
16:13:51.281250,16.74
16:13:51.296875,14.74
16:13:51.312500,12.04
16:13:51.328125,8.81
16:13:51.343750,4.99
16:13:51.359375,0.54
16:13:51.375000,-4.21
16:13:51.390625,-8.41
16:13:51.406250,-11.03
16:13:51.421875,-11.30
16:13:51.437500,-9.12
16:13:51.453125,-5.26
16:13:51.468750,-1.00
16:13:51.484375,2.32
16:13:51.500000,3.89
16:13:51.515625,3.70
16:13:51.531250,2.35
16:13:51.546875,0.68
16:13:51.562500,-0.61
16:13:51.578125,-1.16
16:13:51.593750,-0.91
16:13:51.609375,0.10
16:13:51.625000,1.83
16:13:51.640625,4.17
16:13:51.656250,6.88
16:13:51.671875,9.51
16:13:51.687500,11.48
16:13:51.703125,12.40
16:13:51.718750,12.23
16:13:51.734375,11.34
16:13:51.750000,10.37
16:13:51.765625,9.86
16:13:51.781250,9.93
16:13:51.796875,10.19
16:13:51.812500,10.04
16:13:51.828125,9.10
16:13:51.843750,7.54
16:13:51.859375,6.05
16:13:51.875000,5.49
16:13:51.890625,6.35
16:13:51.906250,8.54
16:13:51.921875,11.41
16:13:51.937500,14.07
16:13:51.953125,15.85
16:13:51.968750,16.56
16:13:51.984375,16.38
16:13:52,15.71
16:13:52.015625,14.87
16:13:52.031250,14.02
16:13:52.046875,13.11
16:13:52.062500,12.07
16:13:52.078125,10.87
16:13:52.093750,9.51
16:13:52.109375,8.04
16:13:52.125000,6.45
16:13:52.140625,4.80
16:13:52.156250,3.22
16:13:52.171875,1.91
16:13:52.187500,1.02
16:13:52.203125,0.59
16:13:52.218750,0.46
16:13:52.234375,0.34
16:13:52.250000,-0.12
16:13:52.265625,-1.30
16:13:52.281250,-3.56
16:13:52.296875,-7.24
16:13:52.312500,-12.42
16:13:52.328125,-18.62
16:13:52.343750,-24.72
16:13:52.359375,-29.28
16:13:52.375000,-31.16
16:13:52.390625,-30.08
16:13:52.406250,-26.72
16:13:52.421875,-22.30
16:13:52.437500,-17.89
16:13:52.453125,-13.89
16:13:52.468750,-9.99
16:13:52.484375,-5.79
16:13:52.500000,-1.29
16:13:52.515625,2.89
16:13:52.531250,5.88
16:13:52.546875,7.20
16:13:52.562500,7.15
16:13:52.578125,6.61
16:13:52.593750,6.49
16:13:52.609375,7.11
16:13:52.625000,8.05
16:13:52.640625,8.47
16:13:52.656250,7.72
16:13:52.671875,5.73
16:13:52.687500,2.99
16:13:52.703125,0.32
16:13:52.718750,-1.53
16:13:52.734375,-2.18
16:13:52.750000,-1.70
16:13:52.765625,-0.62
16:13:52.781250,0.38
16:13:52.796875,0.65
16:13:52.812500,-0.12
16:13:52.828125,-1.83
16:13:52.843750,-3.94
16:13:52.859375,-5.73
16:13:52.875000,-6.57
16:13:52.890625,-6.17
16:13:52.906250,-4.79
16:13:52.921875,-3.03
16:13:52.937500,-1.72
16:13:52.953125,-1.70
16:13:52.968750,-3.68
16:13:52.984375,-8.08
16:13:53,-14.72
16:13:53.015625,-22.60
16:13:53.031250,-29.97
16:13:53.046875,-34.84
16:13:53.062500,-35.73
16:13:53.078125,-32.42
16:13:53.093750,-26.08
16:13:53.109375,-18.73
16:13:53.125000,-12.25
16:13:53.140625,-7.63
16:13:53.156250,-4.65
16:13:53.171875,-2.40
16:13:53.187500,-0.09
16:13:53.203125,2.37
16:13:53.218750,4.28
16:13:53.234375,4.69
16:13:53.250000,2.96
16:13:53.265625,-0.81
16:13:53.281250,-5.76
16:13:53.296875,-10.62
16:13:53.312500,-14.21
16:13:53.328125,-15.68
16:13:53.343750,-14.75
16:13:53.359375,-11.82
16:13:53.375000,-7.80
16:13:53.390625,-3.77
16:13:53.406250,-0.68
16:13:53.421875,0.98
16:13:53.437500,1.28
16:13:53.453125,0.88
16:13:53.468750,0.84
16:13:53.484375,2.44
16:13:53.500000,6.80
16:13:53.515625,14.45
16:13:53.531250,24.99
16:13:53.546875,36.98
16:13:53.562500,48.24
16:13:53.578125,56.58
16:13:53.593750,60.48
16:13:53.609375,59.53
16:13:53.625000,54.38
16:13:53.640625,46.18
16:13:53.656250,36.15
16:13:53.671875,25.29
16:13:53.687500,14.53
16:13:53.703125,5.05
16:13:53.718750,-1.73
16:13:53.734375,-4.54
16:13:53.750000,-2.94
16:13:53.765625,2.12
16:13:53.781250,8.48
16:13:53.796875,13.58
16:13:53.812500,15.41
16:13:53.828125,13.44
16:13:53.843750,8.72
16:13:53.859375,3.22
16:13:53.875000,-1.07
16:13:53.890625,-3.15
16:13:53.906250,-3.23
16:13:53.921875,-2.47
16:13:53.937500,-2.20
16:13:53.953125,-3.22
16:13:53.968750,-5.42
16:13:53.984375,-7.92
16:13:54,-9.67
16:13:54.015625,-9.97
16:13:54.031250,-8.82
16:13:54.046875,-6.86
16:13:54.062500,-5.05
16:13:54.078125,-4.17
16:13:54.093750,-4.44
16:13:54.109375,-5.47
16:13:54.125000,-6.47
16:13:54.140625,-6.68
16:13:54.156250,-5.70
16:13:54.171875,-3.72
16:13:54.187500,-1.36
16:13:54.203125,0.62
16:13:54.218750,1.72
16:13:54.234375,1.91
16:13:54.250000,1.64
16:13:54.265625,1.47
16:13:54.281250,1.70
16:13:54.296875,2.22
16:13:54.312500,2.56
16:13:54.328125,2.23
16:13:54.343750,1.12
16:13:54.359375,-0.34
16:13:54.375000,-1.42
16:13:54.390625,-1.46
16:13:54.406250,-0.31
16:13:54.421875,1.55
16:13:54.437500,3.31
16:13:54.453125,4.26
16:13:54.468750,4.16
16:13:54.484375,3.35
16:13:54.500000,2.40
16:13:54.515625,1.76
16:13:54.531250,1.48
16:13:54.546875,1.23
16:13:54.562500,0.59
16:13:54.578125,-0.62
16:13:54.593750,-2.25
16:13:54.609375,-3.83
16:13:54.625000,-4.84
16:13:54.640625,-4.99
16:13:54.656250,-4.27
16:13:54.671875,-2.96
16:13:54.687500,-1.45
16:13:54.703125,-0.06
16:13:54.718750,0.98
16:13:54.734375,1.56
16:13:54.750000,1.57
16:13:54.765625,0.96
16:13:54.781250,-0.28
16:13:54.796875,-1.93
16:13:54.812500,-3.54
16:13:54.828125,-4.50
16:13:54.843750,-4.24
16:13:54.859375,-2.49
16:13:54.875000,0.55
16:13:54.890625,4.21
16:13:54.906250,7.57
16:13:54.921875,9.84
16:13:54.937500,10.61
16:13:54.953125,10.00
16:13:54.968750,8.51
16:13:54.984375,6.78
16:13:55,5.35
16:13:55.015625,4.49
16:13:55.031250,4.28
16:13:55.046875,4.63
16:13:55.062500,5.42
16:13:55.078125,6.46
16:13:55.093750,7.57
16:13:55.109375,8.50
16:13:55.125000,9.08
16:13:55.140625,9.21
16:13:55.156250,8.92
16:13:55.171875,8.34
16:13:55.187500,7.61
16:13:55.203125,6.84
16:13:55.218750,6.03
16:13:55.234375,5.18
16:13:55.250000,4.29
16:13:55.265625,3.42
16:13:55.281250,2.65
16:13:55.296875,2.03
16:13:55.312500,1.52
16:13:55.328125,1.04
16:13:55.343750,0.49
16:13:55.359375,-0.13
16:13:55.375000,-0.72
16:13:55.390625,-1.09
16:13:55.406250,-1.13
16:13:55.421875,-0.87
16:13:55.437500,-0.53
16:13:55.453125,-0.47
16:13:55.468750,-0.97
16:13:55.484375,-2.13
16:13:55.500000,-3.82
16:13:55.515625,-5.76
16:13:55.531250,-7.71
16:13:55.546875,-9.63
16:13:55.562500,-11.59
16:13:55.578125,-13.80
16:13:55.593750,-16.30
16:13:55.609375,-18.93
16:13:55.625000,-21.36
16:13:55.640625,-23.22
16:13:55.656250,-24.24
16:13:55.671875,-24.34
16:13:55.687500,-23.50
16:13:55.703125,-21.69
16:13:55.718750,-18.94
16:13:55.734375,-15.35
16:13:55.750000,-11.28
16:13:55.765625,-7.33
16:13:55.781250,-4.15
16:13:55.796875,-2.18
16:13:55.812500,-1.48
16:13:55.828125,-1.66
16:13:55.843750,-2.12
16:13:55.859375,-2.28
16:13:55.875000,-1.82
16:13:55.890625,-0.74
16:13:55.906250,0.72
16:13:55.921875,2.28
16:13:55.937500,3.71
16:13:55.953125,4.85
16:13:55.968750,5.66
16:13:55.984375,6.16
16:13:56,6.39
16:13:56.015625,6.45
16:13:56.031250,6.40
16:13:56.046875,6.28
16:13:56.062500,6.15
16:13:56.078125,6.09
16:13:56.093750,6.19
16:13:56.109375,6.54
16:13:56.125000,7.13
16:13:56.140625,7.80
16:13:56.156250,8.21
16:13:56.171875,7.96
16:13:56.187500,6.77
16:13:56.203125,4.56
16:13:56.218750,1.57
16:13:56.234375,-1.77
16:13:56.250000,-5.04
16:13:56.265625,-7.98
16:13:56.281250,-10.57
16:13:56.296875,-12.91
16:13:56.312500,-15.04
16:13:56.328125,-16.78
16:13:56.343750,-17.76
16:13:56.359375,-17.59
16:13:56.375000,-16.20
16:13:56.390625,-13.99
16:13:56.406250,-11.76
16:13:56.421875,-10.43
16:13:56.437500,-10.52
16:13:56.453125,-11.95
16:13:56.468750,-14.03
16:13:56.484375,-15.78
16:13:56.500000,-16.39
16:13:56.515625,-15.52
16:13:56.531250,-13.31
16:13:56.546875,-10.23
16:13:56.562500,-6.77
16:13:56.578125,-3.22
16:13:56.593750,0.28
16:13:56.609375,3.61
16:13:56.625000,6.54
16:13:56.640625,8.72
16:13:56.656250,9.76
16:13:56.671875,9.45
16:13:56.687500,7.88
16:13:56.703125,5.43
16:13:56.718750,2.61
16:13:56.734375,-0.11
16:13:56.750000,-2.45
16:13:56.765625,-4.31
16:13:56.781250,-5.72
16:13:56.796875,-6.76
16:13:56.812500,-7.48
16:13:56.828125,-7.93
16:13:56.843750,-8.19
16:13:56.859375,-8.39
16:13:56.875000,-8.72
16:13:56.890625,-9.35
16:13:56.906250,-10.36
16:13:56.921875,-11.67
16:13:56.937500,-13.05
16:13:56.953125,-14.18
16:13:56.968750,-14.77
16:13:56.984375,-14.64
16:13:57,-13.86
16:13:57.015625,-12.62
16:13:57.031250,-11.20
16:13:57.046875,-9.80
16:13:57.062500,-8.55
16:13:57.078125,-7.42
16:13:57.093750,-6.33
16:13:57.109375,-5.11
16:13:57.125000,-3.53
16:13:57.140625,-1.27
16:13:57.156250,1.91
16:13:57.171875,6.05
16:13:57.187500,10.86
16:13:57.203125,15.76
16:13:57.218750,20.14
16:13:57.234375,23.69
16:13:57.250000,26.57
16:13:57.265625,29.27
16:13:57.281250,32.29
16:13:57.296875,35.79
16:13:57.312500,39.45
16:13:57.328125,42.76
16:13:57.343750,45.37
16:13:57.359375,47.10
16:13:57.375000,47.73
16:13:57.390625,46.48
16:13:57.406250,41.99
16:13:57.421875,32.81
16:13:57.437500,18.42
16:13:57.453125,-0.01
16:13:57.468750,-19.64
16:13:57.484375,-37.05
16:13:57.500000,-49.68
16:13:57.515625,-56.84
16:13:57.531250,-59.63
16:13:57.546875,-59.87
16:13:57.562500,-58.79
16:13:57.578125,-56.56
16:13:57.593750,-52.69
16:13:57.609375,-47.12
16:13:57.625000,-40.89
16:13:57.640625,-35.80
16:13:57.656250,-33.35
16:13:57.671875,-33.54
16:13:57.687500,-34.58
16:13:57.703125,-33.78
16:13:57.718750,-29.02
16:13:57.734375,-19.96
16:13:57.750000,-8.19
16:13:57.765625,3.57
16:13:57.781250,12.85
16:13:57.796875,18.39
16:13:57.812500,20.37
16:13:57.828125,19.88
16:13:57.843750,18.20
16:13:57.859375,16.26
16:13:57.875000,14.52
16:13:57.890625,13.15
16:13:57.906250,12.36
16:13:57.921875,12.47
16:13:57.937500,13.88
16:13:57.953125,16.79
16:13:57.968750,21.07
16:13:57.984375,26.14
16:13:58,31.12
16:13:58.015625,35.02
16:13:58.031250,36.94
16:13:58.046875,36.44
16:13:58.062500,33.61
16:13:58.078125,29.12
16:13:58.093750,24.07
16:13:58.109375,19.60
16:13:58.125000,16.56
16:13:58.140625,15.25
16:13:58.156250,15.33
16:13:58.171875,16.03
16:13:58.187500,16.50
16:13:58.203125,16.16
16:13:58.218750,14.93
16:13:58.234375,13.08
16:13:58.250000,11.04
16:13:58.265625,9.09
16:13:58.281250,7.28
16:13:58.296875,5.52
16:13:58.312500,3.71
16:13:58.328125,1.98
16:13:58.343750,0.57
16:13:58.359375,-0.31
16:13:58.375000,-0.62
16:13:58.390625,-0.60
16:13:58.406250,-0.64
16:13:58.421875,-1.06
16:13:58.437500,-1.97
16:13:58.453125,-3.25
16:13:58.468750,-4.58
16:13:58.484375,-5.65
16:13:58.500000,-6.28
16:13:58.515625,-6.43
16:13:58.531250,-6.21
16:13:58.546875,-5.70
16:13:58.562500,-4.97
16:13:58.578125,-4.03
16:13:58.593750,-2.91
16:13:58.609375,-1.73
16:13:58.625000,-0.70
16:13:58.640625,-0.08
16:13:58.656250,-0.05
16:13:58.671875,-0.61
16:13:58.687500,-1.56
16:13:58.703125,-2.63
16:13:58.718750,-3.57
16:13:58.734375,-4.27
16:13:58.750000,-4.77
16:13:58.765625,-5.19
16:13:58.781250,-5.62
16:13:58.796875,-6.07
16:13:58.812500,-6.43
16:13:58.828125,-6.54
16:13:58.843750,-6.30
16:13:58.859375,-5.70
16:13:58.875000,-4.88
16:13:58.890625,-4.05
16:13:58.906250,-3.40
16:13:58.921875,-3.02
16:13:58.937500,-2.86
16:13:58.953125,-2.71
16:13:58.968750,-2.37
16:13:58.984375,-1.74
16:13:59,-0.91
16:13:59.015625,-0.12
16:13:59.031250,0.37
16:13:59.046875,0.43
16:13:59.062500,0.06
16:13:59.078125,-0.52
16:13:59.093750,-1.03
16:13:59.109375,-1.21
16:13:59.125000,-0.94
16:13:59.140625,-0.31
16:13:59.156250,0.49
16:13:59.171875,1.20
16:13:59.187500,1.64
16:13:59.203125,1.78
16:13:59.218750,1.73
16:13:59.234375,1.67
16:13:59.250000,1.77
16:13:59.265625,2.02
16:13:59.281250,2.31
16:13:59.296875,2.45
16:13:59.312500,2.29
16:13:59.328125,1.84
16:13:59.343750,1.25
16:13:59.359375,0.73
16:13:59.375000,0.40
16:13:59.390625,0.22
16:13:59.406250,0.03
16:13:59.421875,-0.33
16:13:59.437500,-0.90
16:13:59.453125,-1.58
16:13:59.468750,-2.18
16:13:59.484375,-2.56
16:13:59.500000,-2.68
16:13:59.515625,-2.68
16:13:59.531250,-2.74
16:13:59.546875,-3.05
16:13:59.562500,-3.64
16:13:59.578125,-4.45
16:13:59.593750,-5.34
16:13:59.609375,-6.23
16:13:59.625000,-7.09
16:13:59.640625,-7.94
16:13:59.656250,-8.76
16:13:59.671875,-9.51
16:13:59.687500,-10.03
16:13:59.703125,-10.22
16:13:59.718750,-9.99
16:13:59.734375,-9.37
16:13:59.750000,-8.54
16:13:59.765625,-7.74
16:13:59.781250,-7.21
16:13:59.796875,-7.14
16:13:59.812500,-7.49
16:13:59.828125,-8.08
16:13:59.843750,-8.62
16:13:59.859375,-8.85
16:13:59.875000,-8.68
16:13:59.890625,-8.22
16:13:59.906250,-7.74
16:13:59.921875,-7.53
16:13:59.937500,-7.72
16:13:59.953125,-8.24
16:13:59.968750,-8.81
16:13:59.984375,-9.11
16:14:00,-8.92
16:14:00.015625,-8.24
16:14:00.031250,-7.24
16:14:00.046875,-6.19
16:14:00.062500,-5.28
16:14:00.078125,-4.58
16:14:00.093750,-4.04
16:14:00.109375,-3.55
16:14:00.125000,-3.04
16:14:00.140625,-2.53
16:14:00.156250,-2.15
16:14:00.171875,-2.03
16:14:00.187500,-2.27
16:14:00.203125,-2.83
16:14:00.218750,-3.56
16:14:00.234375,-4.28
16:14:00.250000,-4.79
16:14:00.265625,-4.94
16:14:00.281250,-4.69
16:14:00.296875,-4.12
16:14:00.312500,-3.37
16:14:00.328125,-2.62
16:14:00.343750,-2.07
16:14:00.359375,-1.79
16:14:00.375000,-1.76
16:14:00.390625,-1.80
16:14:00.406250,-1.66
16:14:00.421875,-1.11
16:14:00.437500,0.02
16:14:00.453125,1.73
16:14:00.468750,3.90
16:14:00.484375,6.27
16:14:00.500000,8.50
16:14:00.515625,10.25
16:14:00.531250,11.22
16:14:00.546875,11.26
16:14:00.562500,10.43
16:14:00.578125,9.07
16:14:00.593750,7.73
16:14:00.609375,7.00
16:14:00.625000,7.26
16:14:00.640625,8.49
16:14:00.656250,10.30
16:14:00.671875,11.99
16:14:00.687500,12.89
16:14:00.703125,12.65
16:14:00.718750,11.34
16:14:00.734375,9.45
16:14:00.750000,7.67
16:14:00.765625,6.59
16:14:00.781250,6.53
16:14:00.796875,7.48
16:14:00.812500,9.18
16:14:00.828125,11.29
16:14:00.843750,13.46
16:14:00.859375,15.37
16:14:00.875000,16.78
16:14:00.890625,17.50
16:14:00.906250,17.44
16:14:00.921875,16.61
16:14:00.937500,15.15
16:14:00.953125,13.21
16:14:00.968750,10.92
16:14:00.984375,8.31
16:14:01,5.40
16:14:01.015625,2.15
16:14:01.031250,-1.38
16:14:01.046875,-5.08
16:14:01.062500,-8.79
16:14:01.078125,-12.30
16:14:01.093750,-15.39
16:14:01.109375,-17.78
16:14:01.125000,-19.13
16:14:01.140625,-19.14
16:14:01.156250,-17.65
16:14:01.171875,-14.72
16:14:01.187500,-10.74
16:14:01.203125,-6.30
16:14:01.218750,-2.07
16:14:01.234375,1.35
16:14:01.250000,3.54
16:14:01.265625,4.36
16:14:01.281250,3.90
16:14:01.296875,2.54
16:14:01.312500,0.74
16:14:01.328125,-1.01
16:14:01.343750,-2.37
16:14:01.359375,-3.33
16:14:01.375000,-4.11
16:14:01.390625,-5.09
16:14:01.406250,-6.54
16:14:01.421875,-8.47
16:14:01.437500,-10.58
16:14:01.453125,-12.36
16:14:01.468750,-13.43
16:14:01.484375,-13.60
16:14:01.500000,-13.01
16:14:01.515625,-11.94
16:14:01.531250,-10.69
16:14:01.546875,-9.45
16:14:01.562500,-8.35
16:14:01.578125,-7.52
16:14:01.593750,-7.12
16:14:01.609375,-7.22
16:14:01.625000,-7.73
16:14:01.640625,-8.30
16:14:01.656250,-8.54
16:14:01.671875,-8.22
16:14:01.687500,-7.42
16:14:01.703125,-6.53
16:14:01.718750,-5.94
16:14:01.734375,-5.78
16:14:01.750000,-5.77
16:14:01.765625,-5.39
16:14:01.781250,-4.20
16:14:01.796875,-2.17
16:14:01.812500,0.24
16:14:01.828125,2.32
16:14:01.843750,3.35
16:14:01.859375,2.91
16:14:01.875000,1.00
16:14:01.890625,-2.00
16:14:01.906250,-5.50
16:14:01.921875,-8.76
16:14:01.937500,-11.06
16:14:01.953125,-11.77
16:14:01.968750,-10.61
16:14:01.984375,-7.68
16:14:02,-3.48
16:14:02.015625,1.19
16:14:02.031250,5.48
16:14:02.046875,8.67
16:14:02.062500,10.36
16:14:02.078125,10.43
16:14:02.093750,9.06
16:14:02.109375,6.63
16:14:02.125000,3.71
16:14:02.140625,0.91
16:14:02.156250,-1.22
16:14:02.171875,-2.36
16:14:02.187500,-2.48
16:14:02.203125,-1.82
16:14:02.218750,-0.73
16:14:02.234375,0.45
16:14:02.250000,1.51
16:14:02.265625,2.37
16:14:02.281250,3.06
16:14:02.296875,3.58
16:14:02.312500,3.88
16:14:02.328125,3.80
16:14:02.343750,3.15
16:14:02.359375,1.79
16:14:02.375000,-0.26
16:14:02.390625,-2.74
16:14:02.406250,-5.28
16:14:02.421875,-7.42
16:14:02.437500,-8.80
16:14:02.453125,-9.33
16:14:02.468750,-9.23
16:14:02.484375,-8.89
16:14:02.500000,-8.66
16:14:02.515625,-8.71
16:14:02.531250,-9.01
16:14:02.546875,-9.43
16:14:02.562500,-9.96
16:14:02.578125,-10.75
16:14:02.593750,-11.96
16:14:02.609375,-13.54
16:14:02.625000,-14.97
16:14:02.640625,-15.35
16:14:02.656250,-13.72
16:14:02.671875,-9.52
16:14:02.687500,-3.01
16:14:02.703125,4.62
16:14:02.718750,11.66
16:14:02.734375,16.51
16:14:02.750000,18.33
16:14:02.765625,17.26
16:14:02.781250,14.31
16:14:02.796875,10.76
16:14:02.812500,7.60
16:14:02.828125,5.22
16:14:02.843750,3.48
16:14:02.859375,2.06
16:14:02.875000,0.90
16:14:02.890625,0.36
16:14:02.906250,0.98
16:14:02.921875,3.10
16:14:02.937500,6.44
16:14:02.953125,10.13
16:14:02.968750,13.01
16:14:02.984375,14.15
16:14:03,13.29
16:14:03.015625,10.84
16:14:03.031250,7.71
16:14:03.046875,4.80
16:14:03.062500,2.71
16:14:03.078125,1.58
16:14:03.093750,1.21
16:14:03.109375,1.25
16:14:03.125000,1.43
16:14:03.140625,1.57
16:14:03.156250,1.61
16:14:03.171875,1.60
16:14:03.187500,1.51
16:14:03.203125,1.31
16:14:03.218750,0.89
16:14:03.234375,0.04
16:14:03.250000,-1.45
16:14:03.265625,-3.71
16:14:03.281250,-6.59
16:14:03.296875,-9.67
16:14:03.312500,-12.28
16:14:03.328125,-13.78
16:14:03.343750,-13.80
16:14:03.359375,-12.40
16:14:03.375000,-10.15
16:14:03.390625,-7.89
16:14:03.406250,-6.49
16:14:03.421875,-6.53
16:14:03.437500,-7.99
16:14:03.453125,-10.31
16:14:03.468750,-12.52
16:14:03.484375,-13.69
16:14:03.500000,-13.31
16:14:03.515625,-11.49
16:14:03.531250,-8.91
16:14:03.546875,-6.42
16:14:03.562500,-4.69
16:14:03.578125,-3.98
16:14:03.593750,-4.03
16:14:03.609375,-4.45
16:14:03.625000,-4.83
16:14:03.640625,-4.96
16:14:03.656250,-4.76
16:14:03.671875,-4.07
16:14:03.687500,-2.66
16:14:03.703125,-0.28
16:14:03.718750,3.09
16:14:03.734375,7.10
16:14:03.750000,11.03
16:14:03.765625,14.03
16:14:03.781250,15.38
16:14:03.796875,14.72
16:14:03.812500,12.13
16:14:03.828125,8.13
16:14:03.843750,3.57
16:14:03.859375,-0.42
16:14:03.875000,-2.78
16:14:03.890625,-2.73
16:14:03.906250,-0.14
16:14:03.921875,4.33
16:14:03.937500,9.37
16:14:03.953125,13.56
16:14:03.968750,15.83
16:14:03.984375,15.97
16:14:04,14.49
16:14:04.015625,12.35
16:14:04.031250,10.37
16:14:04.046875,8.95
16:14:04.062500,7.98
16:14:04.078125,7.16
16:14:04.093750,6.25
16:14:04.109375,5.26
16:14:04.125000,4.38
16:14:04.140625,3.82
16:14:04.156250,3.61
16:14:04.171875,3.59
16:14:04.187500,3.51
16:14:04.203125,3.22
16:14:04.218750,2.72
16:14:04.234375,2.16
16:14:04.250000,1.73
16:14:04.265625,1.50
16:14:04.281250,1.40
16:14:04.296875,1.27
16:14:04.312500,0.91
16:14:04.328125,0.25
16:14:04.343750,-0.61
16:14:04.359375,-1.45
16:14:04.375000,-2.02
16:14:04.390625,-2.22
16:14:04.406250,-2.11
16:14:04.421875,-1.88
16:14:04.437500,-1.73
16:14:04.453125,-1.78
16:14:04.468750,-2.05
16:14:04.484375,-2.48
16:14:04.500000,-3.01
16:14:04.515625,-3.59
16:14:04.531250,-4.20
16:14:04.546875,-4.78
16:14:04.562500,-5.26
16:14:04.578125,-5.52
16:14:04.593750,-5.48
16:14:04.609375,-5.14
16:14:04.625000,-4.57
16:14:04.640625,-3.90
16:14:04.656250,-3.27
16:14:04.671875,-2.77
16:14:04.687500,-2.41
16:14:04.703125,-2.19
16:14:04.718750,-2.06
16:14:04.734375,-1.95
16:14:04.750000,-1.77
16:14:04.765625,-1.45
16:14:04.781250,-0.98
16:14:04.796875,-0.37
16:14:04.812500,0.25
16:14:04.828125,0.69
16:14:04.843750,0.76
16:14:04.859375,0.35
16:14:04.875000,-0.50
16:14:04.890625,-1.62
16:14:04.906250,-2.75
16:14:04.921875,-3.66
16:14:04.937500,-4.22
16:14:04.953125,-4.44
16:14:04.968750,-4.44
16:14:04.984375,-4.36
16:14:05,-4.34
16:14:05.015625,-4.42
16:14:05.031250,-4.61
16:14:05.046875,-4.86
16:14:05.062500,-5.10
16:14:05.078125,-5.30
16:14:05.093750,-5.39
16:14:05.109375,-5.36
16:14:05.125000,-5.19
16:14:05.140625,-4.88
16:14:05.156250,-4.46
16:14:05.171875,-4.05
16:14:05.187500,-3.86
16:14:05.203125,-4.17
16:14:05.218750,-5.20
16:14:05.234375,-7.06
16:14:05.250000,-9.66
16:14:05.265625,-12.71
16:14:05.281250,-15.86
16:14:05.296875,-18.80
16:14:05.312500,-21.32
16:14:05.328125,-23.36
16:14:05.343750,-24.94
16:14:05.359375,-26.03
16:14:05.375000,-26.43
16:14:05.390625,-25.85
16:14:05.406250,-23.91
16:14:05.421875,-20.33
16:14:05.437500,-15.12
16:14:05.453125,-8.67
16:14:05.468750,-1.69
16:14:05.484375,4.95
16:14:05.500000,10.55
16:14:05.515625,14.73
16:14:05.531250,17.55
16:14:05.546875,19.34
16:14:05.562500,20.49
16:14:05.578125,21.23
16:14:05.593750,21.55
16:14:05.609375,21.24
16:14:05.625000,20.11
16:14:05.640625,18.13
16:14:05.656250,15.50
16:14:05.671875,12.60
16:14:05.687500,9.84
16:14:05.703125,7.58
16:14:05.718750,5.98
16:14:05.734375,5.06
16:14:05.750000,4.69
16:14:05.765625,4.69
16:14:05.781250,4.81
16:14:05.796875,4.86
16:14:05.812500,4.64
16:14:05.828125,4.06
16:14:05.843750,3.04
16:14:05.859375,1.56
16:14:05.875000,-0.37
16:14:05.890625,-2.71
16:14:05.906250,-5.44
16:14:05.921875,-8.46
16:14:05.937500,-11.59
16:14:05.953125,-14.47
16:14:05.968750,-16.64
16:14:05.984375,-17.69
16:14:06,-17.42
16:14:06.015625,-16.02
16:14:06.031250,-14.10
16:14:06.046875,-12.49
16:14:06.062500,-11.91
16:14:06.078125,-12.66
16:14:06.093750,-14.42
16:14:06.109375,-16.47
16:14:06.125000,-18.03
16:14:06.140625,-18.77
16:14:06.156250,-18.99
16:14:06.171875,-19.61
16:14:06.187500,-21.63
16:14:06.203125,-25.56
16:14:06.218750,-31.01
16:14:06.234375,-36.73
16:14:06.250000,-41.13
16:14:06.265625,-42.98
16:14:06.281250,-41.98
16:14:06.296875,-38.85
16:14:06.312500,-35.10
16:14:06.328125,-32.48
16:14:06.343750,-32.68
16:14:06.359375,-36.80
16:14:06.375000,-45.14
16:14:06.390625,-56.45
16:14:06.406250,-67.38
16:14:06.421875,-72.82
16:14:06.437500,-67.27
16:14:06.453125,-47.35
16:14:06.468750,-13.85
16:14:06.484375,27.58
16:14:06.500000,68.13
16:14:06.515625,99.11
16:14:06.531250,115.18
16:14:06.546875,115.95
16:14:06.562500,105.25
16:14:06.578125,88.91
16:14:06.593750,72.26
16:14:06.609375,58.81
16:14:06.625000,50.22
16:14:06.640625,46.81
16:14:06.656250,48.08
16:14:06.671875,52.67
16:14:06.687500,58.21
16:14:06.703125,61.71
16:14:06.718750,60.47
16:14:06.734375,53.18
16:14:06.750000,40.54
16:14:06.765625,25.00
16:14:06.781250,9.79
16:14:06.796875,-2.14
16:14:06.812500,-9.05
16:14:06.828125,-10.59
16:14:06.843750,-7.77
16:14:06.859375,-2.37
16:14:06.875000,3.51
16:14:06.890625,7.99
16:14:06.906250,9.94
16:14:06.921875,9.10
16:14:06.937500,6.12
16:14:06.953125,2.23
16:14:06.968750,-1.28
16:14:06.984375,-3.48
16:14:07,-4.09
16:14:07.015625,-3.46
16:14:07.031250,-2.33
16:14:07.046875,-1.42
16:14:07.062500,-1.21
16:14:07.078125,-1.71
16:14:07.093750,-2.66
16:14:07.109375,-3.63
16:14:07.125000,-4.27
16:14:07.140625,-4.42
16:14:07.156250,-4.15
16:14:07.171875,-3.64
16:14:07.187500,-3.11
16:14:07.203125,-2.72
16:14:07.218750,-2.54
16:14:07.234375,-2.62
16:14:07.250000,-2.91
16:14:07.265625,-3.31
16:14:07.281250,-3.67
16:14:07.296875,-3.83
16:14:07.312500,-3.70
16:14:07.328125,-3.28
16:14:07.343750,-2.67
16:14:07.359375,-2.05
16:14:07.375000,-1.58
16:14:07.390625,-1.40
16:14:07.406250,-1.61
16:14:07.421875,-2.24
16:14:07.437500,-3.30
16:14:07.453125,-4.65
16:14:07.468750,-6.07
16:14:07.484375,-7.27
16:14:07.500000,-7.98
16:14:07.515625,-8.08
16:14:07.531250,-7.59
16:14:07.546875,-6.70
16:14:07.562500,-5.62
16:14:07.578125,-4.57
16:14:07.593750,-3.71
16:14:07.609375,-3.12
16:14:07.625000,-2.88
16:14:07.640625,-2.93
16:14:07.656250,-3.15
16:14:07.671875,-3.33
16:14:07.687500,-3.26
16:14:07.703125,-2.81
16:14:07.718750,-2.04
16:14:07.734375,-1.12
16:14:07.750000,-0.28
16:14:07.765625,0.32
16:14:07.781250,0.67
16:14:07.796875,0.86
16:14:07.812500,1.05
16:14:07.828125,1.33
16:14:07.843750,1.71
16:14:07.859375,2.10
16:14:07.875000,2.38
16:14:07.890625,2.44
16:14:07.906250,2.23
16:14:07.921875,1.77
16:14:07.937500,1.15
16:14:07.953125,0.47
16:14:07.968750,-0.15
16:14:07.984375,-0.61
16:14:08,-0.88
16:14:08.015625,-0.99
16:14:08.031250,-1.05
16:14:08.046875,-1.17
16:14:08.062500,-1.46
16:14:08.078125,-1.94
16:14:08.093750,-2.59
16:14:08.109375,-3.30
16:14:08.125000,-3.93
16:14:08.140625,-4.37
16:14:08.156250,-4.58
16:14:08.171875,-4.61
16:14:08.187500,-4.58
16:14:08.203125,-4.71
16:14:08.218750,-5.20
16:14:08.234375,-6.12
16:14:08.250000,-7.41
16:14:08.265625,-8.80
16:14:08.281250,-9.95
16:14:08.296875,-10.61
16:14:08.312500,-10.68
16:14:08.328125,-10.28
16:14:08.343750,-9.60
16:14:08.359375,-8.78
16:14:08.375000,-7.86
16:14:08.390625,-6.78
16:14:08.406250,-5.50
16:14:08.421875,-4.09
16:14:08.437500,-2.77
16:14:08.453125,-1.76
16:14:08.468750,-1.19
16:14:08.484375,-1.02
16:14:08.500000,-1.10
16:14:08.515625,-1.21
16:14:08.531250,-1.19
16:14:08.546875,-1.00
16:14:08.562500,-0.68
16:14:08.578125,-0.29
16:14:08.593750,0.13
16:14:08.609375,0.54
16:14:08.625000,0.92
16:14:08.640625,1.28
16:14:08.656250,1.64
16:14:08.671875,2.01
16:14:08.687500,2.41
16:14:08.703125,2.86
16:14:08.718750,3.30
16:14:08.734375,3.71
16:14:08.750000,3.99
16:14:08.765625,4.08
16:14:08.781250,3.93
16:14:08.796875,3.53
16:14:08.812500,2.95
16:14:08.828125,2.32
16:14:08.843750,1.81
16:14:08.859375,1.56
16:14:08.875000,1.58
16:14:08.890625,1.78
16:14:08.906250,1.96
16:14:08.921875,1.90
16:14:08.937500,1.47
16:14:08.953125,0.64
16:14:08.968750,-0.53
16:14:08.984375,-1.94
16:14:09,-3.44
16:14:09.015625,-4.88
16:14:09.031250,-6.11
16:14:09.046875,-6.99
16:14:09.062500,-7.43
16:14:09.078125,-7.40
16:14:09.093750,-7.00
16:14:09.109375,-6.36
16:14:09.125000,-5.66
16:14:09.140625,-5.05
16:14:09.156250,-4.60
16:14:09.171875,-4.24
16:14:09.187500,-3.80
16:14:09.203125,-3.04
16:14:09.218750,-1.76
16:14:09.234375,0.07
16:14:09.250000,2.25
16:14:09.265625,4.39
16:14:09.281250,6.04
16:14:09.296875,6.89
16:14:09.312500,6.94
16:14:09.328125,6.47
16:14:09.343750,5.90
16:14:09.359375,5.53
16:14:09.375000,5.43
16:14:09.390625,5.46
16:14:09.406250,5.40
16:14:09.421875,5.15
16:14:09.437500,4.75
16:14:09.453125,4.41
16:14:09.468750,4.28
16:14:09.484375,4.38
16:14:09.500000,4.56
16:14:09.515625,4.58
16:14:09.531250,4.26
16:14:09.546875,3.53
16:14:09.562500,2.42
16:14:09.578125,1.03
16:14:09.593750,-0.56
16:14:09.609375,-2.31
16:14:09.625000,-4.14
16:14:09.640625,-5.94
16:14:09.656250,-7.54
16:14:09.671875,-8.72
16:14:09.687500,-9.33
16:14:09.703125,-9.35
16:14:09.718750,-8.91
16:14:09.734375,-8.29
16:14:09.750000,-7.89
16:14:09.765625,-8.10
16:14:09.781250,-9.15
16:14:09.796875,-11.07
16:14:09.812500,-13.62
16:14:09.828125,-16.34
16:14:09.843750,-18.72
16:14:09.859375,-20.39
16:14:09.875000,-21.26
16:14:09.890625,-21.55
16:14:09.906250,-21.61
16:14:09.921875,-21.76
16:14:09.937500,-22.08
16:14:09.953125,-22.36
16:14:09.968750,-22.26
16:14:09.984375,-21.49
16:14:10,-20.00
16:14:10.015625,-18.07
16:14:10.031250,-16.29
16:14:10.046875,-15.24
16:14:10.062500,-15.30
16:14:10.078125,-16.44
16:14:10.093750,-18.18
16:14:10.109375,-19.78
16:14:10.125000,-20.59
16:14:10.140625,-20.30
16:14:10.156250,-19.10
16:14:10.171875,-17.58
16:14:10.187500,-16.51
16:14:10.203125,-16.54
16:14:10.218750,-18.08
16:14:10.234375,-21.13
16:14:10.250000,-25.18
16:14:10.265625,-29.08
16:14:10.281250,-31.02
16:14:10.296875,-28.91
16:14:10.312500,-21.11
16:14:10.328125,-7.39
16:14:10.343750,10.58
16:14:10.359375,29.48
16:14:10.375000,45.51
16:14:10.390625,55.93
16:14:10.406250,60.17
16:14:10.421875,59.86
16:14:10.437500,57.80
16:14:10.453125,56.44
16:14:10.468750,56.89
16:14:10.484375,58.77
16:14:10.500000,60.94
16:14:10.515625,62.47
16:14:10.531250,63.15
16:14:10.546875,63.34
16:14:10.562500,63.47
16:14:10.578125,63.56
16:14:10.593750,63.11
16:14:10.609375,61.52
16:14:10.625000,58.39
16:14:10.640625,53.72
16:14:10.656250,47.84
16:14:10.671875,41.14
16:14:10.687500,33.92
16:14:10.703125,26.35
16:14:10.718750,18.59
16:14:10.734375,10.85
16:14:10.750000,3.41
16:14:10.765625,-3.50
16:14:10.781250,-9.71
16:14:10.796875,-15.14
16:14:10.812500,-19.75
16:14:10.828125,-23.44
16:14:10.843750,-26.06
16:14:10.859375,-27.45
16:14:10.875000,-27.53
16:14:10.890625,-26.32
16:14:10.906250,-23.99
16:14:10.921875,-20.82
16:14:10.937500,-17.17
16:14:10.953125,-13.41
16:14:10.968750,-9.90
16:14:10.984375,-6.98
16:14:11,-4.91
16:14:11.015625,-3.88
16:14:11.031250,-3.94
16:14:11.046875,-4.98
16:14:11.062500,-6.64
16:14:11.078125,-8.48
16:14:11.093750,-9.98
16:14:11.109375,-10.78
16:14:11.125000,-10.69
16:14:11.140625,-9.78
16:14:11.156250,-8.35
16:14:11.171875,-6.81
16:14:11.187500,-5.52
16:14:11.203125,-4.73
16:14:11.218750,-4.50
16:14:11.234375,-4.72
16:14:11.250000,-5.20
16:14:11.265625,-5.75
16:14:11.281250,-6.33
16:14:11.296875,-6.95
16:14:11.312500,-7.73
16:14:11.328125,-8.73
16:14:11.343750,-9.88
16:14:11.359375,-11.02
16:14:11.375000,-11.92
16:14:11.390625,-12.44
16:14:11.406250,-12.56
16:14:11.421875,-12.35
16:14:11.437500,-11.89
16:14:11.453125,-11.15
16:14:11.468750,-10.03
16:14:11.484375,-8.46
16:14:11.500000,-6.53
16:14:11.515625,-4.58
16:14:11.531250,-3.06
16:14:11.546875,-2.26
16:14:11.562500,-2.16
16:14:11.578125,-2.36
16:14:11.593750,-2.31
16:14:11.609375,-1.61
16:14:11.625000,-0.25
16:14:11.640625,1.37
16:14:11.656250,2.78
16:14:11.671875,3.68
16:14:11.687500,4.15
16:14:11.703125,4.58
16:14:11.718750,5.36
16:14:11.734375,6.54
16:14:11.750000,7.82
16:14:11.765625,8.69
16:14:11.781250,8.75
16:14:11.796875,7.99
16:14:11.812500,6.80
16:14:11.828125,5.74
16:14:11.843750,5.17
16:14:11.859375,5.11
16:14:11.875000,5.22
16:14:11.890625,5.05
16:14:11.906250,4.33
16:14:11.921875,3.15
16:14:11.937500,1.91
16:14:11.953125,1.06
16:14:11.968750,0.84
16:14:11.984375,1.12
16:14:12,1.50
16:14:12.015625,1.50
16:14:12.031250,0.85
16:14:12.046875,-0.46
16:14:12.062500,-2.21
16:14:12.078125,-4.10
16:14:12.093750,-5.94
16:14:12.109375,-7.70
16:14:12.125000,-9.35
16:14:12.140625,-10.79
16:14:12.156250,-11.79
16:14:12.171875,-12.04
16:14:12.187500,-11.41
16:14:12.203125,-9.98
16:14:12.218750,-8.16
16:14:12.234375,-6.44
16:14:12.250000,-5.22
16:14:12.265625,-4.64
16:14:12.281250,-4.52
16:14:12.296875,-4.56
16:14:12.312500,-4.46
16:14:12.328125,-4.10
16:14:12.343750,-3.51
16:14:12.359375,-2.86
16:14:12.375000,-2.22
16:14:12.390625,-1.60
16:14:12.406250,-0.92
16:14:12.421875,-0.16
16:14:12.437500,0.60
16:14:12.453125,1.18
16:14:12.468750,1.40
16:14:12.484375,1.18
16:14:12.500000,0.64
16:14:12.515625,0.02
16:14:12.531250,-0.45
16:14:12.546875,-0.69
16:14:12.562500,-0.82
16:14:12.578125,-1.12
16:14:12.593750,-1.80
16:14:12.609375,-2.95
16:14:12.625000,-4.46
16:14:12.640625,-6.08
16:14:12.656250,-7.60
16:14:12.671875,-8.93
16:14:12.687500,-10.11
16:14:12.703125,-11.25
16:14:12.718750,-12.47
16:14:12.734375,-13.81
16:14:12.750000,-15.30
16:14:12.765625,-16.92
16:14:12.781250,-18.65
16:14:12.796875,-20.43
16:14:12.812500,-22.14
16:14:12.828125,-23.60
16:14:12.843750,-24.67
16:14:12.859375,-25.26
16:14:12.875000,-25.35
16:14:12.890625,-24.98
16:14:12.906250,-24.16
16:14:12.921875,-22.80
16:14:12.937500,-20.71
16:14:12.953125,-17.68
16:14:12.968750,-13.54
16:14:12.984375,-8.24
16:14:13,-1.95
16:14:13.015625,5.02
16:14:13.031250,12.18
16:14:13.046875,18.97
16:14:13.062500,24.88
16:14:13.078125,29.49
16:14:13.093750,32.60
16:14:13.109375,34.18
16:14:13.125000,34.41
16:14:13.140625,33.57
16:14:13.156250,31.96
16:14:13.171875,29.89
16:14:13.187500,27.64
16:14:13.203125,25.49
16:14:13.218750,23.66
16:14:13.234375,22.28
16:14:13.250000,21.34
16:14:13.265625,20.69
16:14:13.281250,20.07
16:14:13.296875,19.23
16:14:13.312500,18.03
16:14:13.328125,16.40
16:14:13.343750,14.47
16:14:13.359375,12.41
16:14:13.375000,10.36
16:14:13.390625,8.42
16:14:13.406250,6.59
16:14:13.421875,4.84
16:14:13.437500,3.16
16:14:13.453125,1.60
16:14:13.468750,0.25
16:14:13.484375,-0.77
16:14:13.500000,-1.44
16:14:13.515625,-1.83
16:14:13.531250,-2.12
16:14:13.546875,-2.56
16:14:13.562500,-3.34
16:14:13.578125,-4.53
16:14:13.593750,-6.01
16:14:13.609375,-7.49
16:14:13.625000,-8.64
16:14:13.640625,-9.18
16:14:13.656250,-9.01
16:14:13.671875,-8.24
16:14:13.687500,-7.13
16:14:13.703125,-5.94
16:14:13.718750,-4.87
16:14:13.734375,-3.94
16:14:13.750000,-3.07
16:14:13.765625,-2.14
16:14:13.781250,-1.12
16:14:13.796875,-0.04
16:14:13.812500,0.99
16:14:13.828125,1.86
16:14:13.843750,2.54
16:14:13.859375,3.09
16:14:13.875000,3.58
16:14:13.890625,4.10
16:14:13.906250,4.61
16:14:13.921875,5.02
16:14:13.937500,5.24
16:14:13.953125,5.20
16:14:13.968750,4.97
16:14:13.984375,4.68
16:14:14,4.44
16:14:14.015625,4.31
16:14:14.031250,4.27
16:14:14.046875,4.20
16:14:14.062500,4.01
16:14:14.078125,3.66
16:14:14.093750,3.17
16:14:14.109375,2.59
16:14:14.125000,1.93
16:14:14.140625,1.21
16:14:14.156250,0.41
16:14:14.171875,-0.45
16:14:14.187500,-1.32
16:14:14.203125,-2.12
16:14:14.218750,-2.80
16:14:14.234375,-3.37
16:14:14.250000,-3.84
16:14:14.265625,-4.24
16:14:14.281250,-4.58
16:14:14.296875,-4.89
16:14:14.312500,-5.26
16:14:14.328125,-5.81
16:14:14.343750,-6.69
16:14:14.359375,-7.96
16:14:14.375000,-9.50
16:14:14.390625,-11.02
16:14:14.406250,-12.12
16:14:14.421875,-12.44
16:14:14.437500,-11.81
16:14:14.453125,-10.31
16:14:14.468750,-8.25
16:14:14.484375,-6.00
16:14:14.500000,-3.94
16:14:14.515625,-2.27
16:14:14.531250,-1.08
16:14:14.546875,-0.30
16:14:14.562500,0.18
16:14:14.578125,0.50
16:14:14.593750,0.77
16:14:14.609375,1.05
16:14:14.625000,1.39
16:14:14.640625,1.80
16:14:14.656250,2.31
16:14:14.671875,2.93
16:14:14.687500,3.65
16:14:14.703125,4.45
16:14:14.718750,5.18
16:14:14.734375,5.69
16:14:14.750000,5.83
16:14:14.765625,5.51
16:14:14.781250,4.78
16:14:14.796875,3.81
16:14:14.812500,2.84
16:14:14.828125,2.04
16:14:14.843750,1.50
16:14:14.859375,1.21
16:14:14.875000,1.07
16:14:14.890625,0.96
16:14:14.906250,0.82
16:14:14.921875,0.59
16:14:14.937500,0.28
16:14:14.953125,-0.14
16:14:14.968750,-0.64
16:14:14.984375,-1.20
16:14:15,-1.75
16:14:15.015625,-2.22
16:14:15.031250,-2.63
16:14:15.046875,-3.06
16:14:15.062500,-3.63
16:14:15.078125,-4.43
16:14:15.093750,-5.42
16:14:15.109375,-6.40
16:14:15.125000,-7.09
16:14:15.140625,-7.24
16:14:15.156250,-6.80
16:14:15.171875,-5.86
16:14:15.187500,-4.65
16:14:15.203125,-3.36
16:14:15.218750,-2.06
16:14:15.234375,-0.72
16:14:15.250000,0.72
16:14:15.265625,2.25
16:14:15.281250,3.67
16:14:15.296875,4.76
16:14:15.312500,5.34
16:14:15.328125,5.41
16:14:15.343750,5.14
16:14:15.359375,4.84
16:14:15.375000,4.71
16:14:15.390625,4.85
16:14:15.406250,5.21
16:14:15.421875,5.65
16:14:15.437500,6.04
16:14:15.453125,6.31
16:14:15.468750,6.42
16:14:15.484375,6.37
16:14:15.500000,6.16
16:14:15.515625,5.81
16:14:15.531250,5.38
16:14:15.546875,4.98
16:14:15.562500,4.69
16:14:15.578125,4.51
16:14:15.593750,4.38
16:14:15.609375,4.20
16:14:15.625000,3.86
16:14:15.640625,3.30
16:14:15.656250,2.55
16:14:15.671875,1.67
16:14:15.687500,0.75
16:14:15.703125,-0.12
16:14:15.718750,-0.92
16:14:15.734375,-1.66
16:14:15.750000,-2.38
16:14:15.765625,-3.19
16:14:15.781250,-4.17
16:14:15.796875,-5.37
16:14:15.812500,-6.70
16:14:15.828125,-7.99
16:14:15.843750,-9.03
16:14:15.859375,-9.66
16:14:15.875000,-9.80
16:14:15.890625,-9.49
16:14:15.906250,-8.78
16:14:15.921875,-7.70
16:14:15.937500,-6.29
16:14:15.953125,-4.63
16:14:15.968750,-2.90
16:14:15.984375,-1.31
16:14:16,-0.04
16:14:16.015625,0.91
16:14:16.031250,1.68
16:14:16.046875,2.46
16:14:16.062500,3.33
16:14:16.078125,4.22
16:14:16.093750,4.93
16:14:16.109375,5.33
16:14:16.125000,5.42
16:14:16.140625,5.38
16:14:16.156250,5.43
16:14:16.171875,5.70
16:14:16.187500,6.08
16:14:16.203125,6.36
16:14:16.218750,6.29
16:14:16.234375,5.79
16:14:16.250000,5.01
16:14:16.265625,4.21
16:14:16.281250,3.71
16:14:16.296875,3.68
16:14:16.312500,4.11
16:14:16.328125,4.84
16:14:16.343750,5.57
16:14:16.359375,6.02
16:14:16.375000,5.98
16:14:16.390625,5.35
16:14:16.406250,4.21
16:14:16.421875,2.76
16:14:16.437500,1.24
16:14:16.453125,-0.06
16:14:16.468750,-0.95
16:14:16.484375,-1.35
16:14:16.500000,-1.34
16:14:16.515625,-1.13
16:14:16.531250,-1.05
16:14:16.546875,-1.46
16:14:16.562500,-2.55
16:14:16.578125,-4.33
16:14:16.593750,-6.50
16:14:16.609375,-8.62
16:14:16.625000,-10.19
16:14:16.640625,-10.86
16:14:16.656250,-10.53
16:14:16.671875,-9.37
16:14:16.687500,-7.73
16:14:16.703125,-6.02
16:14:16.718750,-4.54
16:14:16.734375,-3.46
16:14:16.750000,-2.76
16:14:16.765625,-2.30
16:14:16.781250,-1.85
16:14:16.796875,-1.21
16:14:16.812500,-0.24
16:14:16.828125,1.03
16:14:16.843750,2.43
16:14:16.859375,3.70
16:14:16.875000,4.58
16:14:16.890625,4.96
16:14:16.906250,4.92
16:14:16.921875,4.70
16:14:16.937500,4.49
16:14:16.953125,4.41
16:14:16.968750,4.41
16:14:16.984375,4.36
16:14:17,4.17
16:14:17.015625,3.86
16:14:17.031250,3.55
16:14:17.046875,3.40
16:14:17.062500,3.46
16:14:17.078125,3.66
16:14:17.093750,3.86
16:14:17.109375,3.89
16:14:17.125000,3.68
16:14:17.140625,3.23
16:14:17.156250,2.64
16:14:17.171875,2.01
16:14:17.187500,1.45
16:14:17.203125,1.05
16:14:17.218750,0.87
16:14:17.234375,0.90
16:14:17.250000,1.09
16:14:17.265625,1.25
16:14:17.281250,1.22
16:14:17.296875,0.81
16:14:17.312500,-0.03
16:14:17.328125,-1.24
16:14:17.343750,-2.65
16:14:17.359375,-4.05
16:14:17.375000,-5.25
16:14:17.390625,-6.10
16:14:17.406250,-6.52
16:14:17.421875,-6.53
16:14:17.437500,-6.19
16:14:17.453125,-5.59
16:14:17.468750,-4.83
16:14:17.484375,-4.00
16:14:17.500000,-3.14
16:14:17.515625,-2.31
16:14:17.531250,-1.51
16:14:17.546875,-0.79
16:14:17.562500,-0.15
16:14:17.578125,0.39
16:14:17.593750,0.85
16:14:17.609375,1.27
16:14:17.625000,1.67
16:14:17.640625,2.05
16:14:17.656250,2.36
16:14:17.671875,2.50
16:14:17.687500,2.40
16:14:17.703125,2.03
16:14:17.718750,1.44
16:14:17.734375,0.72
16:14:17.750000,0.03
16:14:17.765625,-0.52
16:14:17.781250,-0.83
16:14:17.796875,-0.91
16:14:17.812500,-0.84
16:14:17.828125,-0.76
16:14:17.843750,-0.80
16:14:17.859375,-1.00
16:14:17.875000,-1.30
16:14:17.890625,-1.58
16:14:17.906250,-1.72
16:14:17.921875,-1.70
16:14:17.937500,-1.57
16:14:17.953125,-1.43
16:14:17.968750,-1.38
16:14:17.984375,-1.40
16:14:18,-1.44
16:14:18.015625,-1.46
16:14:18.031250,-1.48
16:14:18.046875,-1.62
16:14:18.062500,-2.04
16:14:18.078125,-2.82
16:14:18.093750,-3.86
16:14:18.109375,-4.97
16:14:18.125000,-5.85
16:14:18.140625,-6.30
16:14:18.156250,-6.22
16:14:18.171875,-5.65
16:14:18.187500,-4.70
16:14:18.203125,-3.52
16:14:18.218750,-2.23
16:14:18.234375,-0.90
16:14:18.250000,0.39
16:14:18.265625,1.57
16:14:18.281250,2.58
16:14:18.296875,3.35
16:14:18.312500,3.88
16:14:18.328125,4.19
16:14:18.343750,4.29
16:14:18.359375,4.17
16:14:18.375000,3.85
16:14:18.390625,3.37
16:14:18.406250,2.84
16:14:18.421875,2.46
16:14:18.437500,2.36
16:14:18.453125,2.61
16:14:18.468750,3.09
16:14:18.484375,3.57
16:14:18.500000,3.83
16:14:18.515625,3.75
16:14:18.531250,3.37
16:14:18.546875,2.89
16:14:18.562500,2.50
16:14:18.578125,2.29
16:14:18.593750,2.24
16:14:18.609375,2.21
16:14:18.625000,2.09
16:14:18.640625,1.83
16:14:18.656250,1.49
16:14:18.671875,1.14
16:14:18.687500,0.86
16:14:18.703125,0.69
16:14:18.718750,0.55
16:14:18.734375,0.37
16:14:18.750000,0.05
16:14:18.765625,-0.47
16:14:18.781250,-1.14
16:14:18.796875,-1.87
16:14:18.812500,-2.57
16:14:18.828125,-3.15
16:14:18.843750,-3.57
16:14:18.859375,-3.86
16:14:18.875000,-4.03
16:14:18.890625,-4.07
16:14:18.906250,-3.94
16:14:18.921875,-3.58
16:14:18.937500,-3.01
16:14:18.953125,-2.35
16:14:18.968750,-1.71
16:14:18.984375,-1.19
16:14:19,-0.80
16:14:19.015625,-0.46
16:14:19.031250,-0.05
16:14:19.046875,0.47
16:14:19.062500,1.04
16:14:19.078125,1.54
16:14:19.093750,1.80
16:14:19.109375,1.76
16:14:19.125000,1.42
16:14:19.140625,0.88
16:14:19.156250,0.27
16:14:19.171875,-0.27
16:14:19.187500,-0.63
16:14:19.203125,-0.77
16:14:19.218750,-0.69
16:14:19.234375,-0.48
16:14:19.250000,-0.27
16:14:19.265625,-0.20
16:14:19.281250,-0.32
16:14:19.296875,-0.63
16:14:19.312500,-1.01
16:14:19.328125,-1.29
16:14:19.343750,-1.33
16:14:19.359375,-1.08
16:14:19.375000,-0.61
16:14:19.390625,-0.06
16:14:19.406250,0.38
16:14:19.421875,0.57
16:14:19.437500,0.46
16:14:19.453125,0.05
16:14:19.468750,-0.56
16:14:19.484375,-1.27
16:14:19.500000,-1.95
16:14:19.515625,-2.49
16:14:19.531250,-2.78
16:14:19.546875,-2.79
16:14:19.562500,-2.54
16:14:19.578125,-2.18
16:14:19.593750,-1.92
16:14:19.609375,-1.94
16:14:19.625000,-2.29
16:14:19.640625,-2.88
16:14:19.656250,-3.49
16:14:19.671875,-3.83
16:14:19.687500,-3.74
16:14:19.703125,-3.18
16:14:19.718750,-2.25
16:14:19.734375,-1.14
16:14:19.750000,-0.03
16:14:19.765625,0.96
16:14:19.781250,1.77
16:14:19.796875,2.38
16:14:19.812500,2.82
16:14:19.828125,3.12
16:14:19.843750,3.35
16:14:19.859375,3.54
16:14:19.875000,3.69
16:14:19.890625,3.77
16:14:19.906250,3.69
16:14:19.921875,3.42
16:14:19.937500,2.99
16:14:19.953125,2.49
16:14:19.968750,2.01
16:14:19.984375,1.60
16:14:20,1.25
16:14:20.015625,0.96
16:14:20.031250,0.71
16:14:20.046875,0.58
16:14:20.062500,0.64
16:14:20.078125,0.95
16:14:20.093750,1.43
16:14:20.109375,1.92
16:14:20.125000,2.20
16:14:20.140625,2.08
16:14:20.156250,1.50
16:14:20.171875,0.56
16:14:20.187500,-0.54
16:14:20.203125,-1.53
16:14:20.218750,-2.20
16:14:20.234375,-2.46
16:14:20.250000,-2.38
16:14:20.265625,-2.15
16:14:20.281250,-1.97
16:14:20.296875,-2.03
16:14:20.312500,-2.39
16:14:20.328125,-3.01
16:14:20.343750,-3.78
16:14:20.359375,-4.54
16:14:20.375000,-5.20
16:14:20.390625,-5.69
16:14:20.406250,-5.97
16:14:20.421875,-6.02
16:14:20.437500,-5.81
16:14:20.453125,-5.30
16:14:20.468750,-4.48
16:14:20.484375,-3.39
16:14:20.500000,-2.12
16:14:20.515625,-0.87
16:14:20.531250,0.20
16:14:20.546875,0.93
16:14:20.562500,1.29
16:14:20.578125,1.28
16:14:20.593750,0.97
16:14:20.609375,0.47
16:14:20.625000,-0.13
16:14:20.640625,-0.73
16:14:20.656250,-1.20
16:14:20.671875,-1.43
16:14:20.687500,-1.39
16:14:20.703125,-1.14
16:14:20.718750,-0.84
16:14:20.734375,-0.70
16:14:20.750000,-0.80
16:14:20.765625,-1.11
16:14:20.781250,-1.47
16:14:20.796875,-1.67
16:14:20.812500,-1.60
16:14:20.828125,-1.27
16:14:20.843750,-0.86
16:14:20.859375,-0.54
16:14:20.875000,-0.45
16:14:20.890625,-0.62
16:14:20.906250,-0.96
16:14:20.921875,-1.39
16:14:20.937500,-1.80
16:14:20.953125,-2.16
16:14:20.968750,-2.49
16:14:20.984375,-2.82
16:14:21,-3.21
16:14:21.015625,-3.68
16:14:21.031250,-4.19
16:14:21.046875,-4.67
16:14:21.062500,-5.00
16:14:21.078125,-5.07
16:14:21.093750,-4.81
16:14:21.109375,-4.23
16:14:21.125000,-3.42
16:14:21.140625,-2.51
16:14:21.156250,-1.60
16:14:21.171875,-0.74
16:14:21.187500,0.09
16:14:21.203125,0.95
16:14:21.218750,1.84
16:14:21.234375,2.73
16:14:21.250000,3.52
16:14:21.265625,4.12
16:14:21.281250,4.45
16:14:21.296875,4.51
16:14:21.312500,4.31
16:14:21.328125,3.93
16:14:21.343750,3.46
16:14:21.359375,3.00
16:14:21.375000,2.66
16:14:21.390625,2.50
16:14:21.406250,2.46
16:14:21.421875,2.38
16:14:21.437500,2.08
16:14:21.453125,1.47
16:14:21.468750,0.64
16:14:21.484375,-0.12
16:14:21.500000,-0.47
16:14:21.515625,-0.20
16:14:21.531250,0.64
16:14:21.546875,1.74
16:14:21.562500,2.63
16:14:21.578125,2.96
16:14:21.593750,2.63
16:14:21.609375,1.88
16:14:21.625000,1.14
16:14:21.640625,0.83
16:14:21.656250,1.14
16:14:21.671875,1.96
16:14:21.687500,2.90
16:14:21.703125,3.52
16:14:21.718750,3.50
16:14:21.734375,2.76
16:14:21.750000,1.44
16:14:21.765625,-0.16
16:14:21.781250,-1.71
16:14:21.796875,-2.98
16:14:21.812500,-3.81
16:14:21.828125,-4.15
16:14:21.843750,-4.03
16:14:21.859375,-3.54
16:14:21.875000,-2.84
16:14:21.890625,-2.15
16:14:21.906250,-1.64
16:14:21.921875,-1.38
16:14:21.937500,-1.33
16:14:21.953125,-1.33
16:14:21.968750,-1.26
16:14:21.984375,-1.01
16:14:22,-0.60
16:14:22.015625,-0.09
16:14:22.031250,0.49
16:14:22.046875,1.10
16:14:22.062500,1.72
16:14:22.078125,2.30
16:14:22.093750,2.73
16:14:22.109375,2.88
16:14:22.125000,2.68
16:14:22.140625,2.18
16:14:22.156250,1.53
16:14:22.171875,0.95
16:14:22.187500,0.57
16:14:22.203125,0.43
16:14:22.218750,0.45
16:14:22.234375,0.49
16:14:22.250000,0.44
16:14:22.265625,0.30
16:14:22.281250,0.08
16:14:22.296875,-0.14
16:14:22.312500,-0.35
16:14:22.328125,-0.56
16:14:22.343750,-0.75
16:14:22.359375,-0.94
16:14:22.375000,-1.07
16:14:22.390625,-1.15
16:14:22.406250,-1.21
16:14:22.421875,-1.34
16:14:22.437500,-1.66
16:14:22.453125,-2.25
16:14:22.468750,-3.11
16:14:22.484375,-4.13
16:14:22.500000,-5.10
16:14:22.515625,-5.79
16:14:22.531250,-6.03
16:14:22.546875,-5.76
16:14:22.562500,-5.09
16:14:22.578125,-4.24
16:14:22.593750,-3.41
16:14:22.609375,-2.76
16:14:22.625000,-2.29
16:14:22.640625,-1.91
16:14:22.656250,-1.45
16:14:22.671875,-0.83
16:14:22.687500,-0.04
16:14:22.703125,0.83
16:14:22.718750,1.68
16:14:22.734375,2.39
16:14:22.750000,2.93
16:14:22.765625,3.28
16:14:22.781250,3.43
16:14:22.796875,3.41
16:14:22.812500,3.22
16:14:22.828125,2.87
16:14:22.843750,2.41
16:14:22.859375,1.89
16:14:22.875000,1.38
16:14:22.890625,0.95
16:14:22.906250,0.61
16:14:22.921875,0.37
16:14:22.937500,0.20
16:14:22.953125,0.08
16:14:22.968750,0.03
16:14:22.984375,0.07
16:14:23,0.24
16:14:23.015625,0.52
16:14:23.031250,0.86
16:14:23.046875,1.16
16:14:23.062500,1.35
16:14:23.078125,1.42
16:14:23.093750,1.44
16:14:23.109375,1.46
16:14:23.125000,1.49
16:14:23.140625,1.45
16:14:23.156250,1.21
16:14:23.171875,0.67
16:14:23.187500,-0.19
16:14:23.203125,-1.31
16:14:23.218750,-2.52
16:14:23.234375,-3.64
16:14:23.250000,-4.50
16:14:23.265625,-4.96
16:14:23.281250,-5.01
16:14:23.296875,-4.72
16:14:23.312500,-4.28
16:14:23.328125,-3.86
16:14:23.343750,-3.57
16:14:23.359375,-3.37
16:14:23.375000,-3.14
16:14:23.390625,-2.70
16:14:23.406250,-2.01
16:14:23.421875,-1.14
16:14:23.437500,-0.27
16:14:23.453125,0.42
16:14:23.468750,0.83
16:14:23.484375,1.01
16:14:23.500000,1.09
16:14:23.515625,1.24
16:14:23.531250,1.52
16:14:23.546875,1.88
16:14:23.562500,2.16
16:14:23.578125,2.18
16:14:23.593750,1.86
16:14:23.609375,1.28
16:14:23.625000,0.64
16:14:23.640625,0.22
16:14:23.656250,0.21
16:14:23.671875,0.66
16:14:23.687500,1.40
16:14:23.703125,2.20
16:14:23.718750,2.83
16:14:23.734375,3.13
16:14:23.750000,3.03
16:14:23.765625,2.49
16:14:23.781250,1.49
16:14:23.796875,0.08
16:14:23.812500,-1.57
16:14:23.828125,-3.21
16:14:23.843750,-4.55
16:14:23.859375,-5.38
16:14:23.875000,-5.58
16:14:23.890625,-5.14
16:14:23.906250,-4.10
16:14:23.921875,-2.43
16:14:23.937500,-0.08
16:14:23.953125,2.94
16:14:23.968750,6.48
16:14:23.984375,10.18
16:14:24,13.56
16:14:24.015625,16.17
16:14:24.031250,17.70
16:14:24.046875,18.06
16:14:24.062500,17.33
16:14:24.078125,15.68
16:14:24.093750,13.29
16:14:24.109375,10.36
16:14:24.125000,7.13
16:14:24.140625,3.91
16:14:24.156250,1.06
16:14:24.171875,-1.04
16:14:24.187500,-2.15
16:14:24.203125,-2.21
16:14:24.218750,-1.37
16:14:24.234375,0.05
16:14:24.250000,1.66
16:14:24.265625,3.10
16:14:24.281250,4.07
16:14:24.296875,4.39
16:14:24.312500,4.03
16:14:24.328125,3.06
16:14:24.343750,1.65
16:14:24.359375,0.02
16:14:24.375000,-1.63
16:14:24.390625,-3.12
16:14:24.406250,-4.35
16:14:24.421875,-5.25
16:14:24.437500,-5.77
16:14:24.453125,-5.91
16:14:24.468750,-5.69
16:14:24.484375,-5.21
16:14:24.500000,-4.61
16:14:24.515625,-4.07
16:14:24.531250,-3.78
16:14:24.546875,-3.85
16:14:24.562500,-4.29
16:14:24.578125,-5.01
16:14:24.593750,-5.87
16:14:24.609375,-6.70
16:14:24.625000,-7.42
16:14:24.640625,-8.01
16:14:24.656250,-8.48
16:14:24.671875,-8.89
16:14:24.687500,-9.23
16:14:24.703125,-9.45
16:14:24.718750,-9.48
16:14:24.734375,-9.23
16:14:24.750000,-8.68
16:14:24.765625,-7.89
16:14:24.781250,-6.98
16:14:24.796875,-6.14
16:14:24.812500,-5.51
16:14:24.828125,-5.17
16:14:24.843750,-5.08
16:14:24.859375,-5.16
16:14:24.875000,-5.26
16:14:24.890625,-5.26
16:14:24.906250,-5.07
16:14:24.921875,-4.62
16:14:24.937500,-3.93
16:14:24.953125,-3.04
16:14:24.968750,-2.06
16:14:24.984375,-1.16
16:14:25,-0.48
16:14:25.015625,-0.14
16:14:25.031250,-0.14
16:14:25.046875,-0.40
16:14:25.062500,-0.75
16:14:25.078125,-1.05
16:14:25.093750,-1.23
16:14:25.109375,-1.29
16:14:25.125000,-1.30
16:14:25.140625,-1.38
16:14:25.156250,-1.61
16:14:25.171875,-2.02
16:14:25.187500,-2.55
16:14:25.203125,-3.06
16:14:25.218750,-3.35
16:14:25.234375,-3.28
16:14:25.250000,-2.88
16:14:25.265625,-2.30
16:14:25.281250,-1.79
16:14:25.296875,-1.56
16:14:25.312500,-1.67
16:14:25.328125,-2.03
16:14:25.343750,-2.41
16:14:25.359375,-2.61
16:14:25.375000,-2.51
16:14:25.390625,-2.08
16:14:25.406250,-1.35
16:14:25.421875,-0.36
16:14:25.437500,0.87
16:14:25.453125,2.35
16:14:25.468750,3.98
16:14:25.484375,5.64
16:14:25.500000,7.13
16:14:25.515625,8.29
16:14:25.531250,9.00
16:14:25.546875,9.20
16:14:25.562500,8.98
16:14:25.578125,8.45
16:14:25.593750,7.78
16:14:25.609375,7.07
16:14:25.625000,6.41
16:14:25.640625,5.77
16:14:25.656250,5.15
16:14:25.671875,4.58
16:14:25.687500,4.19
16:14:25.703125,4.14
16:14:25.718750,4.56
16:14:25.734375,5.46
16:14:25.750000,6.67
16:14:25.765625,7.91
16:14:25.781250,8.91
16:14:25.796875,9.52
16:14:25.812500,9.72
16:14:25.828125,9.59
16:14:25.843750,9.23
16:14:25.859375,8.64
16:14:25.875000,7.83
16:14:25.890625,6.80
16:14:25.906250,5.63
16:14:25.921875,4.45
16:14:25.937500,3.36
16:14:25.953125,2.34
16:14:25.968750,1.26
16:14:25.984375,-0.05
16:14:26,-1.69
16:14:26.015625,-3.54
16:14:26.031250,-5.37
16:14:26.046875,-6.90
16:14:26.062500,-7.98
16:14:26.078125,-8.67
16:14:26.093750,-9.16
16:14:26.109375,-9.57
16:14:26.125000,-9.90
16:14:26.140625,-10.00
16:14:26.156250,-9.67
16:14:26.171875,-8.89
16:14:26.187500,-7.83
16:14:26.203125,-6.78
16:14:26.218750,-6.00
16:14:26.234375,-5.51
16:14:26.250000,-5.14
16:14:26.265625,-4.60
16:14:26.281250,-3.66
16:14:26.296875,-2.31
16:14:26.312500,-0.74
16:14:26.328125,0.75
16:14:26.343750,1.93
16:14:26.359375,2.74
16:14:26.375000,3.25
16:14:26.390625,3.64
16:14:26.406250,4.06
16:14:26.421875,4.57
16:14:26.437500,5.12
16:14:26.453125,5.62
16:14:26.468750,5.97
16:14:26.484375,6.12
16:14:26.500000,6.10
16:14:26.515625,5.96
16:14:26.531250,5.75
16:14:26.546875,5.46
16:14:26.562500,5.03
16:14:26.578125,4.35
16:14:26.593750,3.39
16:14:26.609375,2.20
16:14:26.625000,0.95
16:14:26.640625,-0.17
16:14:26.656250,-0.98
16:14:26.671875,-1.46
16:14:26.687500,-1.70
16:14:26.703125,-1.90
16:14:26.718750,-2.21
16:14:26.734375,-2.72
16:14:26.750000,-3.40
16:14:26.765625,-4.16
16:14:26.781250,-4.92
16:14:26.796875,-5.64
16:14:26.812500,-6.31
16:14:26.828125,-6.92
16:14:26.843750,-7.42
16:14:26.859375,-7.68
16:14:26.875000,-7.56
16:14:26.890625,-7.03
16:14:26.906250,-6.13
16:14:26.921875,-5.06
16:14:26.937500,-4.04
16:14:26.953125,-3.25
16:14:26.968750,-2.71
16:14:26.984375,-2.33
16:14:27,-1.96
16:14:27.015625,-1.45
16:14:27.031250,-0.72
16:14:27.046875,0.17
16:14:27.062500,1.14
16:14:27.078125,2.07
16:14:27.093750,2.87
16:14:27.109375,3.50
16:14:27.125000,3.94
16:14:27.140625,4.23
16:14:27.156250,4.40
16:14:27.171875,4.53
16:14:27.187500,4.64
16:14:27.203125,4.78
16:14:27.218750,4.94
16:14:27.234375,5.12
16:14:27.250000,5.28
16:14:27.265625,5.42
16:14:27.281250,5.51
16:14:27.296875,5.51
16:14:27.312500,5.37
16:14:27.328125,5.05
16:14:27.343750,4.54
16:14:27.359375,3.89
16:14:27.375000,3.21
16:14:27.390625,2.63
16:14:27.406250,2.23
16:14:27.421875,1.98
16:14:27.437500,1.76
16:14:27.453125,1.41
16:14:27.468750,0.80
16:14:27.484375,-0.06
16:14:27.500000,-1.06
16:14:27.515625,-2.05
16:14:27.531250,-2.89
16:14:27.546875,-3.59
16:14:27.562500,-4.20
16:14:27.578125,-4.83
16:14:27.593750,-5.50
16:14:27.609375,-6.11
16:14:27.625000,-6.50
16:14:27.640625,-6.57
16:14:27.656250,-6.31
16:14:27.671875,-5.83
16:14:27.687500,-5.22
16:14:27.703125,-4.57
16:14:27.718750,-3.86
16:14:27.734375,-3.05
16:14:27.750000,-2.18
16:14:27.765625,-1.32
16:14:27.781250,-0.59
16:14:27.796875,-0.07
16:14:27.812500,0.25
16:14:27.828125,0.44
16:14:27.843750,0.58
16:14:27.859375,0.69
16:14:27.875000,0.77
16:14:27.890625,0.78
16:14:27.906250,0.72
16:14:27.921875,0.61
16:14:27.937500,0.52
16:14:27.953125,0.48
16:14:27.968750,0.50
16:14:27.984375,0.56
16:14:28,0.64
16:14:28.015625,0.76
16:14:28.031250,0.94
16:14:28.046875,1.21
16:14:28.062500,1.52
16:14:28.078125,1.81
16:14:28.093750,1.98
16:14:28.109375,2.00
16:14:28.125000,1.83
16:14:28.140625,1.51
16:14:28.156250,1.11
16:14:28.171875,0.70
16:14:28.187500,0.33
16:14:28.203125,0.02
16:14:28.218750,-0.28
16:14:28.234375,-0.66
16:14:28.250000,-1.18
16:14:28.265625,-1.88
16:14:28.281250,-2.73
16:14:28.296875,-3.66
16:14:28.312500,-4.59
16:14:28.328125,-5.41
16:14:28.343750,-6.01
16:14:28.359375,-6.27
16:14:28.375000,-6.12
16:14:28.390625,-5.52
16:14:28.406250,-4.53
16:14:28.421875,-3.32
16:14:28.437500,-2.09
16:14:28.453125,-1.01
16:14:28.468750,-0.18
16:14:28.484375,0.41
16:14:28.500000,0.87
16:14:28.515625,1.34
16:14:28.531250,1.89
16:14:28.546875,2.56
16:14:28.562500,3.23
16:14:28.578125,3.81
16:14:28.593750,4.14
16:14:28.609375,4.15
16:14:28.625000,3.82
16:14:28.640625,3.23
16:14:28.656250,2.55
16:14:28.671875,1.94
16:14:28.687500,1.54
16:14:28.703125,1.37
16:14:28.718750,1.32
16:14:28.734375,1.23
16:14:28.750000,0.95
16:14:28.765625,0.47
16:14:28.781250,-0.13
16:14:28.796875,-0.63
16:14:28.812500,-0.83
16:14:28.828125,-0.65
16:14:28.843750,-0.17
16:14:28.859375,0.38
16:14:28.875000,0.73
16:14:28.890625,0.70
16:14:28.906250,0.25
16:14:28.921875,-0.51
16:14:28.937500,-1.37
16:14:28.953125,-2.11
16:14:28.968750,-2.63
16:14:28.984375,-2.94
16:14:29,-3.13
16:14:29.015625,-3.32
16:14:29.031250,-3.53
16:14:29.046875,-3.68
16:14:29.062500,-3.61
16:14:29.078125,-3.22
16:14:29.093750,-2.52
16:14:29.109375,-1.64
16:14:29.125000,-0.79
16:14:29.140625,-0.14
16:14:29.156250,0.29
16:14:29.171875,0.59
16:14:29.187500,0.90
16:14:29.203125,1.27
16:14:29.218750,1.65
16:14:29.234375,1.92
16:14:29.250000,1.96
16:14:29.265625,1.80
16:14:29.281250,1.56
16:14:29.296875,1.40
16:14:29.312500,1.40
16:14:29.328125,1.51
16:14:29.343750,1.62
16:14:29.359375,1.62
16:14:29.375000,1.48
16:14:29.390625,1.27
16:14:29.406250,1.10
16:14:29.421875,1.05
16:14:29.437500,1.12
16:14:29.453125,1.24
16:14:29.468750,1.31
16:14:29.484375,1.26
16:14:29.500000,1.05
16:14:29.515625,0.69
16:14:29.531250,0.24
16:14:29.546875,-0.22
16:14:29.562500,-0.59
16:14:29.578125,-0.80
16:14:29.593750,-0.88
16:14:29.609375,-0.95
16:14:29.625000,-1.22
16:14:29.640625,-1.83
16:14:29.656250,-2.80
16:14:29.671875,-3.95
16:14:29.687500,-4.98
16:14:29.703125,-5.63
16:14:29.718750,-5.75
16:14:29.734375,-5.38
16:14:29.750000,-4.65
16:14:29.765625,-3.73
16:14:29.781250,-2.74
16:14:29.796875,-1.75
16:14:29.812500,-0.79
16:14:29.828125,0.12
16:14:29.843750,0.94
16:14:29.859375,1.62
16:14:29.875000,2.14
16:14:29.890625,2.50
16:14:29.906250,2.74
16:14:29.921875,2.92
16:14:29.937500,3.11
16:14:29.953125,3.34
16:14:29.968750,3.63
16:14:29.984375,3.94
16:14:30,4.23
16:14:30.015625,4.44
16:14:30.031250,4.56
16:14:30.046875,4.60
16:14:30.062500,4.55
16:14:30.078125,4.41
16:14:30.093750,4.18
16:14:30.109375,3.87
16:14:30.125000,3.50
16:14:30.140625,3.14
16:14:30.156250,2.81
16:14:30.171875,2.52
16:14:30.187500,2.23
16:14:30.203125,1.94
16:14:30.218750,1.68
16:14:30.234375,1.51
16:14:30.250000,1.44
16:14:30.265625,1.45
16:14:30.281250,1.42
16:14:30.296875,1.25
16:14:30.312500,0.86
16:14:30.328125,0.25
16:14:30.343750,-0.53
16:14:30.359375,-1.38
16:14:30.375000,-2.22
16:14:30.390625,-2.97
16:14:30.406250,-3.57
16:14:30.421875,-3.93
16:14:30.437500,-3.98
16:14:30.453125,-3.70
16:14:30.468750,-3.13
16:14:30.484375,-2.33
16:14:30.500000,-1.41
16:14:30.515625,-0.41
16:14:30.531250,0.63
16:14:30.546875,1.67
16:14:30.562500,2.65
16:14:30.578125,3.47
16:14:30.593750,4.05
16:14:30.609375,4.41
16:14:30.625000,4.57
16:14:30.640625,4.62
16:14:30.656250,4.61
16:14:30.671875,4.56
16:14:30.687500,4.43
16:14:30.703125,4.20
16:14:30.718750,3.83
16:14:30.734375,3.33
16:14:30.750000,2.70
16:14:30.765625,1.97
16:14:30.781250,1.18
16:14:30.796875,0.43
16:14:30.812500,-0.17
16:14:30.828125,-0.51
16:14:30.843750,-0.63
16:14:30.859375,-0.64
16:14:30.875000,-0.74
16:14:30.890625,-1.05
16:14:30.906250,-1.54
16:14:30.921875,-2.02
16:14:30.937500,-2.27
16:14:30.953125,-2.19
16:14:30.968750,-1.86
16:14:30.984375,-1.56
16:14:31,-1.57
16:14:31.015625,-2.06
16:14:31.031250,-2.95
16:14:31.046875,-4.04
16:14:31.062500,-5.08
16:14:31.078125,-5.97
16:14:31.093750,-6.70
16:14:31.109375,-7.35
16:14:31.125000,-7.89
16:14:31.140625,-8.19
16:14:31.156250,-8.08
16:14:31.171875,-7.44
16:14:31.187500,-6.33
16:14:31.203125,-4.93
16:14:31.218750,-3.47
16:14:31.234375,-2.13
16:14:31.250000,-1.00
16:14:31.265625,-0.07
16:14:31.281250,0.66
16:14:31.296875,1.19
16:14:31.312500,1.53
16:14:31.328125,1.73
16:14:31.343750,1.87
16:14:31.359375,2.07
16:14:31.375000,2.40
16:14:31.390625,2.85
16:14:31.406250,3.31
16:14:31.421875,3.67
16:14:31.437500,3.82
16:14:31.453125,3.76
16:14:31.468750,3.54
16:14:31.484375,3.27
16:14:31.500000,3.01
16:14:31.515625,2.79
16:14:31.531250,2.60
16:14:31.546875,2.37
16:14:31.562500,2.08
16:14:31.578125,1.70
16:14:31.593750,1.31
16:14:31.609375,0.98
16:14:31.625000,0.83
16:14:31.640625,0.88
16:14:31.656250,1.10
16:14:31.671875,1.34
16:14:31.687500,1.45
16:14:31.703125,1.27
16:14:31.718750,0.76
16:14:31.734375,-0.06
16:14:31.750000,-1.06
16:14:31.765625,-2.12
16:14:31.781250,-3.15
16:14:31.796875,-4.11
16:14:31.812500,-4.99
16:14:31.828125,-5.76
16:14:31.843750,-6.37
16:14:31.859375,-6.71
16:14:31.875000,-6.73
16:14:31.890625,-6.39
16:14:31.906250,-5.73
16:14:31.921875,-4.82
16:14:31.937500,-3.73
16:14:31.953125,-2.57
16:14:31.968750,-1.41
16:14:31.984375,-0.36
16:14:32,0.48
16:14:32.015625,1.04
16:14:32.031250,1.27
16:14:32.046875,1.22
16:14:32.062500,0.99
16:14:32.078125,0.72
16:14:32.093750,0.55
16:14:32.109375,0.51
16:14:32.125000,0.57
16:14:32.140625,0.62
16:14:32.156250,0.55
16:14:32.171875,0.31
16:14:32.187500,-0.06
16:14:32.203125,-0.42
16:14:32.218750,-0.63
16:14:32.234375,-0.60
16:14:32.250000,-0.36
16:14:32.265625,-0.06
16:14:32.281250,0.18
16:14:32.296875,0.30
16:14:32.312500,0.34
16:14:32.328125,0.39
16:14:32.343750,0.51
16:14:32.359375,0.63
16:14:32.375000,0.62
16:14:32.390625,0.32
16:14:32.406250,-0.32
16:14:32.421875,-1.20
16:14:32.437500,-2.11
16:14:32.453125,-2.86
16:14:32.468750,-3.31
16:14:32.484375,-3.47
16:14:32.500000,-3.46
16:14:32.515625,-3.38
16:14:32.531250,-3.28
16:14:32.546875,-3.12
16:14:32.562500,-2.82
16:14:32.578125,-2.32
16:14:32.593750,-1.68
16:14:32.609375,-0.97
16:14:32.625000,-0.33
16:14:32.640625,0.19
16:14:32.656250,0.57
16:14:32.671875,0.88
16:14:32.687500,1.18
16:14:32.703125,1.50
16:14:32.718750,1.83
16:14:32.734375,2.13
16:14:32.750000,2.37
16:14:32.765625,2.57
16:14:32.781250,2.75
16:14:32.796875,2.96
16:14:32.812500,3.18
16:14:32.828125,3.37
16:14:32.843750,3.46
16:14:32.859375,3.40
16:14:32.875000,3.21
16:14:32.890625,2.98
16:14:32.906250,2.81
16:14:32.921875,2.76
16:14:32.937500,2.79
16:14:32.953125,2.78
16:14:32.968750,2.58
16:14:32.984375,2.14
16:14:33,1.51
16:14:33.015625,0.87
16:14:33.031250,0.40
16:14:33.046875,0.19
16:14:33.062500,0.18
16:14:33.078125,0.23
16:14:33.093750,0.12
16:14:33.109375,-0.27
16:14:33.125000,-0.93
16:14:33.140625,-1.77
16:14:33.156250,-2.64
16:14:33.171875,-3.41
16:14:33.187500,-4.01
16:14:33.203125,-4.41
16:14:33.218750,-4.61
16:14:33.234375,-4.60
16:14:33.250000,-4.34
16:14:33.265625,-3.77
16:14:33.281250,-2.87
16:14:33.296875,-1.70
16:14:33.312500,-0.40
16:14:33.328125,0.80
16:14:33.343750,1.73
16:14:33.359375,2.30
16:14:33.375000,2.57
16:14:33.390625,2.67
16:14:33.406250,2.77
16:14:33.421875,2.92
16:14:33.437500,3.09
16:14:33.453125,3.20
16:14:33.468750,3.16
16:14:33.484375,2.97
16:14:33.500000,2.72
16:14:33.515625,2.56
16:14:33.531250,2.58
16:14:33.546875,2.78
16:14:33.562500,3.03
16:14:33.578125,3.19
16:14:33.593750,3.15
16:14:33.609375,2.93
16:14:33.625000,2.62
16:14:33.640625,2.31
16:14:33.656250,2.02
16:14:33.671875,1.68
16:14:33.687500,1.18
16:14:33.703125,0.49
16:14:33.718750,-0.32
16:14:33.734375,-1.03
16:14:33.750000,-1.45
16:14:33.765625,-1.45
16:14:33.781250,-1.11
16:14:33.796875,-0.65
16:14:33.812500,-0.30
16:14:33.828125,-0.24
16:14:33.843750,-0.51
16:14:33.859375,-1.07
16:14:33.875000,-1.78
16:14:33.890625,-2.52
16:14:33.906250,-3.22
16:14:33.921875,-3.81
16:14:33.937500,-4.25
16:14:33.953125,-4.47
16:14:33.968750,-4.45
16:14:33.984375,-4.20
16:14:34,-3.75
16:14:34.015625,-3.12
16:14:34.031250,-2.36
16:14:34.046875,-1.47
16:14:34.062500,-0.49
16:14:34.078125,0.56
16:14:34.093750,1.58
16:14:34.109375,2.47
16:14:34.125000,3.13
16:14:34.140625,3.50
16:14:34.156250,3.61
16:14:34.171875,3.51
16:14:34.187500,3.33
16:14:34.203125,3.18
16:14:34.218750,3.15
16:14:34.234375,3.27
16:14:34.250000,3.53
16:14:34.265625,3.84
16:14:34.281250,4.09
16:14:34.296875,4.20
16:14:34.312500,4.11
16:14:34.328125,3.88
16:14:34.343750,3.57
16:14:34.359375,3.29
16:14:34.375000,3.10
16:14:34.390625,3.00
16:14:34.406250,2.98
16:14:34.421875,2.99
16:14:34.437500,3.01
16:14:34.453125,2.98
16:14:34.468750,2.83
16:14:34.484375,2.50
16:14:34.500000,1.95
16:14:34.515625,1.21
16:14:34.531250,0.39
16:14:34.546875,-0.32
16:14:34.562500,-0.81
16:14:34.578125,-1.05
16:14:34.593750,-1.17
16:14:34.609375,-1.42
16:14:34.625000,-2.02
16:14:34.640625,-3.04
16:14:34.656250,-4.32
16:14:34.671875,-5.57
16:14:34.687500,-6.49
16:14:34.703125,-6.98
16:14:34.718750,-7.07
16:14:34.734375,-6.96
16:14:34.750000,-6.78
16:14:34.765625,-6.51
16:14:34.781250,-6.02
16:14:34.796875,-5.16
16:14:34.812500,-3.87
16:14:34.828125,-2.31
16:14:34.843750,-0.75
16:14:34.859375,0.53
16:14:34.875000,1.41
16:14:34.890625,1.95
16:14:34.906250,2.33
16:14:34.921875,2.71
16:14:34.937500,3.15
16:14:34.953125,3.59
16:14:34.968750,3.91
16:14:34.984375,4.01
16:14:35,3.91
16:14:35.015625,3.72
16:14:35.031250,3.56
16:14:35.046875,3.53
16:14:35.062500,3.61
16:14:35.078125,3.71
16:14:35.093750,3.71
16:14:35.109375,3.54
16:14:35.125000,3.23
16:14:35.140625,2.87
16:14:35.156250,2.59
16:14:35.171875,2.51
16:14:35.187500,2.62
16:14:35.203125,2.86
16:14:35.218750,3.08
16:14:35.234375,3.16
16:14:35.250000,3.03
16:14:35.265625,2.73
16:14:35.281250,2.33
16:14:35.296875,1.93
16:14:35.312500,1.58
16:14:35.328125,1.28
16:14:35.343750,0.98
16:14:35.359375,0.62
16:14:35.375000,0.17
16:14:35.390625,-0.38
16:14:35.406250,-0.99
16:14:35.421875,-1.58
16:14:35.437500,-2.08
16:14:35.453125,-2.41
16:14:35.468750,-2.56
16:14:35.484375,-2.54
16:14:35.500000,-2.43
16:14:35.515625,-2.26
16:14:35.531250,-1.98
16:14:35.546875,-1.53
16:14:35.562500,-0.80
16:14:35.578125,0.22
16:14:35.593750,1.43
16:14:35.609375,2.64
16:14:35.625000,3.58
16:14:35.640625,4.07
16:14:35.656250,3.97
16:14:35.671875,3.30
16:14:35.687500,2.16
16:14:35.703125,0.80
16:14:35.718750,-0.50
16:14:35.734375,-1.47
16:14:35.750000,-1.93
16:14:35.765625,-1.82
16:14:35.781250,-1.29
16:14:35.796875,-0.50
16:14:35.812500,0.37
16:14:35.828125,1.32
16:14:35.843750,2.40
16:14:35.859375,3.68
16:14:35.875000,5.11
16:14:35.890625,6.48
16:14:35.906250,7.51
16:14:35.921875,7.97
16:14:35.937500,7.81
16:14:35.953125,7.15
16:14:35.968750,6.30
16:14:35.984375,5.57
16:14:36,5.21
16:14:36.015625,5.32
16:14:36.031250,5.84
16:14:36.046875,6.57
16:14:36.062500,7.25
16:14:36.078125,7.65
16:14:36.093750,7.64
16:14:36.109375,7.24
16:14:36.125000,6.55
16:14:36.140625,5.70
16:14:36.156250,4.78
16:14:36.171875,3.79
16:14:36.187500,2.67
16:14:36.203125,1.44
16:14:36.218750,0.13
16:14:36.234375,-1.11
16:14:36.250000,-2.19
16:14:36.265625,-3.07
16:14:36.281250,-3.76
16:14:36.296875,-4.33
16:14:36.312500,-4.81
16:14:36.328125,-5.18
16:14:36.343750,-5.36
16:14:36.359375,-5.26
16:14:36.375000,-4.89
16:14:36.390625,-4.32
16:14:36.406250,-3.70
16:14:36.421875,-3.19
16:14:36.437500,-2.83
16:14:36.453125,-2.56
16:14:36.468750,-2.25
16:14:36.484375,-1.71
16:14:36.500000,-0.87
16:14:36.515625,0.25
16:14:36.531250,1.49
16:14:36.546875,2.60
16:14:36.562500,3.37
16:14:36.578125,3.71
16:14:36.593750,3.64
16:14:36.609375,3.29
16:14:36.625000,2.83
16:14:36.640625,2.35
16:14:36.656250,1.88
16:14:36.671875,1.38
16:14:36.687500,0.80
16:14:36.703125,0.14
16:14:36.718750,-0.56
16:14:36.734375,-1.23
16:14:36.750000,-1.81
16:14:36.765625,-2.33
16:14:36.781250,-2.82
16:14:36.796875,-3.39
16:14:36.812500,-4.05
16:14:36.828125,-4.78
16:14:36.843750,-5.47
16:14:36.859375,-5.99
16:14:36.875000,-6.29
16:14:36.890625,-6.38
16:14:36.906250,-6.36
16:14:36.921875,-6.31
16:14:36.937500,-6.31
16:14:36.953125,-6.37
16:14:36.968750,-6.44
16:14:36.984375,-6.45
16:14:37,-6.36
16:14:37.015625,-6.12
16:14:37.031250,-5.75
16:14:37.046875,-5.26
16:14:37.062500,-4.67
16:14:37.078125,-3.99
16:14:37.093750,-3.23
16:14:37.109375,-2.39
16:14:37.125000,-1.50
16:14:37.140625,-0.60
16:14:37.156250,0.25
16:14:37.171875,0.99
16:14:37.187500,1.53
16:14:37.203125,1.84
16:14:37.218750,1.92
16:14:37.234375,1.78
16:14:37.250000,1.44
16:14:37.265625,0.92
16:14:37.281250,0.19
16:14:37.296875,-0.70
16:14:37.312500,-1.65
16:14:37.328125,-2.45
16:14:37.343750,-2.88
16:14:37.359375,-2.77
16:14:37.375000,-2.14
16:14:37.390625,-1.16
16:14:37.406250,-0.14
16:14:37.421875,0.63
16:14:37.437500,1.01
16:14:37.453125,1.02
16:14:37.468750,0.88
16:14:37.484375,0.80
16:14:37.500000,0.90
16:14:37.515625,1.13
16:14:37.531250,1.28
16:14:37.546875,1.12
16:14:37.562500,0.49
16:14:37.578125,-0.61
16:14:37.593750,-2.00
16:14:37.609375,-3.44
16:14:37.625000,-4.64
16:14:37.640625,-5.41
16:14:37.656250,-5.65
16:14:37.671875,-5.38
16:14:37.687500,-4.73
16:14:37.703125,-3.90
16:14:37.718750,-3.07
16:14:37.734375,-2.33
16:14:37.750000,-1.65
16:14:37.765625,-0.87
16:14:37.781250,0.18
16:14:37.796875,1.63
16:14:37.812500,3.43
16:14:37.828125,5.41
16:14:37.843750,7.30
16:14:37.859375,8.84
16:14:37.875000,9.83
16:14:37.890625,10.16
16:14:37.906250,9.81
16:14:37.921875,8.87
16:14:37.937500,7.51
16:14:37.953125,5.96
16:14:37.968750,4.48
16:14:37.984375,3.25
16:14:38,2.34
16:14:38.015625,1.65
16:14:38.031250,1.01
16:14:38.046875,0.25
16:14:38.062500,-0.69
16:14:38.078125,-1.73
16:14:38.093750,-2.69
16:14:38.109375,-3.36
16:14:38.125000,-3.60
16:14:38.140625,-3.44
16:14:38.156250,-3.04
16:14:38.171875,-2.61
16:14:38.187500,-2.34
16:14:38.203125,-2.31
16:14:38.218750,-2.47
16:14:38.234375,-2.75
16:14:38.250000,-3.04
16:14:38.265625,-3.33
16:14:38.281250,-3.65
16:14:38.296875,-4.01
16:14:38.312500,-4.45
16:14:38.328125,-4.91
16:14:38.343750,-5.30
16:14:38.359375,-5.58
16:14:38.375000,-5.69
16:14:38.390625,-5.64
16:14:38.406250,-5.45
16:14:38.421875,-5.11
16:14:38.437500,-4.58
16:14:38.453125,-3.84
16:14:38.468750,-2.96
16:14:38.484375,-2.05
16:14:38.500000,-1.27
16:14:38.515625,-0.75
16:14:38.531250,-0.41
16:14:38.546875,-0.08
16:14:38.562500,0.49
16:14:38.578125,1.46
16:14:38.593750,2.81
16:14:38.609375,4.29
16:14:38.625000,5.62
16:14:38.640625,6.57
16:14:38.656250,7.10
16:14:38.671875,7.36
16:14:38.687500,7.63
16:14:38.703125,8.13
16:14:38.718750,9.00
16:14:38.734375,10.23
16:14:38.750000,11.67
16:14:38.765625,13.10
16:14:38.781250,14.27
16:14:38.796875,14.91
16:14:38.812500,14.84
16:14:38.828125,13.92
16:14:38.843750,12.19
16:14:38.859375,9.80
16:14:38.875000,7.01
16:14:38.890625,4.07
16:14:38.906250,1.15
16:14:38.921875,-1.73
16:14:38.937500,-4.70
16:14:38.953125,-7.91
16:14:38.968750,-11.44
16:14:38.984375,-15.18
16:14:39,-18.83
16:14:39.015625,-22.01
16:14:39.031250,-24.39
16:14:39.046875,-25.84
16:14:39.062500,-26.47
16:14:39.078125,-26.48
16:14:39.093750,-26.13
16:14:39.109375,-25.55
16:14:39.125000,-24.70
16:14:39.140625,-23.48
16:14:39.156250,-21.75
16:14:39.171875,-19.44
16:14:39.187500,-16.58
16:14:39.203125,-13.25
16:14:39.218750,-9.54
16:14:39.234375,-5.60
16:14:39.250000,-1.62
16:14:39.265625,2.16
16:14:39.281250,5.44
16:14:39.296875,8.02
16:14:39.312500,9.78
16:14:39.328125,10.81
16:14:39.343750,11.34
16:14:39.359375,11.60
16:14:39.375000,11.81
16:14:39.390625,12.01
16:14:39.406250,12.16
16:14:39.421875,12.14
16:14:39.437500,11.84
16:14:39.453125,11.18
16:14:39.468750,10.12
16:14:39.484375,8.67
16:14:39.500000,6.89
16:14:39.515625,4.89
16:14:39.531250,2.85
16:14:39.546875,1.02
16:14:39.562500,-0.40
16:14:39.578125,-1.31
16:14:39.593750,-1.74
16:14:39.609375,-1.86
16:14:39.625000,-1.91
16:14:39.640625,-2.08
16:14:39.656250,-2.49
16:14:39.671875,-3.13
16:14:39.687500,-3.90
16:14:39.703125,-4.70
16:14:39.718750,-5.42
16:14:39.734375,-6.00
16:14:39.750000,-6.46
16:14:39.765625,-6.82
16:14:39.781250,-7.11
16:14:39.796875,-7.31
16:14:39.812500,-7.40
16:14:39.828125,-7.30
16:14:39.843750,-6.93
16:14:39.859375,-6.28
16:14:39.875000,-5.38
16:14:39.890625,-4.34
16:14:39.906250,-3.30
16:14:39.921875,-2.39
16:14:39.937500,-1.63
16:14:39.953125,-1.00
16:14:39.968750,-0.43
16:14:39.984375,0.10
16:14:40,0.55
16:14:40.015625,0.78
16:14:40.031250,0.72
16:14:40.046875,0.35
16:14:40.062500,-0.19
16:14:40.078125,-0.70
16:14:40.093750,-0.98
16:14:40.109375,-0.93
16:14:40.125000,-0.61
16:14:40.140625,-0.22
16:14:40.156250,-0.04
16:14:40.171875,-0.31
16:14:40.187500,-1.15
16:14:40.203125,-2.55
16:14:40.218750,-4.36
16:14:40.234375,-6.35
16:14:40.250000,-8.21
16:14:40.265625,-9.72
16:14:40.281250,-10.68
16:14:40.296875,-11.06
16:14:40.312500,-10.92
16:14:40.328125,-10.43
16:14:40.343750,-9.79
16:14:40.359375,-9.19
16:14:40.375000,-8.70
16:14:40.390625,-8.26
16:14:40.406250,-7.73
16:14:40.421875,-6.93
16:14:40.437500,-5.72
16:14:40.453125,-4.11
16:14:40.468750,-2.19
16:14:40.484375,-0.08
16:14:40.500000,2.08
16:14:40.515625,4.24
16:14:40.531250,6.41
16:14:40.546875,8.63
16:14:40.562500,10.89
16:14:40.578125,13.15
16:14:40.593750,15.26
16:14:40.609375,17.09
16:14:40.625000,18.54
16:14:40.640625,19.55
16:14:40.656250,20.12
16:14:40.671875,20.28
16:14:40.687500,20.08
16:14:40.703125,19.58
16:14:40.718750,18.87
16:14:40.734375,18.02
16:14:40.750000,17.12
16:14:40.765625,16.22
16:14:40.781250,15.33
16:14:40.796875,14.37
16:14:40.812500,13.29
16:14:40.828125,12.04
16:14:40.843750,10.61
16:14:40.859375,9.10
16:14:40.875000,7.57
16:14:40.890625,6.10
16:14:40.906250,4.71
16:14:40.921875,3.34
16:14:40.937500,1.99
16:14:40.953125,0.65
16:14:40.968750,-0.65
16:14:40.984375,-1.86
16:14:41,-2.95
16:14:41.015625,-3.93
16:14:41.031250,-4.86
16:14:41.046875,-5.81
16:14:41.062500,-6.80
16:14:41.078125,-7.79
16:14:41.093750,-8.71
16:14:41.109375,-9.43
16:14:41.125000,-9.90
16:14:41.140625,-10.02
16:14:41.156250,-9.76
16:14:41.171875,-9.06
16:14:41.187500,-7.92
16:14:41.203125,-6.46
16:14:41.218750,-4.82
16:14:41.234375,-3.26
16:14:41.250000,-1.96
16:14:41.265625,-1.01
16:14:41.281250,-0.36
16:14:41.296875,0.13
16:14:41.312500,0.63
16:14:41.328125,1.25
16:14:41.343750,2.00
16:14:41.359375,2.84
16:14:41.375000,3.70
16:14:41.390625,4.49
16:14:41.406250,5.17
16:14:41.421875,5.73
16:14:41.437500,6.14
16:14:41.453125,6.42
16:14:41.468750,6.57
16:14:41.484375,6.60
16:14:41.500000,6.48
16:14:41.515625,6.18
16:14:41.531250,5.67
16:14:41.546875,4.96
16:14:41.562500,4.12
16:14:41.578125,3.26
16:14:41.593750,2.52
16:14:41.609375,1.91
16:14:41.625000,1.41
16:14:41.640625,0.93
16:14:41.656250,0.35
16:14:41.671875,-0.34
16:14:41.687500,-1.10
16:14:41.703125,-1.88
16:14:41.718750,-2.63
16:14:41.734375,-3.36
16:14:41.750000,-4.11
16:14:41.765625,-4.85
16:14:41.781250,-5.49
16:14:41.796875,-5.89
16:14:41.812500,-5.94
16:14:41.828125,-5.59
16:14:41.843750,-4.94
16:14:41.859375,-4.16
16:14:41.875000,-3.42
16:14:41.890625,-2.81
16:14:41.906250,-2.36
16:14:41.921875,-2.00
16:14:41.937500,-1.67
