16:48:46,-0.00
16:48:46.015625,-0.00
16:48:46.031250,-0.00
16:48:46.046875,-0.00
16:48:46.062500,-0.00
16:48:46.078125,-0.00
16:48:46.093750,-0.00
16:48:46.109375,-0.00
16:48:46.125000,-0.00
16:48:46.140625,-0.01
16:48:46.156250,-0.00
16:48:46.171875,0.00
16:48:46.187500,0.01
16:48:46.203125,0.01
16:48:46.218750,-0.00
16:48:46.234375,-0.03
16:48:46.250000,-0.05
16:48:46.265625,-0.05
16:48:46.281250,-0.00
16:48:46.296875,0.13
16:48:46.312500,0.36
16:48:46.328125,0.66
16:48:46.343750,1.01
16:48:46.359375,1.37
16:48:46.375000,1.72
16:48:46.390625,2.06
16:48:46.406250,2.40
16:48:46.421875,2.77
16:48:46.437500,3.24
16:48:46.453125,3.80
16:48:46.468750,4.42
16:48:46.484375,5.06
16:48:46.500000,5.66
16:48:46.515625,6.20
16:48:46.531250,6.68
16:48:46.546875,7.15
16:48:46.562500,7.64
16:48:46.578125,8.31
16:48:46.593750,9.14
16:48:46.609375,10.09
16:48:46.625000,11.04
16:48:46.640625,11.88
16:48:46.656250,12.56
16:48:46.671875,13.14
16:48:46.687500,13.76
16:48:46.703125,14.58
16:48:46.718750,15.96
16:48:46.734375,17.91
16:48:46.750000,20.32
16:48:46.765625,22.90
16:48:46.781250,25.38
16:48:46.796875,27.58
16:48:46.812500,29.57
16:48:46.828125,31.68
16:48:46.843750,34.20
16:48:46.859375,37.81
16:48:46.875000,42.54
16:48:46.890625,48.15
16:48:46.906250,54.10
16:48:46.921875,59.83
16:48:46.937500,64.97
16:48:46.953125,69.58
16:48:46.968750,74.14
16:48:46.984375,79.19
16:48:47,85.71
16:48:47.015625,93.76
16:48:47.031250,103.00
16:48:47.046875,112.62
16:48:47.062500,121.73
16:48:47.078125,129.77
16:48:47.093750,136.75
16:48:47.109375,144.29
16:48:47.125000,150.58
16:48:47.140625,157.77
16:48:47.156250,166.64
16:48:47.171875,177.95
16:48:47.187500,191.79
16:48:47.203125,206.97
16:48:47.218750,220.57
16:48:47.234375,228.25
16:48:47.250000,225.36
16:48:47.265625,208.37
16:48:47.281250,176.87
16:48:47.296875,132.76
16:48:47.312500,80.05
16:48:47.328125,23.07
16:48:47.343750,-34.94
16:48:47.359375,-92.44
16:48:47.375000,-149.16
16:48:47.390625,-205.23
16:48:47.406250,-260.49
16:48:47.421875,-313.74
16:48:47.437500,-363.87
16:48:47.453125,-409.83
16:48:47.468750,-450.91
16:48:47.484375,-486.50
16:48:47.500000,-515.74
16:48:47.515625,-537.23
16:48:47.531250,-549.22
16:48:47.546875,-550.04
16:48:47.562500,-538.37
16:48:47.578125,-514.20
16:48:47.593750,-478.67
16:48:47.609375,-433.88
16:48:47.625000,-382.45
16:48:47.640625,-327.02
16:48:47.656250,-269.84
16:48:47.671875,-212.63
16:48:47.687500,-156.70
16:48:47.703125,-102.95
16:48:47.718750,-52.37
16:48:47.734375,-5.90
16:48:47.750000,35.58
16:48:47.765625,71.43
16:48:47.781250,101.35
16:48:47.796875,125.50
16:48:47.812500,144.38
16:48:47.828125,158.68
16:48:47.843750,169.15
16:48:47.859375,176.37
16:48:47.875000,180.75
16:48:47.890625,182.57
16:48:47.906250,182.07
16:48:47.921875,179.51
16:48:47.937500,175.23
16:48:47.953125,169.65
16:48:47.968750,163.18
16:48:47.984375,156.15
16:48:48,148.81
16:48:48.015625,141.30
16:48:48.031250,133.69
16:48:48.046875,126.02
16:48:48.062500,118.33
16:48:48.078125,110.69
16:48:48.093750,103.16
16:48:48.109375,95.80
16:48:48.125000,88.68
16:48:48.140625,81.83
16:48:48.156250,75.25
16:48:48.171875,68.95
16:48:48.187500,62.95
16:48:48.203125,57.25
16:48:48.218750,51.86
16:48:48.234375,46.78
16:48:48.250000,42.03
16:48:48.265625,37.59
16:48:48.281250,33.45
16:48:48.296875,29.61
16:48:48.312500,26.07
16:48:48.328125,22.81
16:48:48.343750,19.82
16:48:48.359375,17.11
16:48:48.375000,14.67
16:48:48.390625,12.48
16:48:48.406250,10.54
16:48:48.421875,8.83
16:48:48.437500,7.35
16:48:48.453125,6.07
16:48:48.468750,4.97
16:48:48.484375,4.05
16:48:48.500000,3.27
16:48:48.515625,2.62
16:48:48.531250,2.09
16:48:48.546875,1.65
16:48:48.562500,1.30
16:48:48.578125,1.01
16:48:48.593750,0.79
16:48:48.609375,0.61
16:48:48.625000,0.47
16:48:48.640625,0.37
16:48:48.656250,0.29
16:48:48.671875,0.23
16:48:48.687500,0.20
16:48:48.703125,0.17
16:48:48.718750,0.16
16:48:48.734375,0.16
16:48:48.750000,0.17
16:48:48.765625,0.19
16:48:48.781250,0.22
16:48:48.796875,0.25
16:48:48.812500,0.28
16:48:48.828125,0.32
16:48:48.843750,0.36
16:48:48.859375,0.40
16:48:48.875000,0.45
16:48:48.890625,0.51
16:48:48.906250,0.57
16:48:48.921875,0.63
16:48:48.937500,0.67
16:48:48.953125,0.70
16:48:48.968750,0.69
16:48:48.984375,0.67
16:48:49,0.64
16:48:49.015625,0.63
16:48:49.031250,0.64
16:48:49.046875,0.69
16:48:49.062500,0.76
16:48:49.078125,0.84
16:48:49.093750,0.90
16:48:49.109375,0.97
16:48:49.125000,1.03
16:48:49.140625,1.12
16:48:49.156250,1.25
16:48:49.171875,1.44
16:48:49.187500,1.68
16:48:49.203125,1.95
16:48:49.218750,2.22
16:48:49.234375,2.46
16:48:49.250000,2.66
16:48:49.265625,2.85
16:48:49.281250,3.06
16:48:49.296875,3.36
16:48:49.312500,3.77
16:48:49.328125,4.29
16:48:49.343750,4.85
16:48:49.359375,5.36
16:48:49.375000,5.74
16:48:49.390625,5.97
16:48:49.406250,6.11
16:48:49.421875,6.27
16:48:49.437500,6.58
16:48:49.453125,7.13
16:48:49.468750,7.89
16:48:49.484375,8.74
16:48:49.500000,9.49
16:48:49.515625,9.99
16:48:49.531250,10.17
16:48:49.546875,10.14
16:48:49.562500,10.08
16:48:49.578125,10.23
16:48:49.593750,10.65
16:48:49.609375,11.22
16:48:49.625000,11.61
16:48:49.640625,11.38
16:48:49.656250,10.17
16:48:49.671875,7.77
16:48:49.687500,4.30
16:48:49.703125,0.04
16:48:49.718750,-4.66
16:48:49.734375,-9.54
16:48:49.750000,-14.55
16:48:49.765625,-19.71
16:48:49.781250,-25.07
16:48:49.796875,-30.68
16:48:49.812500,-36.56
16:48:49.828125,-42.81
16:48:49.843750,-49.47
16:48:49.859375,-56.30
16:48:49.875000,-62.43
16:48:49.890625,-66.39
16:48:49.906250,-66.46
16:48:49.921875,-61.44
16:48:49.937500,-51.25
16:48:49.953125,-37.16
16:48:49.968750,-21.33
16:48:49.984375,-6.01
16:48:50,7.33
16:48:50.015625,18.20
16:48:50.031250,26.80
16:48:50.046875,33.49
16:48:50.062500,38.29
16:48:50.078125,40.95
16:48:50.093750,41.28
16:48:50.109375,39.51
16:48:50.125000,36.43
16:48:50.140625,32.99
16:48:50.156250,29.88
16:48:50.171875,27.23
16:48:50.187500,24.70
16:48:50.203125,21.75
16:48:50.218750,18.06
16:48:50.234375,13.69
16:48:50.250000,9.14
16:48:50.265625,5.03
16:48:50.281250,1.91
16:48:50.296875,-0.01
16:48:50.312500,-0.83
16:48:50.328125,-0.88
16:48:50.343750,-0.57
16:48:50.359375,-0.24
16:48:50.375000,-0.08
16:48:50.390625,-0.22
16:48:50.406250,-0.64
16:48:50.421875,-1.33
16:48:50.437500,-2.24
16:48:50.453125,-3.33
16:48:50.468750,-4.55
16:48:50.484375,-5.93
16:48:50.500000,-7.60
16:48:50.515625,-9.66
16:48:50.531250,-12.16
16:48:50.546875,-15.08
16:48:50.562500,-18.20
16:48:50.578125,-21.13
16:48:50.593750,-23.43
16:48:50.609375,-24.72
16:48:50.625000,-24.91
16:48:50.640625,-24.20
16:48:50.656250,-23.13
16:48:50.671875,-22.46
16:48:50.687500,-22.98
16:48:50.703125,-25.37
16:48:50.718750,-30.02
16:48:50.734375,-36.89
16:48:50.750000,-45.02
16:48:50.765625,-52.92
16:48:50.781250,-58.70
16:48:50.796875,-60.45
16:48:50.812500,-56.77
16:48:50.828125,-47.23
16:48:50.843750,-32.52
16:48:50.859375,-14.28
16:48:50.875000,5.37
16:48:50.890625,24.46
16:48:50.906250,41.52
16:48:50.921875,55.78
16:48:50.937500,67.02
16:48:50.953125,75.30
16:48:50.968750,80.74
16:48:50.984375,83.39
16:48:51,83.36
16:48:51.015625,80.94
16:48:51.031250,76.68
16:48:51.046875,71.30
16:48:51.062500,65.52
16:48:51.078125,59.93
16:48:51.093750,54.78
16:48:51.109375,50.12
16:48:51.125000,45.85
16:48:51.140625,41.91
16:48:51.156250,38.32
16:48:51.171875,35.09
16:48:51.187500,32.15
16:48:51.203125,29.36
16:48:51.218750,26.52
16:48:51.234375,23.43
16:48:51.250000,20.00
16:48:51.265625,16.18
16:48:51.281250,11.89
16:48:51.296875,7.09
16:48:51.312500,1.71
16:48:51.328125,-4.20
16:48:51.343750,-10.45
16:48:51.359375,-16.73
16:48:51.375000,-22.76
16:48:51.390625,-28.35
16:48:51.406250,-33.55
16:48:51.421875,-38.59
16:48:51.437500,-43.77
16:48:51.453125,-49.35
16:48:51.468750,-55.52
16:48:51.484375,-62.39
16:48:51.500000,-70.00
16:48:51.515625,-78.16
16:48:51.531250,-86.29
16:48:51.546875,-93.36
16:48:51.562500,-97.94
16:48:51.578125,-98.53
16:48:51.593750,-94.07
16:48:51.609375,-84.29
16:48:51.625000,-69.81
16:48:51.640625,-51.99
16:48:51.656250,-32.50
16:48:51.671875,-12.90
16:48:51.687500,5.59
16:48:51.703125,22.20
16:48:51.718750,36.45
16:48:51.734375,48.09
16:48:51.750000,57.05
16:48:51.765625,63.39
16:48:51.781250,67.27
16:48:51.796875,68.95
16:48:51.812500,68.69
16:48:51.828125,66.83
16:48:51.843750,63.78
16:48:51.859375,60.06
16:48:51.875000,56.19
16:48:51.890625,52.64
16:48:51.906250,49.66
16:48:51.921875,47.24
16:48:51.937500,45.20
16:48:51.953125,43.29
16:48:51.968750,41.27
16:48:51.984375,39.01
16:48:52,36.40
16:48:52.015625,33.39
16:48:52.031250,29.91
16:48:52.046875,25.92
16:48:52.062500,21.43
16:48:52.078125,16.52
16:48:52.093750,11.27
16:48:52.109375,5.81
16:48:52.125000,0.20
16:48:52.140625,-5.49
16:48:52.156250,-11.25
16:48:52.171875,-17.02
16:48:52.187500,-22.75
16:48:52.203125,-28.38
16:48:52.218750,-33.86
16:48:52.234375,-39.27
16:48:52.250000,-44.85
16:48:52.265625,-50.91
16:48:52.281250,-57.83
16:48:52.296875,-65.74
16:48:52.312500,-74.31
16:48:52.328125,-82.61
16:48:52.343750,-89.21
16:48:52.359375,-92.47
16:48:52.375000,-91.02
16:48:52.390625,-84.22
16:48:52.406250,-72.38
16:48:52.421875,-56.64
16:48:52.437500,-38.66
16:48:52.453125,-20.10
16:48:52.468750,-2.32
16:48:52.484375,13.84
16:48:52.500000,27.97
16:48:52.515625,39.88
16:48:52.531250,49.43
16:48:52.546875,56.52
16:48:52.562500,61.09
16:48:52.578125,63.33
16:48:52.593750,63.65
16:48:52.609375,62.61
16:48:52.625000,60.76
16:48:52.640625,58.50
16:48:52.656250,55.98
16:48:52.671875,53.22
16:48:52.687500,50.28
16:48:52.703125,47.29
16:48:52.718750,44.49
16:48:52.734375,42.03
16:48:52.750000,39.96
16:48:52.765625,38.11
16:48:52.781250,36.18
16:48:52.796875,33.89
16:48:52.812500,31.07
16:48:52.828125,27.72
16:48:52.843750,23.97
16:48:52.859375,19.95
16:48:52.875000,15.74
16:48:52.890625,11.40
16:48:52.906250,6.88
16:48:52.921875,2.13
16:48:52.937500,-2.88
16:48:52.953125,-8.15
16:48:52.968750,-13.64
16:48:52.984375,-19.25
16:48:53,-24.84
16:48:53.015625,-30.23
16:48:53.031250,-35.40
16:48:53.046875,-40.47
16:48:53.062500,-45.76
16:48:53.078125,-51.71
16:48:53.093750,-58.65
16:48:53.109375,-66.52
16:48:53.125000,-74.66
16:48:53.140625,-81.79
16:48:53.156250,-86.29
16:48:53.171875,-86.62
16:48:53.187500,-81.84
16:48:53.203125,-71.92
16:48:53.218750,-57.77
16:48:53.234375,-40.93
16:48:53.250000,-23.11
16:48:53.265625,-5.80
16:48:53.281250,9.94
16:48:53.296875,23.50
16:48:53.312500,34.57
16:48:53.328125,43.05
16:48:53.343750,48.92
16:48:53.359375,52.31
16:48:53.375000,53.49
16:48:53.390625,52.89
16:48:53.406250,51.02
16:48:53.421875,48.39
16:48:53.437500,45.39
16:48:53.453125,42.30
16:48:53.468750,39.27
16:48:53.484375,36.42
16:48:53.500000,33.86
16:48:53.515625,31.69
16:48:53.531250,29.96
16:48:53.546875,28.58
16:48:53.562500,27.34
16:48:53.578125,25.93
16:48:53.593750,24.05
16:48:53.609375,21.57
16:48:53.625000,18.45
16:48:53.640625,14.78
16:48:53.656250,10.64
16:48:53.671875,6.07
16:48:53.687500,1.05
16:48:53.703125,-4.41
16:48:53.718750,-10.19
16:48:53.734375,-16.10
16:48:53.750000,-21.87
16:48:53.765625,-27.36
16:48:53.781250,-32.52
16:48:53.796875,-37.53
16:48:53.812500,-42.70
16:48:53.828125,-48.34
16:48:53.843750,-54.76
16:48:53.859375,-62.07
16:48:53.875000,-70.18
16:48:53.890625,-78.66
16:48:53.906250,-86.63
16:48:53.921875,-92.85
16:48:53.937500,-95.90
16:48:53.953125,-94.54
16:48:53.968750,-88.08
16:48:53.984375,-76.67
16:48:54,-61.26
16:48:54.015625,-43.38
16:48:54.031250,-24.66
16:48:54.046875,-6.53
16:48:54.062500,10.07
16:48:54.078125,24.63
16:48:54.093750,36.94
16:48:54.109375,46.93
16:48:54.125000,54.56
16:48:54.140625,59.83
16:48:54.156250,62.84
16:48:54.171875,63.82
16:48:54.187500,63.16
16:48:54.203125,61.35
16:48:54.218750,58.84
16:48:54.234375,55.98
16:48:54.250000,53.01
16:48:54.265625,50.06
16:48:54.281250,47.23
16:48:54.296875,44.64
16:48:54.312500,42.34
16:48:54.328125,40.31
16:48:54.343750,38.42
16:48:54.359375,36.38
16:48:54.375000,33.91
16:48:54.390625,30.78
16:48:54.406250,26.91
16:48:54.421875,22.44
16:48:54.437500,17.61
16:48:54.453125,12.70
16:48:54.468750,7.94
16:48:54.484375,3.45
16:48:54.500000,-0.79
16:48:54.515625,-4.83
16:48:54.531250,-8.77
16:48:54.546875,-12.63
16:48:54.562500,-16.37
16:48:54.578125,-19.91
16:48:54.593750,-23.23
16:48:54.609375,-26.40
16:48:54.625000,-29.65
16:48:54.640625,-33.37
16:48:54.656250,-37.96
16:48:54.671875,-43.71
16:48:54.687500,-50.49
16:48:54.703125,-57.64
16:48:54.718750,-63.93
16:48:54.734375,-67.75
16:48:54.750000,-67.55
16:48:54.765625,-62.30
16:48:54.781250,-51.87
16:48:54.796875,-37.08
16:48:54.812500,-19.43
16:48:54.828125,-0.58
16:48:54.843750,18.12
16:48:54.859375,35.86
16:48:54.875000,52.29
16:48:54.890625,67.23
16:48:54.906250,80.31
16:48:54.921875,90.97
16:48:54.937500,98.53
16:48:54.953125,102.61
16:48:54.968750,103.35
16:48:54.984375,101.51
16:48:55,98.25
16:48:55.015625,94.69
16:48:55.031250,91.56
16:48:55.046875,89.05
16:48:55.062500,86.99
16:48:55.078125,85.00
16:48:55.093750,82.88
16:48:55.109375,80.60
16:48:55.125000,78.24
16:48:55.140625,75.79
16:48:55.156250,73.12
16:48:55.171875,70.15
16:48:55.187500,66.97
16:48:55.203125,63.71
16:48:55.218750,60.12
16:48:55.234375,55.20
16:48:55.250000,47.08
16:48:55.265625,33.64
16:48:55.281250,13.42
16:48:55.296875,-13.46
16:48:55.312500,-45.15
16:48:55.328125,-78.58
16:48:55.343750,-110.50
16:48:55.359375,-138.49
16:48:55.375000,-161.43
16:48:55.390625,-179.28
16:48:55.406250,-192.81
16:48:55.421875,-203.18
16:48:55.437500,-211.88
16:48:55.453125,-220.60
16:48:55.468750,-230.92
16:48:55.484375,-243.71
16:48:55.500000,-258.61
16:48:55.515625,-273.85
16:48:55.531250,-286.74
16:48:55.546875,-294.75
16:48:55.562500,-296.28
16:48:55.578125,-291.34
16:48:55.593750,-281.16
16:48:55.609375,-267.44
16:48:55.625000,-251.48
16:48:55.640625,-233.61
16:48:55.656250,-213.27
16:48:55.671875,-189.61
16:48:55.687500,-162.18
16:48:55.703125,-131.38
16:48:55.718750,-98.39
16:48:55.734375,-65.00
16:48:55.750000,-33.26
16:48:55.765625,-5.15
16:48:55.781250,17.62
16:48:55.796875,34.28
16:48:55.812500,45.45
16:48:55.828125,53.38
16:48:55.843750,60.98
16:48:55.859375,70.25
16:48:55.875000,80.60
16:48:55.890625,88.27
16:48:55.906250,87.70
16:48:55.921875,74.30
16:48:55.937500,47.06
16:48:55.953125,9.59
16:48:55.968750,-31.17
16:48:55.984375,-67.97
16:48:56,-96.15
16:48:56.015625,-114.94
16:48:56.031250,-126.65
16:48:56.046875,-134.69
16:48:56.062500,-141.65
16:48:56.078125,-148.50
16:48:56.093750,-154.91
16:48:56.109375,-160.21
16:48:56.125000,-164.10
16:48:56.140625,-166.85
16:48:56.156250,-168.99
16:48:56.171875,-170.85
16:48:56.187500,-172.14
16:48:56.203125,-171.85
16:48:56.218750,-168.55
16:48:56.234375,-160.93
16:48:56.250000,-148.54
16:48:56.265625,-132.30
16:48:56.281250,-114.48
16:48:56.296875,-97.94
16:48:56.312500,-85.06
16:48:56.328125,-76.70
16:48:56.343750,-71.86
16:48:56.359375,-68.31
16:48:56.375000,-63.58
16:48:56.390625,-56.15
16:48:56.406250,-45.85
16:48:56.421875,-33.67
16:48:56.437500,-20.90
16:48:56.453125,-8.48
16:48:56.468750,3.50
16:48:56.484375,15.71
16:48:56.500000,29.18
16:48:56.515625,44.85
16:48:56.531250,63.23
16:48:56.546875,84.47
16:48:56.562500,108.45
16:48:56.578125,134.74
16:48:56.593750,162.30
16:48:56.609375,189.17
16:48:56.625000,212.57
16:48:56.640625,229.39
16:48:56.656250,237.20
16:48:56.671875,235.14
16:48:56.687500,224.27
16:48:56.703125,207.08
16:48:56.718750,186.49
16:48:56.734375,164.88
16:48:56.750000,143.55
16:48:56.765625,122.99
16:48:56.781250,103.41
16:48:56.796875,85.30
16:48:56.812500,69.49
16:48:56.828125,56.80
16:48:56.843750,47.54
16:48:56.859375,41.30
16:48:56.875000,37.15
16:48:56.890625,34.11
16:48:56.906250,31.63
16:48:56.921875,29.67
16:48:56.937500,28.65
16:48:56.953125,29.11
16:48:56.968750,31.39
16:48:56.984375,35.63
16:48:57,41.84
16:48:57.015625,50.08
16:48:57.031250,60.54
16:48:57.046875,73.36
16:48:57.062500,88.43
16:48:57.078125,105.20
16:48:57.093750,122.70
16:48:57.109375,139.82
16:48:57.125000,155.50
16:48:57.140625,169.04
16:48:57.156250,180.13
16:48:57.171875,188.68
16:48:57.187500,194.71
16:48:57.203125,198.24
16:48:57.218750,199.32
16:48:57.234375,198.07
16:48:57.250000,194.81
16:48:57.265625,190.03
16:48:57.281250,184.28
16:48:57.296875,178.01
16:48:57.312500,171.49
16:48:57.328125,164.80
16:48:57.343750,157.94
16:48:57.359375,151.03
16:48:57.375000,144.31
16:48:57.390625,138.05
16:48:57.406250,132.45
16:48:57.421875,127.43
16:48:57.437500,122.69
16:48:57.453125,117.82
16:48:57.468750,112.58
16:48:57.484375,107.10
16:48:57.500000,101.83
16:48:57.515625,97.35
16:48:57.531250,94.03
16:48:57.546875,91.85
16:48:57.562500,90.31
16:48:57.578125,88.70
16:48:57.593750,86.45
16:48:57.609375,83.34
16:48:57.625000,79.59
16:48:57.640625,75.70
16:48:57.656250,72.22
16:48:57.671875,69.53
16:48:57.687500,67.64
16:48:57.703125,66.27
16:48:57.718750,65.04
16:48:57.734375,63.70
16:48:57.750000,62.26
16:48:57.765625,60.91
16:48:57.781250,59.62
16:48:57.796875,57.85
16:48:57.812500,54.37
16:48:57.828125,47.49
16:48:57.843750,35.49
16:48:57.859375,17.19
16:48:57.875000,-7.55
16:48:57.890625,-37.51
16:48:57.906250,-69.88
16:48:57.921875,-100.32
16:48:57.937500,-123.29
16:48:57.953125,-133.20
16:48:57.968750,-125.87
16:48:57.984375,-100.19
16:48:58,-58.85
16:48:58.015625,-7.86
16:48:58.031250,45.13
16:48:58.046875,93.19
16:48:58.062500,131.97
16:48:58.078125,160.47
16:48:58.093750,180.49
16:48:58.109375,195.27
16:48:58.125000,207.84
16:48:58.140625,219.77
16:48:58.156250,230.63
16:48:58.171875,238.29
16:48:58.187500,239.90
16:48:58.203125,233.17
16:48:58.218750,217.51
16:48:58.234375,194.40
16:48:58.250000,166.83
16:48:58.265625,138.14
16:48:58.281250,110.76
16:48:58.296875,85.57
16:48:58.312500,62.20
16:48:58.328125,39.82
16:48:58.343750,17.96
16:48:58.359375,-3.22
16:48:58.375000,-23.20
16:48:58.390625,-41.57
16:48:58.406250,-58.34
16:48:58.421875,-73.74
16:48:58.437500,-87.79
16:48:58.453125,-99.96
16:48:58.468750,-109.01
16:48:58.484375,-113.49
16:48:58.500000,-112.43
16:48:58.515625,-105.84
16:48:58.531250,-94.82
16:48:58.546875,-81.03
16:48:58.562500,-65.91
16:48:58.578125,-49.98
16:48:58.593750,-32.79
16:48:58.609375,-13.52
16:48:58.625000,8.10
16:48:58.640625,31.29
16:48:58.656250,54.26
16:48:58.671875,74.71
16:48:58.687500,90.50
16:48:58.703125,99.93
16:48:58.718750,101.77
16:48:58.734375,95.31
16:48:58.750000,80.65
16:48:58.765625,59.24
16:48:58.781250,34.09
16:48:58.796875,9.36
16:48:58.812500,-10.82
16:48:58.828125,-23.83
16:48:58.843750,-29.42
16:48:58.859375,-29.55
16:48:58.875000,-27.35
16:48:58.890625,-25.75
16:48:58.906250,-26.59
16:48:58.921875,-30.50
16:48:58.937500,-37.35
16:48:58.953125,-46.76
16:48:58.968750,-58.36
16:48:58.984375,-71.59
16:48:59,-85.64
16:48:59.015625,-99.40
16:48:59.031250,-111.75
16:48:59.046875,-121.88
16:48:59.062500,-129.51
16:48:59.078125,-134.83
16:48:59.093750,-138.28
16:48:59.109375,-140.22
16:48:59.125000,-140.85
16:48:59.140625,-140.23
16:48:59.156250,-138.37
16:48:59.171875,-135.35
16:48:59.187500,-131.16
16:48:59.203125,-125.67
16:48:59.218750,-118.67
16:48:59.234375,-110.04
16:48:59.250000,-100.04
16:48:59.265625,-89.41
16:48:59.281250,-79.24
16:48:59.296875,-70.52
16:48:59.312500,-63.74
16:48:59.328125,-58.75
16:48:59.343750,-54.93
16:48:59.359375,-51.70
16:48:59.375000,-48.91
16:48:59.390625,-46.96
16:48:59.406250,-46.51
16:48:59.421875,-48.10
16:48:59.437500,-51.71
16:48:59.453125,-56.82
16:48:59.468750,-62.54
16:48:59.484375,-67.94
16:48:59.500000,-72.38
16:48:59.515625,-75.55
16:48:59.531250,-77.44
16:48:59.546875,-78.24
16:48:59.562500,-78.23
16:48:59.578125,-77.74
16:48:59.593750,-77.05
16:48:59.609375,-76.40
16:48:59.625000,-75.96
16:48:59.640625,-75.79
16:48:59.656250,-75.87
16:48:59.671875,-76.13
16:48:59.687500,-76.46
16:48:59.703125,-76.74
16:48:59.718750,-76.85
16:48:59.734375,-76.75
16:48:59.750000,-76.52
16:48:59.765625,-76.34
16:48:59.781250,-76.57
16:48:59.796875,-77.58
16:48:59.812500,-79.67
16:48:59.828125,-82.90
16:48:59.843750,-86.90
16:48:59.859375,-90.87
16:48:59.875000,-93.71
16:48:59.890625,-94.31
16:48:59.906250,-91.82
16:48:59.921875,-85.88
16:48:59.937500,-76.67
16:48:59.953125,-64.71
16:48:59.968750,-50.63
16:48:59.984375,-34.99
16:49:00,-18.22
16:49:00.015625,-0.84
16:49:00.031250,16.45
16:49:00.046875,32.73
16:49:00.062500,47.05
16:49:00.078125,58.74
16:49:00.093750,67.61
16:49:00.109375,73.86
16:49:00.125000,77.98
16:49:00.140625,80.35
16:49:00.156250,81.22
16:49:00.171875,80.79
16:49:00.187500,79.32
16:49:00.203125,77.20
16:49:00.218750,74.89
16:49:00.234375,72.65
16:49:00.250000,70.49
16:49:00.265625,68.12
16:49:00.281250,65.29
16:49:00.296875,61.93
16:49:00.312500,58.34
16:49:00.328125,55.01
16:49:00.343750,52.37
16:49:00.359375,50.57
16:49:00.375000,49.37
16:49:00.390625,48.22
16:49:00.406250,46.43
16:49:00.421875,43.39
16:49:00.437500,38.69
16:49:00.453125,32.13
16:49:00.468750,23.77
16:49:00.484375,13.94
16:49:00.500000,3.19
16:49:00.515625,-7.81
16:49:00.531250,-18.45
16:49:00.546875,-28.41
16:49:00.562500,-37.75
16:49:00.578125,-46.81
16:49:00.593750,-56.07
16:49:00.609375,-65.84
16:49:00.625000,-76.00
16:49:00.640625,-85.85
16:49:00.656250,-93.98
16:49:00.671875,-98.30
16:49:00.687500,-96.31
16:49:00.703125,-85.64
16:49:00.718750,-64.80
16:49:00.734375,-33.95
16:49:00.750000,4.84
16:49:00.765625,47.98
16:49:00.781250,91.28
16:49:00.796875,131.20
16:49:00.812500,165.62
16:49:00.828125,193.97
16:49:00.843750,216.83
16:49:00.859375,235.11
16:49:00.875000,249.61
16:49:00.890625,260.99
16:49:00.906250,269.87
16:49:00.921875,276.81
16:49:00.937500,281.86
16:49:00.953125,284.09
16:49:00.968750,281.53
16:49:00.984375,272.01
16:49:01,254.51
16:49:01.015625,230.36
16:49:01.031250,203.29
16:49:01.046875,178.38
16:49:01.062500,160.13
16:49:01.078125,150.77
16:49:01.093750,149.51
16:49:01.109375,153.13
16:49:01.125000,157.29
16:49:01.140625,157.99
16:49:01.156250,152.39
16:49:01.171875,139.07
16:49:01.187500,117.67
16:49:01.203125,88.60
16:49:01.218750,52.82
16:49:01.234375,11.85
16:49:01.250000,-32.27
16:49:01.265625,-76.97
16:49:01.281250,-119.30
16:49:01.296875,-156.11
16:49:01.312500,-184.55
16:49:01.328125,-202.79
16:49:01.343750,-210.66
16:49:01.359375,-209.96
16:49:01.375000,-204.05
16:49:01.390625,-196.81
16:49:01.406250,-191.34
16:49:01.421875,-189.03
16:49:01.437500,-189.37
16:49:01.453125,-190.65
16:49:01.468750,-191.02
16:49:01.484375,-189.35
16:49:01.500000,-185.60
16:49:01.515625,-180.42
16:49:01.531250,-174.54
16:49:01.546875,-168.24
16:49:01.562500,-161.32
16:49:01.578125,-153.44
16:49:01.593750,-144.62
16:49:01.609375,-135.49
16:49:01.625000,-127.18
16:49:01.640625,-120.90
16:49:01.656250,-117.41
16:49:01.671875,-116.73
16:49:01.687500,-118.11
16:49:01.703125,-120.45
16:49:01.718750,-122.67
16:49:01.734375,-124.12
16:49:01.750000,-124.56
16:49:01.765625,-123.96
16:49:01.781250,-122.11
16:49:01.796875,-118.51
16:49:01.812500,-112.28
16:49:01.828125,-102.56
16:49:01.843750,-88.88
16:49:01.859375,-71.42
16:49:01.875000,-51.14
16:49:01.890625,-29.55
16:49:01.906250,-8.44
16:49:01.921875,10.54
16:49:01.937500,26.27
16:49:01.953125,38.33
16:49:01.968750,47.10
16:49:01.984375,53.57
16:49:02,59.01
16:49:02.015625,64.52
16:49:02.031250,70.67
16:49:02.046875,77.39
16:49:02.062500,84.18
16:49:02.078125,90.43
16:49:02.093750,95.80
16:49:02.109375,100.25
16:49:02.125000,103.98
16:49:02.140625,107.11
16:49:02.156250,109.54
16:49:02.171875,110.91
16:49:02.187500,110.75
16:49:02.203125,108.68
16:49:02.218750,104.53
16:49:02.234375,98.43
16:49:02.250000,90.76
16:49:02.265625,82.07
16:49:02.281250,72.98
16:49:02.296875,63.97
16:49:02.312500,55.27
16:49:02.328125,46.86
16:49:02.343750,38.49
16:49:02.359375,30.00
16:49:02.375000,21.49
16:49:02.390625,13.45
16:49:02.406250,6.58
16:49:02.421875,1.50
16:49:02.437500,-1.63
16:49:02.453125,-3.24
16:49:02.468750,-4.29
16:49:02.484375,-5.77
16:49:02.500000,-8.42
16:49:02.515625,-12.38
16:49:02.531250,-17.25
16:49:02.546875,-22.32
16:49:02.562500,-26.93
16:49:02.578125,-30.67
16:49:02.593750,-33.50
16:49:02.609375,-35.60
16:49:02.625000,-37.23
16:49:02.640625,-38.55
16:49:02.656250,-39.59
16:49:02.671875,-40.28
16:49:02.687500,-40.56
16:49:02.703125,-40.41
16:49:02.718750,-39.94
16:49:02.734375,-39.29
16:49:02.750000,-38.63
16:49:02.765625,-38.10
16:49:02.781250,-37.76
16:49:02.796875,-37.64
16:49:02.812500,-37.78
16:49:02.828125,-38.21
16:49:02.843750,-38.92
16:49:02.859375,-39.81
16:49:02.875000,-40.61
16:49:02.890625,-40.94
16:49:02.906250,-40.41
16:49:02.921875,-38.82
16:49:02.937500,-36.27
16:49:02.953125,-33.11
16:49:02.968750,-29.84
16:49:02.984375,-26.86
16:49:03,-24.44
16:49:03.015625,-22.55
16:49:03.031250,-21.08
16:49:03.046875,-19.86
16:49:03.062500,-18.85
16:49:03.078125,-18.01
16:49:03.093750,-17.30
16:49:03.109375,-16.73
16:49:03.125000,-16.33
16:49:03.140625,-16.22
16:49:03.156250,-16.56
16:49:03.171875,-17.48
16:49:03.187500,-18.90
16:49:03.203125,-20.48
16:49:03.218750,-21.75
16:49:03.234375,-22.30
16:49:03.250000,-21.98
16:49:03.265625,-20.95
16:49:03.281250,-19.59
16:49:03.296875,-18.32
16:49:03.312500,-17.47
16:49:03.328125,-17.15
16:49:03.343750,-17.34
16:49:03.359375,-17.90
16:49:03.375000,-18.67
16:49:03.390625,-19.46
16:49:03.406250,-20.11
16:49:03.421875,-20.44
16:49:03.437500,-20.37
16:49:03.453125,-19.95
16:49:03.468750,-19.34
16:49:03.484375,-18.78
16:49:03.500000,-18.52
16:49:03.515625,-18.69
16:49:03.531250,-19.25
16:49:03.546875,-20.02
16:49:03.562500,-20.68
16:49:03.578125,-20.94
16:49:03.593750,-20.62
16:49:03.609375,-19.66
16:49:03.625000,-18.18
16:49:03.640625,-16.43
16:49:03.656250,-14.64
16:49:03.671875,-13.04
16:49:03.687500,-11.78
16:49:03.703125,-10.89
16:49:03.718750,-10.32
16:49:03.734375,-9.90
16:49:03.750000,-9.46
16:49:03.765625,-8.84
16:49:03.781250,-7.97
16:49:03.796875,-7.01
16:49:03.812500,-6.15
16:49:03.828125,-5.65
16:49:03.843750,-5.62
16:49:03.859375,-6.05
16:49:03.875000,-6.75
16:49:03.890625,-7.45
16:49:03.906250,-7.90
16:49:03.921875,-7.95
16:49:03.937500,-7.63
16:49:03.953125,-7.08
16:49:03.968750,-6.58
16:49:03.984375,-6.35
16:49:04,-6.52
16:49:04.015625,-7.08
16:49:04.031250,-7.85
16:49:04.046875,-8.64
16:49:04.062500,-9.28
16:49:04.078125,-9.70
16:49:04.093750,-9.97
16:49:04.109375,-10.21
16:49:04.125000,-10.53
16:49:04.140625,-10.96
16:49:04.156250,-11.51
16:49:04.171875,-12.12
16:49:04.187500,-12.71
16:49:04.203125,-13.21
16:49:04.218750,-13.55
16:49:04.234375,-13.67
16:49:04.250000,-13.57
16:49:04.265625,-13.35
16:49:04.281250,-13.13
16:49:04.296875,-13.05
16:49:04.312500,-13.19
16:49:04.328125,-13.52
16:49:04.343750,-13.87
16:49:04.359375,-13.95
16:49:04.375000,-13.45
16:49:04.390625,-12.17
16:49:04.406250,-10.00
16:49:04.421875,-7.08
16:49:04.437500,-3.65
16:49:04.453125,-0.06
16:49:04.468750,3.34
16:49:04.484375,6.28
16:49:04.500000,8.53
16:49:04.515625,9.97
16:49:04.531250,10.57
16:49:04.546875,10.39
16:49:04.562500,9.57
16:49:04.578125,8.25
16:49:04.593750,6.59
16:49:04.609375,4.71
16:49:04.625000,2.72
16:49:04.640625,0.82
16:49:04.656250,-0.72
16:49:04.671875,-1.61
16:49:04.687500,-1.63
16:49:04.703125,-0.72
16:49:04.718750,0.93
16:49:04.734375,2.96
16:49:04.750000,4.96
16:49:04.765625,6.56
16:49:04.781250,7.55
16:49:04.796875,7.83
16:49:04.812500,7.41
16:49:04.828125,6.36
16:49:04.843750,4.82
16:49:04.859375,2.93
16:49:04.875000,0.88
16:49:04.890625,-1.21
16:49:04.906250,-3.22
16:49:04.921875,-5.02
16:49:04.937500,-6.46
16:49:04.953125,-7.45
16:49:04.968750,-7.96
16:49:04.984375,-8.10
16:49:05,-8.10
16:49:05.015625,-8.15
16:49:05.031250,-8.35
16:49:05.046875,-8.62
16:49:05.062500,-8.79
16:49:05.078125,-8.72
16:49:05.093750,-8.42
16:49:05.109375,-8.06
16:49:05.125000,-7.89
16:49:05.140625,-8.04
16:49:05.156250,-8.45
16:49:05.171875,-8.89
16:49:05.187500,-9.02
16:49:05.203125,-8.52
16:49:05.218750,-7.18
16:49:05.234375,-5.00
16:49:05.250000,-2.10
16:49:05.265625,1.25
16:49:05.281250,4.70
16:49:05.296875,7.80
16:49:05.312500,10.17
16:49:05.328125,11.47
16:49:05.343750,11.58
16:49:05.359375,10.59
16:49:05.375000,8.81
16:49:05.390625,6.64
16:49:05.406250,4.51
16:49:05.421875,2.72
16:49:05.437500,1.42
16:49:05.453125,0.63
16:49:05.468750,0.31
16:49:05.484375,0.45
16:49:05.500000,1.04
16:49:05.515625,2.08
16:49:05.531250,3.44
16:49:05.546875,4.91
16:49:05.562500,6.18
16:49:05.578125,6.96
16:49:05.593750,7.10
16:49:05.609375,6.58
16:49:05.625000,5.57
16:49:05.640625,4.24
16:49:05.656250,2.82
16:49:05.671875,1.45
16:49:05.687500,0.25
16:49:05.703125,-0.65
16:49:05.718750,-1.18
16:49:05.734375,-1.39
16:49:05.750000,-1.39
16:49:05.765625,-1.42
16:49:05.781250,-1.71
16:49:05.796875,-2.37
16:49:05.812500,-3.38
16:49:05.828125,-4.55
16:49:05.843750,-5.64
16:49:05.859375,-6.41
16:49:05.875000,-6.69
16:49:05.890625,-6.41
16:49:05.906250,-5.58
16:49:05.921875,-4.25
16:49:05.937500,-2.56
16:49:05.953125,-0.67
16:49:05.968750,1.20
16:49:05.984375,2.89
16:49:06,4.23
16:49:06.015625,5.16
16:49:06.031250,5.69
16:49:06.046875,5.86
16:49:06.062500,5.75
16:49:06.078125,5.44
16:49:06.093750,5.07
16:49:06.109375,4.71
16:49:06.125000,4.42
16:49:06.140625,4.15
16:49:06.156250,3.79
16:49:06.171875,3.27
16:49:06.187500,2.57
16:49:06.203125,1.82
16:49:06.218750,1.19
16:49:06.234375,0.83
16:49:06.250000,0.75
16:49:06.265625,0.88
16:49:06.281250,1.04
16:49:06.296875,1.08
16:49:06.312500,0.95
16:49:06.328125,0.69
16:49:06.343750,0.41
16:49:06.359375,0.22
16:49:06.375000,0.20
16:49:06.390625,0.39
16:49:06.406250,0.77
16:49:06.421875,1.21
16:49:06.437500,1.56
16:49:06.453125,1.59
16:49:06.468750,1.14
16:49:06.484375,0.18
16:49:06.500000,-1.13
16:49:06.515625,-2.49
16:49:06.531250,-3.60
16:49:06.546875,-4.28
16:49:06.562500,-4.54
16:49:06.578125,-4.57
16:49:06.593750,-4.60
16:49:06.609375,-4.81
16:49:06.625000,-5.23
16:49:06.640625,-5.74
16:49:06.656250,-6.18
16:49:06.671875,-6.38
16:49:06.687500,-6.25
16:49:06.703125,-5.74
16:49:06.718750,-4.83
16:49:06.734375,-3.54
16:49:06.750000,-1.93
16:49:06.765625,-0.15
16:49:06.781250,1.61
16:49:06.796875,3.09
16:49:06.812500,4.09
16:49:06.828125,4.55
16:49:06.843750,4.57
16:49:06.859375,4.33
16:49:06.875000,4.02
16:49:06.890625,3.77
16:49:06.906250,3.63
16:49:06.921875,3.52
16:49:06.937500,3.43
16:49:06.953125,3.30
16:49:06.968750,3.13
16:49:06.984375,2.93
16:49:07,2.67
16:49:07.015625,2.39
16:49:07.031250,2.10
16:49:07.046875,1.88
16:49:07.062500,1.82
16:49:07.078125,1.91
16:49:07.093750,2.10
16:49:07.109375,2.24
16:49:07.125000,2.18
16:49:07.140625,1.85
16:49:07.156250,1.32
16:49:07.171875,0.75
16:49:07.187500,0.35
16:49:07.203125,0.21
16:49:07.218750,0.32
16:49:07.234375,0.52
16:49:07.250000,0.64
16:49:07.265625,0.50
16:49:07.281250,0.09
16:49:07.296875,-0.56
16:49:07.312500,-1.35
16:49:07.328125,-2.16
16:49:07.343750,-2.91
16:49:07.359375,-3.55
16:49:07.375000,-4.09
16:49:07.390625,-4.57
16:49:07.406250,-5.06
16:49:07.421875,-5.63
16:49:07.437500,-6.31
16:49:07.453125,-6.98
16:49:07.468750,-7.44
16:49:07.484375,-7.42
16:49:07.500000,-6.72
16:49:07.515625,-5.28
16:49:07.531250,-3.24
16:49:07.546875,-0.90
16:49:07.562500,1.34
16:49:07.578125,3.16
16:49:07.593750,4.41
16:49:07.609375,5.09
16:49:07.625000,5.36
16:49:07.640625,5.43
16:49:07.656250,5.49
16:49:07.671875,5.64
16:49:07.687500,5.88
16:49:07.703125,6.19
16:49:07.718750,6.47
16:49:07.734375,6.66
16:49:07.750000,6.71
16:49:07.765625,6.60
16:49:07.781250,6.37
16:49:07.796875,6.07
16:49:07.812500,5.74
16:49:07.828125,5.39
16:49:07.843750,4.98
16:49:07.859375,4.49
16:49:07.875000,3.94
16:49:07.890625,3.42
16:49:07.906250,2.99
16:49:07.921875,2.65
16:49:07.937500,2.29
16:49:07.953125,1.76
16:49:07.968750,0.99
16:49:07.984375,0.05
16:49:08,-0.85
16:49:08.015625,-1.46
16:49:08.031250,-1.72
16:49:08.046875,-1.72
16:49:08.062500,-1.74
16:49:08.078125,-2.04
16:49:08.093750,-2.74
16:49:08.109375,-3.74
16:49:08.125000,-4.84
16:49:08.140625,-5.83
16:49:08.156250,-6.66
16:49:08.171875,-7.39
16:49:08.187500,-8.14
16:49:08.203125,-8.92
16:49:08.218750,-9.60
16:49:08.234375,-9.93
16:49:08.250000,-9.64
16:49:08.265625,-8.65
16:49:08.281250,-7.06
16:49:08.296875,-5.13
16:49:08.312500,-3.18
16:49:08.328125,-1.41
16:49:08.343750,0.13
16:49:08.359375,1.51
16:49:08.375000,2.75
16:49:08.390625,3.84
16:49:08.406250,4.66
16:49:08.421875,5.07
16:49:08.437500,5.04
16:49:08.453125,4.71
16:49:08.468750,4.32
16:49:08.484375,4.09
16:49:08.500000,4.13
16:49:08.515625,4.32
16:49:08.531250,4.49
16:49:08.546875,4.40
16:49:08.562500,4.02
16:49:08.578125,3.43
16:49:08.593750,2.86
16:49:08.609375,2.46
16:49:08.625000,2.31
16:49:08.640625,2.32
16:49:08.656250,2.29
16:49:08.671875,2.04
16:49:08.687500,1.49
16:49:08.703125,0.68
16:49:08.718750,-0.22
16:49:08.734375,-1.05
16:49:08.750000,-1.68
16:49:08.765625,-2.12
16:49:08.781250,-2.44
16:49:08.796875,-2.79
16:49:08.812500,-3.27
16:49:08.828125,-3.93
16:49:08.843750,-4.75
16:49:08.859375,-5.68
16:49:08.875000,-6.67
16:49:08.890625,-7.70
16:49:08.906250,-8.76
16:49:08.921875,-9.85
16:49:08.937500,-10.89
16:49:08.953125,-11.76
16:49:08.968750,-12.27
16:49:08.984375,-12.24
16:49:09,-11.52
16:49:09.015625,-10.05
16:49:09.031250,-7.91
16:49:09.046875,-5.30
16:49:09.062500,-2.54
16:49:09.078125,0.11
16:49:09.093750,2.39
16:49:09.109375,4.20
16:49:09.125000,5.50
16:49:09.140625,6.33
16:49:09.156250,6.76
16:49:09.171875,6.85
16:49:09.187500,6.69
16:49:09.203125,6.40
16:49:09.218750,6.09
16:49:09.234375,5.88
16:49:09.250000,5.81
16:49:09.265625,5.85
16:49:09.281250,5.96
16:49:09.296875,6.03
16:49:09.312500,5.98
16:49:09.328125,5.75
16:49:09.343750,5.27
16:49:09.359375,4.51
16:49:09.375000,3.45
16:49:09.390625,2.18
16:49:09.406250,0.80
16:49:09.421875,-0.56
16:49:09.437500,-1.79
16:49:09.453125,-2.81
16:49:09.468750,-3.60
16:49:09.484375,-4.16
16:49:09.500000,-4.53
16:49:09.515625,-4.75
16:49:09.531250,-4.95
16:49:09.546875,-5.26
16:49:09.562500,-5.82
16:49:09.578125,-6.74
16:49:09.593750,-7.97
16:49:09.609375,-9.36
16:49:09.625000,-10.69
16:49:09.640625,-11.74
16:49:09.656250,-12.36
16:49:09.671875,-12.50
16:49:09.687500,-12.19
16:49:09.703125,-11.45
16:49:09.718750,-10.29
16:49:09.734375,-8.68
16:49:09.750000,-6.61
16:49:09.765625,-4.14
16:49:09.781250,-1.40
16:49:09.796875,1.36
16:49:09.812500,3.85
16:49:09.828125,5.82
16:49:09.843750,7.10
16:49:09.859375,7.75
16:49:09.875000,8.00
16:49:09.890625,8.13
16:49:09.906250,8.41
16:49:09.921875,8.90
16:49:09.937500,9.46
16:49:09.953125,9.80
16:49:09.968750,9.69
16:49:09.984375,9.01
16:49:10,7.90
16:49:10.015625,6.61
16:49:10.031250,5.43
16:49:10.046875,4.59
16:49:10.062500,4.13
16:49:10.078125,4.02
16:49:10.093750,4.09
16:49:10.109375,4.22
16:49:10.125000,4.23
16:49:10.140625,4.01
16:49:10.156250,3.51
16:49:10.171875,2.66
16:49:10.187500,1.45
16:49:10.203125,-0.08
16:49:10.218750,-1.87
16:49:10.234375,-3.89
16:49:10.250000,-6.11
16:49:10.265625,-8.50
16:49:10.281250,-11.08
16:49:10.296875,-13.78
16:49:10.312500,-16.53
16:49:10.328125,-19.12
16:49:10.343750,-21.31
16:49:10.359375,-22.81
16:49:10.375000,-23.40
16:49:10.390625,-22.94
16:49:10.406250,-21.43
16:49:10.421875,-18.98
16:49:10.437500,-15.83
16:49:10.453125,-12.23
16:49:10.468750,-8.48
16:49:10.484375,-4.84
16:49:10.500000,-1.47
16:49:10.515625,1.53
16:49:10.531250,4.20
16:49:10.546875,6.61
16:49:10.562500,8.83
16:49:10.578125,10.91
16:49:10.593750,12.88
16:49:10.609375,14.72
16:49:10.625000,16.35
16:49:10.640625,17.62
16:49:10.656250,18.29
16:49:10.671875,18.20
16:49:10.687500,17.26
16:49:10.703125,15.62
16:49:10.718750,13.61
16:49:10.734375,11.62
16:49:10.750000,9.95
16:49:10.765625,8.64
16:49:10.781250,7.52
16:49:10.796875,6.31
16:49:10.812500,4.79
16:49:10.828125,2.99
16:49:10.843750,1.08
16:49:10.859375,-0.67
16:49:10.875000,-2.09
16:49:10.890625,-3.16
16:49:10.906250,-4.02
16:49:10.921875,-4.85
16:49:10.937500,-5.82
16:49:10.953125,-7.03
16:49:10.968750,-8.56
16:49:10.984375,-10.50
16:49:11,-12.89
16:49:11.015625,-15.68
16:49:11.031250,-18.65
16:49:11.046875,-21.37
16:49:11.062500,-23.33
16:49:11.078125,-24.00
16:49:11.093750,-23.11
16:49:11.109375,-20.67
16:49:11.125000,-17.00
16:49:11.140625,-12.56
16:49:11.156250,-7.86
16:49:11.171875,-3.24
16:49:11.187500,1.13
16:49:11.203125,5.23
16:49:11.218750,9.09
16:49:11.234375,12.69
16:49:11.250000,15.88
16:49:11.265625,18.41
16:49:11.281250,20.03
16:49:11.296875,20.61
16:49:11.312500,20.25
16:49:11.328125,19.28
16:49:11.343750,18.06
16:49:11.359375,16.94
16:49:11.375000,16.04
16:49:11.390625,15.34
16:49:11.406250,14.68
16:49:11.421875,13.94
16:49:11.437500,13.14
16:49:11.453125,12.36
16:49:11.468750,11.69
16:49:11.484375,11.12
16:49:11.500000,10.49
16:49:11.515625,9.52
16:49:11.531250,8.02
16:49:11.546875,5.96
16:49:11.562500,3.51
16:49:11.578125,1.00
16:49:11.593750,-1.27
16:49:11.609375,-3.17
16:49:11.625000,-4.81
16:49:11.640625,-6.46
16:49:11.656250,-8.45
16:49:11.671875,-10.92
16:49:11.687500,-13.83
16:49:11.703125,-16.91
16:49:11.718750,-19.84
16:49:11.734375,-22.31
16:49:11.750000,-24.07
16:49:11.765625,-24.95
16:49:11.781250,-24.78
16:49:11.796875,-23.38
16:49:11.812500,-20.69
16:49:11.828125,-16.77
16:49:11.843750,-11.85
16:49:11.859375,-6.34
16:49:11.875000,-0.66
16:49:11.890625,4.80
16:49:11.906250,9.79
16:49:11.921875,14.11
16:49:11.937500,17.63
16:49:11.953125,20.24
16:49:11.968750,21.91
16:49:11.984375,22.72
16:49:12,22.86
16:49:12.015625,22.61
16:49:12.031250,22.20
16:49:12.046875,21.72
16:49:12.062500,21.09
16:49:12.078125,20.16
16:49:12.093750,18.83
16:49:12.109375,17.16
16:49:12.125000,15.36
16:49:12.140625,13.71
16:49:12.156250,12.40
16:49:12.171875,11.54
16:49:12.187500,11.03
16:49:12.203125,10.68
16:49:12.218750,10.24
16:49:12.234375,9.47
16:49:12.250000,8.20
16:49:12.265625,6.32
16:49:12.281250,3.85
16:49:12.296875,0.92
16:49:12.312500,-2.26
16:49:12.328125,-5.44
16:49:12.343750,-8.48
16:49:12.359375,-11.34
16:49:12.375000,-14.12
16:49:12.390625,-17.05
16:49:12.406250,-20.30
16:49:12.421875,-23.91
16:49:12.437500,-27.66
16:49:12.453125,-31.09
16:49:12.468750,-33.51
16:49:12.484375,-34.30
16:49:12.500000,-33.01
16:49:12.515625,-29.57
16:49:12.531250,-24.30
16:49:12.546875,-17.75
16:49:12.562500,-10.55
16:49:12.578125,-3.24
16:49:12.593750,3.76
16:49:12.609375,10.15
16:49:12.625000,15.74
16:49:12.640625,20.38
16:49:12.656250,24.00
16:49:12.671875,26.64
16:49:12.687500,28.39
16:49:12.703125,29.40
16:49:12.718750,29.78
16:49:12.734375,29.62
16:49:12.750000,28.99
16:49:12.765625,27.99
16:49:12.781250,26.79
16:49:12.796875,25.48
16:49:12.812500,24.12
16:49:12.828125,22.72
16:49:12.843750,21.26
16:49:12.859375,19.74
16:49:12.875000,18.27
16:49:12.890625,16.92
16:49:12.906250,15.72
16:49:12.921875,14.55
16:49:12.937500,13.22
16:49:12.953125,11.59
16:49:12.968750,9.58
16:49:12.984375,7.26
16:49:13,4.73
16:49:13.015625,2.07
16:49:13.031250,-0.68
16:49:13.046875,-3.56
16:49:13.062500,-6.58
16:49:13.078125,-9.76
16:49:13.093750,-13.07
16:49:13.109375,-16.56
16:49:13.125000,-20.29
16:49:13.140625,-24.32
16:49:13.156250,-28.56
16:49:13.171875,-32.74
16:49:13.187500,-36.37
16:49:13.203125,-38.80
16:49:13.218750,-39.43
16:49:13.234375,-37.82
16:49:13.250000,-33.90
16:49:13.265625,-27.93
16:49:13.281250,-20.49
16:49:13.296875,-12.27
16:49:13.312500,-4.01
16:49:13.328125,3.76
16:49:13.343750,10.70
16:49:13.359375,16.67
16:49:13.375000,21.68
16:49:13.390625,25.74
16:49:13.406250,28.88
16:49:13.421875,31.09
16:49:13.437500,32.37
16:49:13.453125,32.74
16:49:13.468750,32.31
16:49:13.484375,31.25
16:49:13.500000,29.78
16:49:13.515625,28.14
16:49:13.531250,26.52
16:49:13.546875,25.04
16:49:13.562500,23.71
16:49:13.578125,22.49
16:49:13.593750,21.29
16:49:13.609375,20.01
16:49:13.625000,18.60
16:49:13.640625,17.02
16:49:13.656250,15.27
16:49:13.671875,13.36
16:49:13.687500,11.27
16:49:13.703125,8.99
16:49:13.718750,6.57
16:49:13.734375,4.03
16:49:13.750000,1.46
16:49:13.765625,-1.07
16:49:13.781250,-3.54
16:49:13.796875,-5.97
16:49:13.812500,-8.50
16:49:13.828125,-11.29
16:49:13.843750,-14.50
16:49:13.859375,-18.21
16:49:13.875000,-22.33
16:49:13.890625,-26.67
16:49:13.906250,-30.92
16:49:13.921875,-34.71
16:49:13.937500,-37.65
16:49:13.953125,-39.25
16:49:13.968750,-39.09
16:49:13.984375,-36.83
16:49:14,-32.40
16:49:14.015625,-26.02
16:49:14.031250,-18.28
16:49:14.046875,-9.91
16:49:14.062500,-1.66
16:49:14.078125,5.92
16:49:14.093750,12.55
16:49:14.109375,18.19
16:49:14.125000,22.88
16:49:14.140625,26.62
16:49:14.156250,29.38
16:49:14.171875,31.11
16:49:14.187500,31.86
16:49:14.203125,31.82
16:49:14.218750,31.28
16:49:14.234375,30.53
16:49:14.250000,29.75
16:49:14.265625,28.95
16:49:14.281250,27.99
16:49:14.296875,26.74
16:49:14.312500,25.12
16:49:14.328125,23.22
16:49:14.343750,21.25
16:49:14.359375,19.37
16:49:14.375000,17.68
16:49:14.390625,16.10
16:49:14.406250,14.47
16:49:14.421875,12.59
16:49:14.437500,10.32
16:49:14.453125,7.66
16:49:14.468750,4.66
16:49:14.484375,1.49
16:49:14.500000,-1.69
16:49:14.515625,-4.75
16:49:14.531250,-7.60
16:49:14.546875,-10.24
16:49:14.562500,-12.76
16:49:14.578125,-15.32
16:49:14.593750,-18.09
16:49:14.609375,-21.23
16:49:14.625000,-24.85
16:49:14.640625,-29.03
16:49:14.656250,-33.72
16:49:14.671875,-38.77
16:49:14.687500,-43.81
16:49:14.703125,-48.26
16:49:14.718750,-51.34
16:49:14.734375,-52.30
16:49:14.750000,-50.58
16:49:14.765625,-46.05
16:49:14.781250,-39.00
16:49:14.796875,-30.10
16:49:14.812500,-20.15
16:49:14.828125,-9.92
16:49:14.843750,0.03
16:49:14.859375,9.31
16:49:14.875000,17.66
16:49:14.890625,24.93
16:49:14.906250,30.98
16:49:14.921875,35.70
16:49:14.937500,39.05
16:49:14.953125,41.05
16:49:14.968750,41.82
16:49:14.984375,41.56
16:49:15,40.51
16:49:15.015625,38.95
16:49:15.031250,37.13
16:49:15.046875,35.31
16:49:15.062500,33.63
16:49:15.078125,32.12
16:49:15.093750,30.75
16:49:15.109375,29.45
16:49:15.125000,28.10
16:49:15.140625,26.61
16:49:15.156250,24.89
16:49:15.171875,22.86
16:49:15.187500,20.53
16:49:15.203125,17.95
16:49:15.218750,15.20
16:49:15.234375,12.38
16:49:15.250000,9.51
16:49:15.265625,6.56
16:49:15.281250,3.45
16:49:15.296875,0.12
16:49:15.312500,-3.43
16:49:15.328125,-7.13
16:49:15.343750,-10.90
16:49:15.359375,-14.68
16:49:15.375000,-18.49
16:49:15.390625,-22.45
16:49:15.406250,-26.71
16:49:15.421875,-31.40
16:49:15.437500,-36.50
16:49:15.453125,-41.79
16:49:15.468750,-46.77
16:49:15.484375,-50.80
16:49:15.500000,-53.14
16:49:15.515625,-53.18
16:49:15.531250,-50.60
16:49:15.546875,-45.51
16:49:15.562500,-38.32
16:49:15.578125,-29.68
16:49:15.593750,-20.28
16:49:15.609375,-10.71
16:49:15.625000,-1.42
16:49:15.640625,7.27
16:49:15.656250,15.12
16:49:15.671875,21.99
16:49:15.687500,27.73
16:49:15.703125,32.29
16:49:15.718750,35.64
16:49:15.734375,37.84
16:49:15.750000,38.99
16:49:15.765625,39.21
16:49:15.781250,38.64
16:49:15.796875,37.41
16:49:15.812500,35.62
16:49:15.828125,33.41
16:49:15.843750,30.93
16:49:15.859375,28.41
16:49:15.875000,26.09
16:49:15.890625,24.12
16:49:15.906250,22.50
16:49:15.921875,21.09
16:49:15.937500,19.69
16:49:15.953125,18.08
16:49:15.968750,16.19
16:49:15.984375,14.00
16:49:16,11.56
16:49:16.015625,8.88
16:49:16.031250,5.88
16:49:16.046875,2.37
16:49:16.062500,-1.77
16:49:16.078125,-6.55
16:49:16.093750,-11.78
16:49:16.109375,-17.07
16:49:16.125000,-21.96
16:49:16.140625,-26.05
16:49:16.156250,-29.20
16:49:16.171875,-31.55
16:49:16.187500,-33.50
16:49:16.203125,-35.58
16:49:16.218750,-38.25
16:49:16.234375,-41.79
16:49:16.250000,-46.16
16:49:16.265625,-51.06
16:49:16.281250,-55.95
16:49:16.296875,-60.14
16:49:16.312500,-62.89
16:49:16.328125,-63.62
16:49:16.343750,-61.99
16:49:16.359375,-58.04
16:49:16.375000,-52.15
16:49:16.390625,-44.88
16:49:16.406250,-36.81
16:49:16.421875,-28.32
16:49:16.437500,-19.51
16:49:16.453125,-10.32
16:49:16.468750,-0.65
16:49:16.484375,9.39
16:49:16.500000,19.39
16:49:16.515625,28.66
16:49:16.531250,36.47
16:49:16.546875,42.20
16:49:16.562500,45.60
16:49:16.578125,46.83
16:49:16.593750,46.31
16:49:16.609375,44.64
16:49:16.625000,42.35
16:49:16.640625,39.95
16:49:16.656250,37.83
16:49:16.671875,36.37
16:49:16.687500,35.85
16:49:16.703125,36.42
16:49:16.718750,37.93
16:49:16.734375,39.97
16:49:16.750000,41.90
16:49:16.765625,43.00
16:49:16.781250,42.72
16:49:16.796875,40.78
16:49:16.812500,37.27
16:49:16.828125,32.49
16:49:16.843750,26.93
16:49:16.859375,21.06
16:49:16.875000,15.29
16:49:16.890625,9.95
16:49:16.906250,5.24
16:49:16.921875,1.18
16:49:16.937500,-2.29
16:49:16.953125,-5.39
16:49:16.968750,-8.37
16:49:16.984375,-11.45
16:49:17,-14.81
16:49:17.015625,-18.53
16:49:17.031250,-22.65
16:49:17.046875,-27.16
16:49:17.062500,-32.00
16:49:17.078125,-37.00
16:49:17.093750,-41.81
16:49:17.109375,-45.84
16:49:17.125000,-48.33
16:49:17.140625,-48.50
16:49:17.156250,-45.80
16:49:17.171875,-40.07
16:49:17.187500,-31.62
16:49:17.203125,-21.13
16:49:17.218750,-9.52
16:49:17.234375,2.26
16:49:17.250000,13.38
16:49:17.265625,23.18
16:49:17.281250,31.23
16:49:17.296875,37.28
16:49:17.312500,41.26
16:49:17.328125,43.30
16:49:17.343750,43.68
16:49:17.359375,42.78
16:49:17.375000,41.03
16:49:17.390625,38.79
16:49:17.406250,36.38
16:49:17.421875,34.03
16:49:17.437500,31.91
16:49:17.453125,30.09
16:49:17.468750,28.53
16:49:17.484375,27.09
16:49:17.500000,25.54
16:49:17.515625,23.68
16:49:17.531250,21.41
16:49:17.546875,18.75
16:49:17.562500,15.81
16:49:17.578125,12.73
16:49:17.593750,9.63
16:49:17.609375,6.58
16:49:17.625000,3.61
16:49:17.640625,0.76
16:49:17.656250,-1.94
16:49:17.671875,-4.46
16:49:17.687500,-6.81
16:49:17.703125,-9.08
16:49:17.718750,-11.38
16:49:17.734375,-13.85
16:49:17.750000,-16.63
16:49:17.765625,-19.84
16:49:17.781250,-23.49
16:49:17.796875,-27.52
16:49:17.812500,-31.85
16:49:17.828125,-36.33
16:49:17.843750,-40.77
16:49:17.859375,-44.91
16:49:17.875000,-48.35
16:49:17.890625,-50.59
16:49:17.906250,-51.13
16:49:17.921875,-49.58
16:49:17.937500,-45.86
16:49:17.953125,-40.16
16:49:17.968750,-32.97
16:49:17.984375,-24.77
16:49:18,-16.01
16:49:18.015625,-6.90
16:49:18.031250,2.36
16:49:18.046875,11.54
16:49:18.062500,20.21
16:49:18.078125,27.78
16:49:18.093750,33.63
16:49:18.109375,37.32
16:49:18.125000,38.80
16:49:18.140625,38.35
16:49:18.156250,36.57
16:49:18.171875,34.17
16:49:18.187500,31.79
16:49:18.203125,29.87
16:49:18.218750,28.60
16:49:18.234375,27.91
16:49:18.250000,27.52
16:49:18.265625,26.99
16:49:18.281250,25.87
16:49:18.296875,23.80
16:49:18.312500,20.65
16:49:18.328125,16.57
16:49:18.343750,12.02
16:49:18.359375,7.64
16:49:18.375000,4.06
16:49:18.390625,1.77
16:49:18.406250,0.93
16:49:18.421875,1.34
16:49:18.437500,2.49
16:49:18.453125,3.71
16:49:18.468750,4.24
16:49:18.484375,3.40
16:49:18.500000,0.71
16:49:18.515625,-4.09
16:49:18.531250,-10.98
16:49:18.546875,-19.66
16:49:18.562500,-29.60
16:49:18.578125,-40.00
16:49:18.593750,-49.94
16:49:18.609375,-58.40
16:49:18.625000,-64.38
16:49:18.640625,-67.10
16:49:18.656250,-66.11
16:49:18.671875,-61.45
16:49:18.687500,-53.57
16:49:18.703125,-43.27
16:49:18.718750,-31.53
16:49:18.734375,-19.31
16:49:18.750000,-7.44
16:49:18.765625,3.46
16:49:18.781250,12.99
16:49:18.796875,20.96
16:49:18.812500,27.32
16:49:18.828125,32.15
16:49:18.843750,35.54
16:49:18.859375,37.62
16:49:18.875000,38.50
16:49:18.890625,38.31
16:49:18.906250,37.23
16:49:18.921875,35.50
16:49:18.937500,33.40
16:49:18.953125,31.21
16:49:18.968750,29.17
16:49:18.984375,27.41
16:49:19,25.95
16:49:19.015625,24.72
16:49:19.031250,23.55
16:49:19.046875,22.22
16:49:19.062500,20.56
16:49:19.078125,18.45
16:49:19.093750,15.88
16:49:19.109375,12.97
16:49:19.125000,9.81
16:49:19.140625,6.52
16:49:19.156250,3.14
16:49:19.171875,-0.31
16:49:19.187500,-3.81
16:49:19.203125,-7.29
16:49:19.218750,-10.68
16:49:19.234375,-13.96
16:49:19.250000,-17.21
16:49:19.265625,-20.66
16:49:19.281250,-24.60
16:49:19.296875,-29.32
16:49:19.312500,-34.87
16:49:19.328125,-41.01
16:49:19.343750,-47.15
16:49:19.359375,-52.49
16:49:19.375000,-56.13
16:49:19.390625,-57.41
16:49:19.406250,-55.93
16:49:19.421875,-51.57
16:49:19.437500,-44.53
16:49:19.453125,-35.15
16:49:19.468750,-23.97
16:49:19.484375,-11.67
16:49:19.500000,0.95
16:49:19.515625,13.03
16:49:19.531250,23.79
16:49:19.546875,32.66
16:49:19.562500,39.30
16:49:19.578125,43.67
16:49:19.593750,45.95
16:49:19.609375,46.50
16:49:19.625000,45.76
16:49:19.640625,44.17
16:49:19.656250,42.17
16:49:19.671875,40.02
16:49:19.687500,37.84
16:49:19.703125,35.67
16:49:19.718750,33.47
16:49:19.734375,31.25
16:49:19.750000,29.01
16:49:19.765625,26.78
16:49:19.781250,24.54
16:49:19.796875,22.27
16:49:19.812500,19.95
16:49:19.828125,17.56
16:49:19.843750,15.10
16:49:19.859375,12.54
16:49:19.875000,9.82
16:49:19.890625,6.84
16:49:19.906250,3.50
16:49:19.921875,-0.25
16:49:19.937500,-4.37
16:49:19.953125,-8.77
16:49:19.968750,-13.38
16:49:19.984375,-18.14
16:49:20,-23.12
16:49:20.015625,-28.44
16:49:20.031250,-34.25
16:49:20.046875,-40.64
16:49:20.062500,-47.52
16:49:20.078125,-54.50
16:49:20.093750,-60.88
16:49:20.109375,-65.73
16:49:20.125000,-68.02
16:49:20.140625,-66.98
16:49:20.156250,-62.28
16:49:20.171875,-54.21
16:49:20.187500,-43.58
16:49:20.203125,-31.54
16:49:20.218750,-19.28
16:49:20.234375,-7.75
16:49:20.250000,2.45
16:49:20.265625,11.08
16:49:20.281250,18.16
16:49:20.296875,23.81
16:49:20.312500,28.18
16:49:20.328125,31.40
16:49:20.343750,33.64
16:49:20.359375,35.07
16:49:20.375000,35.94
16:49:20.390625,36.49
16:49:20.406250,36.95
16:49:20.421875,37.47
16:49:20.437500,38.02
16:49:20.453125,38.46
16:49:20.468750,38.54
16:49:20.484375,38.06
16:49:20.500000,36.88
16:49:20.515625,34.99
16:49:20.531250,32.55
16:49:20.546875,29.70
16:49:20.562500,26.60
16:49:20.578125,23.30
16:49:20.593750,19.74
16:49:20.609375,15.82
16:49:20.625000,11.48
16:49:20.640625,6.77
16:49:20.656250,1.84
16:49:20.671875,-3.08
16:49:20.687500,-7.76
16:49:20.703125,-12.07
16:49:20.718750,-16.04
16:49:20.734375,-19.91
16:49:20.750000,-24.04
16:49:20.765625,-28.76
16:49:20.781250,-34.35
16:49:20.796875,-40.89
16:49:20.812500,-48.21
16:49:20.828125,-55.84
16:49:20.843750,-63.04
16:49:20.859375,-68.90
16:49:20.875000,-72.53
16:49:20.890625,-73.27
16:49:20.906250,-70.88
16:49:20.921875,-65.54
16:49:20.937500,-57.77
16:49:20.953125,-48.13
16:49:20.968750,-37.18
16:49:20.984375,-25.26
16:49:21,-12.67
16:49:21.015625,0.24
16:49:21.031250,12.95
16:49:21.046875,24.79
16:49:21.062500,35.06
16:49:21.078125,43.29
16:49:21.093750,49.28
16:49:21.109375,53.16
16:49:21.125000,55.34
16:49:21.140625,56.31
16:49:21.156250,56.51
16:49:21.171875,56.23
16:49:21.187500,55.57
16:49:21.203125,54.50
16:49:21.218750,52.97
16:49:21.234375,50.97
16:49:21.250000,48.59
16:49:21.265625,45.97
16:49:21.281250,43.23
16:49:21.296875,40.47
16:49:21.312500,37.68
16:49:21.328125,34.81
16:49:21.343750,31.83
16:49:21.359375,28.66
16:49:21.375000,25.23
16:49:21.390625,21.43
16:49:21.406250,17.15
16:49:21.421875,12.29
16:49:21.437500,6.88
16:49:21.453125,1.11
16:49:21.468750,-4.72
16:49:21.484375,-10.34
16:49:21.500000,-15.59
16:49:21.515625,-20.56
16:49:21.531250,-25.47
16:49:21.546875,-30.68
16:49:21.562500,-36.52
16:49:21.578125,-43.20
16:49:21.593750,-50.70
16:49:21.609375,-58.71
16:49:21.625000,-66.58
16:49:21.640625,-73.36
16:49:21.656250,-78.03
16:49:21.671875,-79.75
16:49:21.687500,-78.07
16:49:21.703125,-73.05
16:49:21.718750,-65.16
16:49:21.734375,-55.07
16:49:21.750000,-43.44
16:49:21.765625,-30.77
16:49:21.781250,-17.49
16:49:21.796875,-4.07
16:49:21.812500,8.91
16:49:21.828125,20.74
16:49:21.843750,30.78
16:49:21.859375,38.58
16:49:21.875000,44.01
16:49:21.890625,47.28
16:49:21.906250,48.80
16:49:21.921875,49.03
16:49:21.937500,48.41
16:49:21.953125,47.27
16:49:21.968750,45.82
16:49:21.984375,44.17
16:49:22,42.38
16:49:22.015625,40.48
16:49:22.031250,38.46
16:49:22.046875,36.32
16:49:22.062500,34.04
16:49:22.078125,31.65
16:49:22.093750,29.18
16:49:22.109375,26.65
16:49:22.125000,24.01
16:49:22.140625,21.14
16:49:22.156250,17.89
16:49:22.171875,14.12
16:49:22.187500,9.80
16:49:22.203125,5.03
16:49:22.218750,-0.05
16:49:22.234375,-5.27
16:49:22.250000,-10.56
16:49:22.265625,-15.96
16:49:22.281250,-21.54
16:49:22.296875,-27.41
16:49:22.312500,-33.69
16:49:22.328125,-40.44
16:49:22.343750,-47.65
16:49:22.359375,-55.14
16:49:22.375000,-62.49
16:49:22.390625,-69.04
16:49:22.406250,-73.95
16:49:22.421875,-76.43
16:49:22.437500,-75.86
16:49:22.453125,-71.94
16:49:22.468750,-64.68
16:49:22.484375,-54.42
16:49:22.500000,-41.71
16:49:22.515625,-27.32
16:49:22.531250,-12.16
16:49:22.546875,2.79
16:49:22.562500,16.61
16:49:22.578125,28.59
16:49:22.593750,38.31
16:49:22.609375,45.67
16:49:22.625000,50.80
16:49:22.640625,53.96
16:49:22.656250,55.48
16:49:22.671875,55.66
16:49:22.687500,54.84
16:49:22.703125,53.32
16:49:22.718750,51.40
16:49:22.734375,49.31
16:49:22.750000,47.23
16:49:22.765625,45.24
16:49:22.781250,43.33
16:49:22.796875,41.40
16:49:22.812500,39.29
16:49:22.828125,36.85
16:49:22.843750,34.00
16:49:22.859375,30.72
16:49:22.875000,27.11
16:49:22.890625,23.27
16:49:22.906250,19.30
16:49:22.921875,15.22
16:49:22.937500,10.96
16:49:22.953125,6.37
16:49:22.968750,1.34
16:49:22.984375,-4.16
16:49:23,-10.04
16:49:23.015625,-16.13
16:49:23.031250,-22.28
16:49:23.046875,-28.50
16:49:23.062500,-34.98
16:49:23.078125,-42.01
16:49:23.093750,-49.90
16:49:23.109375,-58.64
16:49:23.125000,-67.84
16:49:23.140625,-76.72
16:49:23.156250,-84.26
16:49:23.171875,-89.44
16:49:23.187500,-91.47
16:49:23.203125,-89.84
16:49:23.218750,-84.39
16:49:23.234375,-75.27
16:49:23.250000,-62.98
16:49:23.265625,-48.40
16:49:23.281250,-32.66
16:49:23.296875,-16.97
16:49:23.312500,-2.22
16:49:23.328125,11.18
16:49:23.343750,23.30
16:49:23.359375,34.45
16:49:23.375000,44.75
16:49:23.390625,53.93
16:49:23.406250,61.35
16:49:23.421875,66.40
16:49:23.437500,68.82
16:49:23.453125,68.92
16:49:23.468750,67.47
16:49:23.484375,65.34
16:49:23.500000,63.14
16:49:23.515625,61.03
16:49:23.531250,58.86
16:49:23.546875,56.35
16:49:23.562500,53.38
16:49:23.578125,50.05
16:49:23.593750,46.58
16:49:23.609375,43.17
16:49:23.625000,39.85
16:49:23.640625,36.51
16:49:23.656250,32.99
16:49:23.671875,29.13
16:49:23.687500,24.88
16:49:23.703125,20.33
16:49:23.718750,15.58
16:49:23.734375,10.72
16:49:23.750000,5.77
16:49:23.765625,0.67
16:49:23.781250,-4.63
16:49:23.796875,-10.19
16:49:23.812500,-15.98
16:49:23.828125,-21.94
16:49:23.843750,-28.02
16:49:23.859375,-34.19
16:49:23.875000,-40.51
16:49:23.890625,-47.09
16:49:23.906250,-54.01
16:49:23.921875,-61.13
16:49:23.937500,-68.06
16:49:23.953125,-74.06
16:49:23.968750,-78.20
16:49:23.984375,-79.52
16:49:24,-77.28
16:49:24.015625,-71.15
16:49:24.031250,-61.29
16:49:24.046875,-48.33
16:49:24.062500,-33.21
16:49:24.078125,-16.95
16:49:24.093750,-0.53
16:49:24.109375,15.24
16:49:24.125000,29.71
16:49:24.140625,42.42
16:49:24.156250,53.06
16:49:24.171875,61.49
16:49:24.187500,67.78
16:49:24.203125,72.12
16:49:24.218750,74.80
16:49:24.234375,76.11
16:49:24.250000,76.31
16:49:24.265625,75.65
16:49:24.281250,74.39
16:49:24.296875,72.86
16:49:24.312500,71.40
16:49:24.328125,70.33
16:49:24.343750,69.83
16:49:24.359375,69.87
16:49:24.375000,70.20
16:49:24.390625,70.43
16:49:24.406250,70.11
16:49:24.421875,68.87
16:49:24.437500,66.49
16:49:24.453125,63.00
16:49:24.468750,58.62
16:49:24.484375,53.63
16:49:24.500000,48.34
16:49:24.515625,42.87
16:49:24.531250,37.20
16:49:24.546875,31.18
16:49:24.562500,24.66
16:49:24.578125,17.59
16:49:24.593750,10.10
16:49:24.609375,2.44
16:49:24.625000,-5.14
16:49:24.640625,-12.56
16:49:24.656250,-19.96
16:49:24.671875,-27.62
16:49:24.687500,-35.86
16:49:24.703125,-44.80
16:49:24.718750,-54.25
16:49:24.734375,-63.62
16:49:24.750000,-72.02
16:49:24.765625,-78.49
16:49:24.781250,-82.17
16:49:24.796875,-82.54
16:49:24.812500,-79.44
16:49:24.828125,-73.11
16:49:24.843750,-64.07
16:49:24.859375,-52.99
16:49:24.875000,-40.58
16:49:24.890625,-27.52
16:49:24.906250,-14.39
16:49:24.921875,-1.71
16:49:24.937500,10.08
16:49:24.953125,20.49
16:49:24.968750,29.09
16:49:24.984375,35.49
16:49:25,39.52
16:49:25.015625,41.30
16:49:25.031250,41.20
16:49:25.046875,39.80
16:49:25.062500,37.66
16:49:25.078125,35.25
16:49:25.093750,32.80
16:49:25.109375,30.40
16:49:25.125000,28.07
16:49:25.140625,25.86
16:49:25.156250,23.84
16:49:25.171875,22.04
16:49:25.187500,20.40
16:49:25.203125,18.74
16:49:25.218750,16.84
16:49:25.234375,14.51
16:49:25.250000,11.69
16:49:25.265625,8.38
16:49:25.281250,4.68
16:49:25.296875,0.67
16:49:25.312500,-3.61
16:49:25.328125,-8.13
16:49:25.343750,-12.80
16:49:25.359375,-17.48
16:49:25.375000,-22.01
16:49:25.390625,-26.26
16:49:25.406250,-30.20
16:49:25.421875,-33.93
16:49:25.437500,-37.58
16:49:25.453125,-41.29
16:49:25.468750,-45.13
16:49:25.484375,-49.06
16:49:25.500000,-52.95
16:49:25.515625,-56.58
16:49:25.531250,-59.58
16:49:25.546875,-61.43
16:49:25.562500,-61.42
16:49:25.578125,-58.77
16:49:25.593750,-52.97
16:49:25.609375,-43.96
16:49:25.625000,-32.28
16:49:25.640625,-18.98
16:49:25.656250,-5.27
16:49:25.671875,7.80
16:49:25.687500,19.60
16:49:25.703125,30.01
16:49:25.718750,39.21
16:49:25.734375,47.45
16:49:25.750000,54.82
16:49:25.765625,61.22
16:49:25.781250,66.38
16:49:25.796875,70.04
16:49:25.812500,72.07
16:49:25.828125,72.50
16:49:25.843750,71.50
16:49:25.859375,69.33
16:49:25.875000,66.21
16:49:25.890625,62.35
16:49:25.906250,57.88
16:49:25.921875,52.97
16:49:25.937500,47.76
16:49:25.953125,42.37
16:49:25.968750,36.95
16:49:25.984375,31.49
16:49:26,26.03
16:49:26.015625,20.48
16:49:26.031250,14.87
16:49:26.046875,9.19
16:49:26.062500,3.48
16:49:26.078125,-2.18
16:49:26.093750,-7.71
16:49:26.109375,-12.95
16:49:26.125000,-17.73
16:49:26.140625,-21.87
16:49:26.156250,-25.31
16:49:26.171875,-28.14
16:49:26.187500,-30.58
16:49:26.203125,-33.02
16:49:26.218750,-35.88
16:49:26.234375,-39.63
16:49:26.250000,-44.73
16:49:26.265625,-51.54
16:49:26.281250,-60.05
16:49:26.296875,-69.80
16:49:26.312500,-79.71
16:49:26.328125,-88.29
16:49:26.343750,-94.02
16:49:26.359375,-95.84
16:49:26.375000,-93.47
16:49:26.390625,-87.47
16:49:26.406250,-78.93
16:49:26.421875,-69.05
16:49:26.437500,-58.79
16:49:26.453125,-48.77
16:49:26.468750,-39.33
16:49:26.484375,-30.73
16:49:26.500000,-23.29
16:49:26.515625,-17.36
16:49:26.531250,-13.22
16:49:26.546875,-10.94
16:49:26.562500,-10.35
16:49:26.578125,-11.08
16:49:26.593750,-12.63
16:49:26.609375,-14.53
16:49:26.625000,-16.41
16:49:26.640625,-18.10
16:49:26.656250,-19.56
16:49:26.671875,-20.84
16:49:26.687500,-21.90
16:49:26.703125,-22.57
16:49:26.718750,-22.53
16:49:26.734375,-21.42
16:49:26.750000,-19.04
16:49:26.765625,-15.43
16:49:26.781250,-10.91
16:49:26.796875,-5.83
16:49:26.812500,-0.50
16:49:26.828125,5.01
16:49:26.843750,10.72
16:49:26.859375,16.66
16:49:26.875000,22.69
16:49:26.890625,28.47
16:49:26.906250,33.51
16:49:26.921875,37.38
16:49:26.937500,39.82
16:49:26.953125,40.80
16:49:26.968750,40.45
16:49:26.984375,38.93
16:49:27,36.38
16:49:27.015625,32.87
16:49:27.031250,28.58
16:49:27.046875,23.76
16:49:27.062500,18.83
16:49:27.078125,14.28
16:49:27.093750,10.47
16:49:27.109375,7.49
16:49:27.125000,5.22
16:49:27.140625,3.35
16:49:27.156250,1.70
16:49:27.171875,0.40
16:49:27.187500,-0.11
16:49:27.203125,0.77
16:49:27.218750,3.46
16:49:27.234375,7.93
16:49:27.250000,13.64
16:49:27.265625,19.74
16:49:27.281250,25.37
16:49:27.296875,29.97
16:49:27.312500,33.40
16:49:27.328125,35.83
16:49:27.343750,37.49
16:49:27.359375,38.50
16:49:27.375000,38.78
16:49:27.390625,38.14
16:49:27.406250,36.43
16:49:27.421875,33.69
16:49:27.437500,30.14
16:49:27.453125,26.10
16:49:27.468750,21.94
16:49:27.484375,17.91
16:49:27.500000,14.18
16:49:27.515625,10.89
16:49:27.531250,8.12
16:49:27.546875,5.93
16:49:27.562500,4.30
16:49:27.578125,3.09
16:49:27.593750,2.07
16:49:27.609375,0.97
16:49:27.625000,-0.43
16:49:27.640625,-2.25
16:49:27.656250,-4.47
16:49:27.671875,-6.98
16:49:27.687500,-9.65
16:49:27.703125,-12.30
16:49:27.718750,-14.85
16:49:27.734375,-17.25
16:49:27.750000,-19.60
16:49:27.765625,-22.07
16:49:27.781250,-24.86
16:49:27.796875,-28.15
16:49:27.812500,-31.98
16:49:27.828125,-36.17
16:49:27.843750,-40.33
16:49:27.859375,-44.02
16:49:27.875000,-46.84
16:49:27.890625,-48.70
16:49:27.906250,-49.85
16:49:27.921875,-50.85
16:49:27.937500,-52.33
16:49:27.953125,-54.77
16:49:27.968750,-58.21
16:49:27.984375,-62.13
16:49:28,-65.57
16:49:28.015625,-67.43
16:49:28.031250,-66.78
16:49:28.046875,-63.17
16:49:28.062500,-56.77
16:49:28.078125,-48.22
16:49:28.093750,-38.42
16:49:28.109375,-28.20
16:49:28.125000,-18.17
16:49:28.140625,-8.65
16:49:28.156250,0.20
16:49:28.171875,8.31
16:49:28.187500,15.55
16:49:28.203125,21.72
16:49:28.218750,26.63
16:49:28.234375,30.14
16:49:28.250000,32.19
16:49:28.265625,32.86
16:49:28.281250,32.33
16:49:28.296875,30.90
16:49:28.312500,28.86
16:49:28.328125,26.55
16:49:28.343750,24.22
16:49:28.359375,22.07
16:49:28.375000,20.22
16:49:28.390625,18.70
16:49:28.406250,17.49
16:49:28.421875,16.47
16:49:28.437500,15.50
16:49:28.453125,14.42
16:49:28.468750,13.08
16:49:28.484375,11.39
16:49:28.500000,9.34
16:49:28.515625,6.98
16:49:28.531250,4.43
16:49:28.546875,1.83
16:49:28.562500,-0.70
16:49:28.578125,-3.14
16:49:28.593750,-5.56
16:49:28.609375,-8.11
16:49:28.625000,-10.97
16:49:28.640625,-14.23
16:49:28.656250,-17.91
16:49:28.671875,-21.90
16:49:28.687500,-26.01
16:49:28.703125,-30.05
16:49:28.718750,-33.88
16:49:28.734375,-37.43
16:49:28.750000,-40.68
16:49:28.765625,-43.74
16:49:28.781250,-46.73
16:49:28.796875,-49.81
16:49:28.812500,-53.08
16:49:28.828125,-56.46
16:49:28.843750,-59.63
16:49:28.859375,-62.01
16:49:28.875000,-62.91
16:49:28.890625,-61.71
16:49:28.906250,-58.04
16:49:28.921875,-51.97
16:49:28.937500,-43.92
16:49:28.953125,-34.57
16:49:28.968750,-24.61
16:49:28.984375,-14.64
16:49:29,-5.12
16:49:29.015625,3.68
16:49:29.031250,11.55
16:49:29.046875,18.28
16:49:29.062500,23.76
16:49:29.078125,27.90
16:49:29.093750,30.79
16:49:29.109375,32.66
16:49:29.125000,33.80
16:49:29.140625,34.51
16:49:29.156250,34.98
16:49:29.171875,35.26
16:49:29.187500,35.29
16:49:29.203125,35.04
16:49:29.218750,34.51
16:49:29.234375,33.80
16:49:29.250000,33.02
16:49:29.265625,32.25
16:49:29.281250,31.50
16:49:29.296875,30.70
16:49:29.312500,29.76
16:49:29.328125,28.61
16:49:29.343750,27.21
16:49:29.359375,25.52
16:49:29.375000,23.50
16:49:29.390625,21.16
16:49:29.406250,18.56
16:49:29.421875,15.85
16:49:29.437500,13.20
16:49:29.453125,10.76
16:49:29.468750,8.57
16:49:29.484375,6.53
16:49:29.500000,4.45
16:49:29.515625,2.18
16:49:29.531250,-0.37
16:49:29.546875,-3.17
16:49:29.562500,-6.14
16:49:29.578125,-9.11
16:49:29.593750,-11.95
16:49:29.609375,-14.58
16:49:29.625000,-17.02
16:49:29.640625,-19.43
16:49:29.656250,-22.03
16:49:29.671875,-25.11
16:49:29.687500,-28.86
16:49:29.703125,-33.25
16:49:29.718750,-38.00
16:49:29.734375,-42.51
16:49:29.750000,-45.98
16:49:29.765625,-47.58
16:49:29.781250,-46.64
16:49:29.796875,-42.81
16:49:29.812500,-36.24
16:49:29.828125,-27.47
16:49:29.843750,-17.36
16:49:29.859375,-6.78
16:49:29.875000,3.54
16:49:29.890625,13.09
16:49:29.906250,21.63
16:49:29.921875,29.02
16:49:29.937500,35.08
16:49:29.953125,39.61
16:49:29.968750,42.39
16:49:29.984375,43.34
16:49:30,42.61
16:49:30.015625,40.60
16:49:30.031250,37.86
16:49:30.046875,34.88
16:49:30.062500,32.01
16:49:30.078125,29.35
16:49:30.093750,26.85
16:49:30.109375,24.47
16:49:30.125000,22.25
16:49:30.140625,20.37
16:49:30.156250,19.03
16:49:30.171875,18.31
16:49:30.187500,18.11
16:49:30.203125,18.13
16:49:30.218750,18.01
16:49:30.234375,17.50
16:49:30.250000,16.54
16:49:30.265625,15.25
16:49:30.281250,13.89
16:49:30.296875,12.67
16:49:30.312500,11.72
16:49:30.328125,10.98
16:49:30.343750,10.37
16:49:30.359375,9.76
16:49:30.375000,9.04
16:49:30.390625,8.15
16:49:30.406250,7.01
16:49:30.421875,5.54
16:49:30.437500,3.67
16:49:30.453125,1.35
16:49:30.468750,-1.33
16:49:30.484375,-4.19
16:49:30.500000,-6.97
16:49:30.515625,-9.44
16:49:30.531250,-11.50
16:49:30.546875,-13.24
16:49:30.562500,-14.92
16:49:30.578125,-16.83
16:49:30.593750,-19.27
16:49:30.609375,-22.41
16:49:30.625000,-26.27
16:49:30.640625,-30.69
16:49:30.656250,-35.35
16:49:30.671875,-39.75
16:49:30.687500,-43.33
16:49:30.703125,-45.53
16:49:30.718750,-45.89
16:49:30.734375,-44.13
16:49:30.750000,-40.22
16:49:30.765625,-34.32
16:49:30.781250,-26.81
16:49:30.796875,-18.15
16:49:30.812500,-8.89
16:49:30.828125,0.44
16:49:30.843750,9.32
16:49:30.859375,17.33
16:49:30.875000,24.13
16:49:30.890625,29.51
16:49:30.906250,33.37
16:49:30.921875,35.73
16:49:30.937500,36.70
16:49:30.953125,36.55
16:49:30.968750,35.62
16:49:30.984375,34.31
16:49:31,32.94
16:49:31.015625,31.69
16:49:31.031250,30.56
16:49:31.046875,29.39
16:49:31.062500,27.97
16:49:31.078125,26.20
16:49:31.093750,24.09
16:49:31.109375,21.76
16:49:31.125000,19.37
16:49:31.140625,16.98
16:49:31.156250,14.55
16:49:31.171875,11.96
16:49:31.187500,9.10
16:49:31.203125,5.95
16:49:31.218750,2.59
16:49:31.234375,-0.83
16:49:31.250000,-4.20
16:49:31.265625,-7.51
16:49:31.281250,-10.86
16:49:31.296875,-14.41
16:49:31.312500,-18.34
16:49:31.328125,-22.70
16:49:31.343750,-27.38
16:49:31.359375,-32.13
16:49:31.375000,-36.64
16:49:31.390625,-40.61
16:49:31.406250,-43.90
16:49:31.421875,-46.53
16:49:31.437500,-48.66
16:49:31.453125,-50.45
16:49:31.468750,-52.02
16:49:31.484375,-53.38
16:49:31.500000,-54.50
16:49:31.515625,-55.42
16:49:31.531250,-56.26
16:49:31.546875,-57.23
16:49:31.562500,-58.51
16:49:31.578125,-60.06
16:49:31.593750,-61.52
16:49:31.609375,-62.29
16:49:31.625000,-61.65
16:49:31.640625,-59.01
16:49:31.656250,-54.07
16:49:31.671875,-46.91
16:49:31.687500,-37.83
16:49:31.703125,-27.26
16:49:31.718750,-15.58
16:49:31.734375,-3.16
16:49:31.750000,9.75
16:49:31.765625,22.75
16:49:31.781250,35.36
16:49:31.796875,46.94
16:49:31.812500,56.83
16:49:31.828125,64.53
16:49:31.843750,69.81
16:49:31.859375,72.75
16:49:31.875000,73.79
16:49:31.890625,73.52
16:49:31.906250,72.66
16:49:31.921875,71.83
16:49:31.937500,71.50
16:49:31.953125,71.87
16:49:31.968750,72.82
16:49:31.984375,73.96
16:49:32,74.72
16:49:32.015625,74.56
16:49:32.031250,73.12
16:49:32.046875,70.39
16:49:32.062500,66.64
16:49:32.078125,62.36
16:49:32.093750,58.01
16:49:32.109375,53.85
16:49:32.125000,49.88
16:49:32.140625,45.78
16:49:32.156250,41.10
16:49:32.171875,35.44
16:49:32.187500,28.73
16:49:32.203125,21.28
16:49:32.218750,13.72
16:49:32.234375,6.66
16:49:32.250000,0.41
16:49:32.265625,-5.25
16:49:32.281250,-10.98
16:49:32.296875,-17.61
16:49:32.312500,-25.69
16:49:32.328125,-35.23
16:49:32.343750,-45.67
16:49:32.359375,-56.10
16:49:32.375000,-65.51
16:49:32.390625,-73.00
16:49:32.406250,-77.84
16:49:32.421875,-79.50
16:49:32.437500,-77.63
16:49:32.453125,-72.20
16:49:32.468750,-63.64
16:49:32.484375,-52.79
16:49:32.500000,-40.84
16:49:32.515625,-29.02
16:49:32.531250,-18.31
16:49:32.546875,-9.26
16:49:32.562500,-2.03
16:49:32.578125,3.52
16:49:32.593750,7.63
16:49:32.609375,10.48
16:49:32.625000,12.17
16:49:32.640625,12.85
16:49:32.656250,12.66
16:49:32.671875,11.84
16:49:32.687500,10.60
16:49:32.703125,9.10
16:49:32.718750,7.39
16:49:32.734375,5.48
16:49:32.750000,3.40
16:49:32.765625,1.30
16:49:32.781250,-0.62
16:49:32.796875,-2.15
16:49:32.812500,-3.25
16:49:32.828125,-4.06
16:49:32.843750,-4.86
16:49:32.859375,-5.98
16:49:32.875000,-7.65
16:49:32.890625,-9.94
16:49:32.906250,-12.81
16:49:32.921875,-16.11
16:49:32.937500,-19.71
16:49:32.953125,-23.50
16:49:32.968750,-27.38
16:49:32.984375,-31.29
16:49:33,-35.16
16:49:33.015625,-39.00
16:49:33.031250,-42.89
16:49:33.046875,-47.02
16:49:33.062500,-51.66
16:49:33.078125,-57.07
16:49:33.093750,-63.39
16:49:33.109375,-70.51
16:49:33.125000,-78.04
16:49:33.140625,-85.25
16:49:33.156250,-91.20
16:49:33.171875,-94.81
16:49:33.187500,-95.15
16:49:33.203125,-91.61
16:49:33.218750,-84.14
16:49:33.234375,-73.22
16:49:33.250000,-59.75
16:49:33.265625,-44.77
16:49:33.281250,-29.27
16:49:33.296875,-13.92
16:49:33.312500,0.84
16:49:33.328125,14.81
16:49:33.343750,27.81
16:49:33.359375,39.65
16:49:33.375000,50.10
16:49:33.390625,58.92
16:49:33.406250,65.94
16:49:33.421875,71.12
16:49:33.437500,74.57
16:49:33.453125,76.51
16:49:33.468750,77.25
16:49:33.484375,77.04
16:49:33.500000,76.09
16:49:33.515625,74.47
16:49:33.531250,72.16
16:49:33.546875,69.16
16:49:33.562500,65.53
16:49:33.578125,61.41
16:49:33.593750,57.01
16:49:33.609375,52.45
16:49:33.625000,47.76
16:49:33.640625,42.90
16:49:33.656250,37.83
16:49:33.671875,32.61
16:49:33.687500,27.35
16:49:33.703125,22.18
16:49:33.718750,17.14
16:49:33.734375,12.20
16:49:33.750000,7.28
16:49:33.765625,2.33
16:49:33.781250,-2.61
16:49:33.796875,-7.42
16:49:33.812500,-11.96
16:49:33.828125,-16.11
16:49:33.843750,-19.78
16:49:33.859375,-22.97
16:49:33.875000,-25.75
16:49:33.890625,-28.30
16:49:33.906250,-30.90
16:49:33.921875,-33.90
16:49:33.937500,-37.55
16:49:33.953125,-41.80
16:49:33.968750,-46.16
16:49:33.984375,-49.76
16:49:34,-51.56
16:49:34.015625,-50.72
16:49:34.031250,-46.87
16:49:34.046875,-40.28
16:49:34.062500,-31.73
16:49:34.078125,-22.22
16:49:34.093750,-12.66
16:49:34.109375,-3.62
16:49:34.125000,4.67
16:49:34.140625,12.25
16:49:34.156250,19.20
16:49:34.171875,25.46
16:49:34.187500,30.84
16:49:34.203125,35.06
16:49:34.218750,37.93
16:49:34.234375,39.42
16:49:34.250000,39.68
16:49:34.265625,39.00
16:49:34.281250,37.70
16:49:34.296875,36.03
16:49:34.312500,34.22
16:49:34.328125,32.41
16:49:34.343750,30.74
16:49:34.359375,29.30
16:49:34.375000,28.20
16:49:34.390625,27.45
16:49:34.406250,26.98
16:49:34.421875,26.62
16:49:34.437500,26.15
16:49:34.453125,25.32
16:49:34.468750,24.02
16:49:34.484375,22.24
16:49:34.500000,20.12
16:49:34.515625,17.88
16:49:34.531250,15.63
16:49:34.546875,13.41
16:49:34.562500,11.04
16:49:34.578125,8.32
16:49:34.593750,5.08
16:49:34.609375,1.38
16:49:34.625000,-2.56
16:49:34.640625,-6.39
16:49:34.656250,-9.87
16:49:34.671875,-12.95
16:49:34.687500,-15.84
16:49:34.703125,-18.87
16:49:34.718750,-22.37
16:49:34.734375,-26.53
16:49:34.750000,-31.34
16:49:34.765625,-36.66
16:49:34.781250,-42.29
16:49:34.796875,-47.98
16:49:34.812500,-53.42
16:49:34.828125,-58.16
16:49:34.843750,-61.64
16:49:34.859375,-63.26
16:49:34.875000,-62.52
16:49:34.890625,-59.27
16:49:34.906250,-53.72
16:49:34.921875,-46.45
16:49:34.937500,-38.18
16:49:34.953125,-29.67
16:49:34.968750,-21.47
16:49:34.984375,-13.94
16:49:35,-7.25
16:49:35.015625,-1.50
16:49:35.031250,3.22
16:49:35.046875,6.79
16:49:35.062500,9.08
16:49:35.078125,10.02
16:49:35.093750,9.57
16:49:35.109375,7.77
16:49:35.125000,4.69
16:49:35.140625,0.47
16:49:35.156250,-4.67
16:49:35.171875,-10.41
16:49:35.187500,-16.29
16:49:35.203125,-21.80
16:49:35.218750,-26.53
16:49:35.234375,-30.25
16:49:35.250000,-33.03
16:49:35.265625,-35.18
16:49:35.281250,-37.13
16:49:35.296875,-39.24
16:49:35.312500,-41.63
16:49:35.328125,-44.05
16:49:35.343750,-45.94
16:49:35.359375,-46.61
16:49:35.375000,-45.44
16:49:35.390625,-42.16
16:49:35.406250,-36.99
16:49:35.421875,-30.59
16:49:35.437500,-23.85
16:49:35.453125,-17.63
16:49:35.468750,-12.34
16:49:35.484375,-7.94
16:49:35.500000,-3.92
16:49:35.515625,0.42
16:49:35.531250,5.63
16:49:35.546875,11.87
16:49:35.562500,18.80
16:49:35.578125,25.73
16:49:35.593750,31.95
16:49:35.609375,36.91
16:49:35.625000,40.51
16:49:35.640625,42.87
16:49:35.656250,44.28
16:49:35.671875,44.98
16:49:35.687500,45.15
16:49:35.703125,44.95
16:49:35.718750,44.63
16:49:35.734375,44.50
16:49:35.750000,44.81
16:49:35.765625,45.66
16:49:35.781250,47.04
16:49:35.796875,48.88
16:49:35.812500,51.19
16:49:35.828125,54.12
16:49:35.843750,57.76
16:49:35.859375,62.02
16:49:35.875000,66.50
16:49:35.890625,70.54
16:49:35.906250,73.57
16:49:35.921875,75.24
16:49:35.937500,75.58
16:49:35.953125,74.84
16:49:35.968750,73.34
16:49:35.984375,71.26
16:49:36,68.69
16:49:36.015625,65.61
16:49:36.031250,62.10
16:49:36.046875,58.30
16:49:36.062500,54.45
16:49:36.078125,50.78
16:49:36.093750,47.44
16:49:36.109375,44.46
16:49:36.125000,41.77
16:49:36.140625,39.25
16:49:36.156250,36.72
16:49:36.171875,34.09
16:49:36.187500,31.31
16:49:36.203125,28.35
16:49:36.218750,25.17
16:49:36.234375,21.64
16:49:36.250000,17.51
16:49:36.265625,12.50
16:49:36.281250,6.44
16:49:36.296875,-0.60
16:49:36.312500,-8.28
16:49:36.328125,-16.14
16:49:36.343750,-23.75
16:49:36.359375,-30.94
16:49:36.375000,-37.77
16:49:36.390625,-44.48
16:49:36.406250,-51.27
16:49:36.421875,-58.14
16:49:36.437500,-64.89
16:49:36.453125,-71.09
16:49:36.468750,-76.34
16:49:36.484375,-80.38
16:49:36.500000,-83.20
16:49:36.515625,-84.92
16:49:36.531250,-85.63
16:49:36.546875,-85.23
16:49:36.562500,-83.42
16:49:36.578125,-79.78
16:49:36.593750,-73.96
16:49:36.609375,-65.92
16:49:36.625000,-55.98
16:49:36.640625,-44.76
16:49:36.656250,-32.97
16:49:36.671875,-21.25
16:49:36.687500,-10.00
16:49:36.703125,0.48
16:49:36.718750,9.97
16:49:36.734375,18.18
16:49:36.750000,24.80
16:49:36.765625,29.58
16:49:36.781250,32.47
16:49:36.796875,33.68
16:49:36.812500,33.69
16:49:36.828125,33.02
16:49:36.843750,32.13
16:49:36.859375,31.30
16:49:36.875000,30.56
16:49:36.890625,29.82
16:49:36.906250,28.98
16:49:36.921875,28.02
16:49:36.937500,27.00
16:49:36.953125,26.00
16:49:36.968750,25.07
16:49:36.984375,24.15
16:49:37,23.11
16:49:37.015625,21.81
16:49:37.031250,20.11
16:49:37.046875,17.89
16:49:37.062500,15.13
16:49:37.078125,11.84
16:49:37.093750,8.10
16:49:37.109375,4.08
16:49:37.125000,0.02
16:49:37.140625,-3.91
16:49:37.156250,-7.62
16:49:37.171875,-11.16
16:49:37.187500,-14.66
16:49:37.203125,-18.25
16:49:37.218750,-22.03
16:49:37.234375,-26.04
16:49:37.250000,-30.37
16:49:37.265625,-35.14
16:49:37.281250,-40.48
16:49:37.296875,-46.36
16:49:37.312500,-52.44
16:49:37.328125,-58.04
16:49:37.343750,-62.19
16:49:37.359375,-63.92
16:49:37.375000,-62.59
16:49:37.390625,-58.09
16:49:37.406250,-50.84
16:49:37.421875,-41.61
16:49:37.437500,-31.30
16:49:37.453125,-20.66
16:49:37.468750,-10.19
16:49:37.484375,-0.19
16:49:37.500000,9.18
16:49:37.515625,17.80
16:49:37.531250,25.55
16:49:37.546875,32.24
16:49:37.562500,37.72
16:49:37.578125,41.90
16:49:37.593750,44.78
16:49:37.609375,46.44
16:49:37.625000,47.06
16:49:37.640625,46.87
16:49:37.656250,46.05
16:49:37.671875,44.80
16:49:37.687500,43.24
16:49:37.703125,41.53
16:49:37.718750,39.80
16:49:37.734375,38.22
16:49:37.750000,36.92
16:49:37.765625,35.94
16:49:37.781250,35.16
16:49:37.796875,34.34
16:49:37.812500,33.12
16:49:37.828125,31.26
16:49:37.843750,28.66
16:49:37.859375,25.45
16:49:37.875000,21.92
16:49:37.890625,18.41
16:49:37.906250,15.11
16:49:37.921875,12.02
16:49:37.937500,8.96
16:49:37.953125,5.63
16:49:37.968750,1.80
16:49:37.984375,-2.57
16:49:38,-7.35
16:49:38.015625,-12.30
16:49:38.031250,-17.14
16:49:38.046875,-21.66
16:49:38.062500,-25.77
16:49:38.078125,-29.55
16:49:38.093750,-33.18
16:49:38.109375,-36.95
16:49:38.125000,-41.18
16:49:38.140625,-46.15
16:49:38.156250,-51.91
16:49:38.171875,-58.17
16:49:38.187500,-64.16
16:49:38.203125,-68.77
16:49:38.218750,-70.80
16:49:38.234375,-69.35
16:49:38.250000,-64.10
16:49:38.265625,-55.48
16:49:38.281250,-44.53
16:49:38.296875,-32.50
16:49:38.312500,-20.54
16:49:38.328125,-9.36
16:49:38.343750,0.83
16:49:38.359375,10.13
16:49:38.375000,18.74
16:49:38.390625,26.68
16:49:38.406250,33.79
16:49:38.421875,39.78
16:49:38.437500,44.42
16:49:38.453125,47.64
16:49:38.468750,49.57
16:49:38.484375,50.52
16:49:38.500000,50.73
16:49:38.515625,50.41
16:49:38.531250,49.63
16:49:38.546875,48.43
16:49:38.562500,46.90
16:49:38.578125,45.21
16:49:38.593750,43.56
16:49:38.609375,42.07
16:49:38.625000,40.77
16:49:38.640625,39.52
16:49:38.656250,38.09
16:49:38.671875,36.32
16:49:38.687500,34.09
16:49:38.703125,31.43
16:49:38.718750,28.42
16:49:38.734375,25.17
16:49:38.750000,21.79
16:49:38.765625,18.35
16:49:38.781250,14.88
16:49:38.796875,11.36
16:49:38.812500,7.80
16:49:38.828125,4.15
16:49:38.843750,0.41
16:49:38.859375,-3.45
16:49:38.875000,-7.40
16:49:38.890625,-11.44
16:49:38.906250,-15.55
16:49:38.921875,-19.69
16:49:38.937500,-23.78
16:49:38.953125,-27.76
16:49:38.968750,-31.58
16:49:38.984375,-35.27
16:49:39,-38.98
16:49:39.015625,-42.96
16:49:39.031250,-47.40
16:49:39.046875,-52.40
16:49:39.062500,-57.86
16:49:39.078125,-63.37
16:49:39.093750,-68.32
16:49:39.109375,-71.91
16:49:39.125000,-73.36
16:49:39.140625,-72.04
16:49:39.156250,-67.68
16:49:39.171875,-60.41
16:49:39.187500,-50.74
16:49:39.203125,-39.46
16:49:39.218750,-27.41
16:49:39.234375,-15.29
16:49:39.250000,-3.62
16:49:39.265625,7.28
16:49:39.281250,17.17
16:49:39.296875,25.84
16:49:39.312500,33.06
16:49:39.328125,38.66
16:49:39.343750,42.62
16:49:39.359375,45.07
16:49:39.375000,46.30
16:49:39.390625,46.67
16:49:39.406250,46.45
16:49:39.421875,45.83
16:49:39.437500,44.88
16:49:39.453125,43.66
16:49:39.468750,42.18
16:49:39.484375,40.49
16:49:39.500000,38.67
16:49:39.515625,36.80
16:49:39.531250,35.01
16:49:39.546875,33.39
16:49:39.562500,31.98
16:49:39.578125,30.76
16:49:39.593750,29.56
16:49:39.609375,28.19
16:49:39.625000,26.41
16:49:39.640625,24.12
16:49:39.656250,21.34
16:49:39.671875,18.24
16:49:39.687500,15.07
16:49:39.703125,12.06
16:49:39.718750,9.25
16:49:39.734375,6.52
16:49:39.750000,3.63
16:49:39.765625,0.33
16:49:39.781250,-3.51
16:49:39.796875,-7.85
16:49:39.812500,-12.49
16:49:39.828125,-17.16
16:49:39.843750,-21.56
16:49:39.859375,-25.53
16:49:39.875000,-29.03
16:49:39.890625,-32.22
16:49:39.906250,-35.37
16:49:39.921875,-38.85
16:49:39.937500,-43.00
16:49:39.953125,-47.99
16:49:39.968750,-53.72
16:49:39.984375,-59.75
16:49:40,-65.32
16:49:40.015625,-69.46
16:49:40.031250,-71.30
16:49:40.046875,-70.16
16:49:40.062500,-65.84
16:49:40.078125,-58.60
16:49:40.093750,-49.08
16:49:40.109375,-38.11
16:49:40.125000,-26.56
16:49:40.140625,-15.07
16:49:40.156250,-4.09
16:49:40.171875,6.10
16:49:40.187500,15.32
16:49:40.203125,23.41
16:49:40.218750,30.20
16:49:40.234375,35.60
16:49:40.250000,39.54
16:49:40.265625,42.14
16:49:40.281250,43.54
16:49:40.296875,43.99
16:49:40.312500,43.70
16:49:40.328125,42.88
16:49:40.343750,41.69
16:49:40.359375,40.25
16:49:40.375000,38.68
16:49:40.390625,37.09
16:49:40.406250,35.61
16:49:40.421875,34.36
16:49:40.437500,33.41
16:49:40.453125,32.73
16:49:40.468750,32.17
16:49:40.484375,31.45
16:49:40.500000,30.26
16:49:40.515625,28.36
16:49:40.531250,25.69
16:49:40.546875,22.41
16:49:40.562500,18.87
16:49:40.578125,15.48
16:49:40.593750,12.53
16:49:40.609375,10.12
16:49:40.625000,8.00
16:49:40.640625,5.74
16:49:40.656250,2.87
16:49:40.671875,-0.90
16:49:40.687500,-5.50
16:49:40.703125,-10.56
16:49:40.718750,-15.53
16:49:40.734375,-19.93
16:49:40.750000,-23.58
16:49:40.765625,-26.69
16:49:40.781250,-29.71
16:49:40.796875,-33.21
16:49:40.812500,-37.59
16:49:40.828125,-42.96
16:49:40.843750,-49.04
16:49:40.859375,-55.21
16:49:40.875000,-60.64
16:49:40.890625,-64.43
16:49:40.906250,-65.76
16:49:40.921875,-64.10
16:49:40.937500,-59.30
16:49:40.953125,-51.64
16:49:40.968750,-41.75
16:49:40.984375,-30.50
16:49:41,-18.76
16:49:41.015625,-7.26
16:49:41.031250,3.47
16:49:41.046875,13.17
16:49:41.062500,21.71
16:49:41.078125,29.02
16:49:41.093750,35.03
16:49:41.109375,39.63
16:49:41.125000,42.76
16:49:41.140625,44.44
16:49:41.156250,44.86
16:49:41.171875,44.32
16:49:41.187500,43.20
16:49:41.203125,41.79
16:49:41.218750,40.29
16:49:41.234375,38.76
16:49:41.250000,37.23
16:49:41.265625,35.72
16:49:41.281250,34.36
16:49:41.296875,33.24
16:49:41.312500,32.40
16:49:41.328125,31.72
16:49:41.343750,30.95
16:49:41.359375,29.83
16:49:41.375000,28.15
16:49:41.390625,25.89
16:49:41.406250,23.18
16:49:41.421875,20.20
16:49:41.437500,17.09
16:49:41.453125,13.90
16:49:41.468750,10.61
16:49:41.484375,7.18
16:49:41.500000,3.59
16:49:41.515625,-0.14
16:49:41.531250,-4.00
16:49:41.546875,-7.96
16:49:41.562500,-11.97
16:49:41.578125,-15.93
16:49:41.593750,-19.70
16:49:41.609375,-23.21
16:49:41.625000,-26.53
16:49:41.640625,-29.88
16:49:41.656250,-33.66
16:49:41.671875,-38.25
16:49:41.687500,-43.87
16:49:41.703125,-50.42
16:49:41.718750,-57.42
16:49:41.734375,-64.07
16:49:41.750000,-69.40
16:49:41.765625,-72.50
16:49:41.781250,-72.73
16:49:41.796875,-69.79
16:49:41.812500,-63.89
16:49:41.828125,-55.52
16:49:41.843750,-45.43
16:49:41.859375,-34.34
16:49:41.875000,-22.83
16:49:41.890625,-11.34
16:49:41.906250,-0.16
16:49:41.921875,10.46
16:49:41.937500,20.25
16:49:41.953125,28.92
16:49:41.968750,36.20
16:49:41.984375,41.91
16:49:42,45.95
16:49:42.015625,48.41
16:49:42.031250,49.48
16:49:42.046875,49.46
16:49:42.062500,48.69
16:49:42.078125,47.47
16:49:42.093750,46.03
16:49:42.109375,44.50
16:49:42.125000,42.93
16:49:42.140625,41.38
16:49:42.156250,39.90
16:49:42.171875,38.59
16:49:42.187500,37.49
16:49:42.203125,36.54
16:49:42.218750,35.56
16:49:42.234375,34.29
16:49:42.250000,32.49
16:49:42.265625,30.04
16:49:42.281250,26.99
16:49:42.296875,23.52
16:49:42.312500,19.85
16:49:42.328125,16.22
16:49:42.343750,12.76
16:49:42.359375,9.46
16:49:42.375000,6.23
16:49:42.390625,2.90
16:49:42.406250,-0.66
16:49:42.421875,-4.48
16:49:42.437500,-8.47
16:49:42.453125,-12.35
16:49:42.468750,-15.88
16:49:42.484375,-18.93
16:49:42.500000,-21.60
16:49:42.515625,-24.17
16:49:42.531250,-27.03
16:49:42.546875,-30.56
16:49:42.562500,-35.01
16:49:42.578125,-40.46
16:49:42.593750,-46.80
16:49:42.609375,-53.70
16:49:42.625000,-60.47
16:49:42.640625,-66.19
16:49:42.656250,-69.80
16:49:42.671875,-70.40
16:49:42.687500,-67.51
16:49:42.703125,-61.32
16:49:42.718750,-52.53
16:49:42.734375,-42.13
16:49:42.750000,-31.10
16:49:42.765625,-20.07
16:49:42.781250,-9.33
16:49:42.796875,1.02
16:49:42.812500,10.93
16:49:42.828125,20.15
16:49:42.843750,28.30
16:49:42.859375,34.92
16:49:42.875000,39.72
16:49:42.890625,42.68
16:49:42.906250,44.05
16:49:42.921875,44.32
16:49:42.937500,43.97
16:49:42.953125,43.39
16:49:42.968750,42.76
16:49:42.984375,42.13
16:49:43,41.43
16:49:43.015625,40.62
16:49:43.031250,39.64
16:49:43.046875,38.46
16:49:43.062500,37.04
16:49:43.078125,35.31
16:49:43.093750,33.21
16:49:43.109375,30.73
16:49:43.125000,27.91
16:49:43.140625,24.86
16:49:43.156250,21.62
16:49:43.171875,18.28
16:49:43.187500,14.89
16:49:43.203125,11.57
16:49:43.218750,8.42
16:49:43.234375,5.50
16:49:43.250000,2.74
16:49:43.265625,-0.08
16:49:43.281250,-3.21
16:49:43.296875,-6.85
16:49:43.312500,-10.94
16:49:43.328125,-15.20
16:49:43.343750,-19.18
16:49:43.359375,-22.51
16:49:43.375000,-25.06
16:49:43.390625,-27.02
16:49:43.406250,-28.88
16:49:43.421875,-31.22
16:49:43.437500,-34.55
16:49:43.453125,-39.13
16:49:43.468750,-44.87
16:49:43.484375,-51.41
16:49:43.500000,-58.13
16:49:43.515625,-64.26
16:49:43.531250,-68.99
16:49:43.546875,-71.63
16:49:43.562500,-71.64
16:49:43.578125,-68.76
16:49:43.593750,-63.08
16:49:43.609375,-55.07
16:49:43.625000,-45.50
16:49:43.640625,-35.25
16:49:43.656250,-25.21
16:49:43.671875,-16.04
16:49:43.687500,-8.16
16:49:43.703125,-1.77
16:49:43.718750,3.11
16:49:43.734375,6.57
16:49:43.750000,8.82
16:49:43.765625,10.22
16:49:43.781250,11.22
16:49:43.796875,12.27
16:49:43.812500,13.67
16:49:43.828125,15.52
16:49:43.843750,17.63
16:49:43.859375,19.69
16:49:43.875000,21.37
16:49:43.890625,22.54
16:49:43.906250,23.23
16:49:43.921875,23.61
16:49:43.937500,23.90
16:49:43.953125,24.17
16:49:43.968750,24.39
16:49:43.984375,24.36
16:49:44,23.90
16:49:44.015625,22.83
16:49:44.031250,21.10
16:49:44.046875,18.79
16:49:44.062500,16.02
16:49:44.078125,12.95
16:49:44.093750,9.71
16:49:44.109375,6.37
16:49:44.125000,3.02
16:49:44.140625,-0.21
16:49:44.156250,-3.17
16:49:44.171875,-5.66
16:49:44.187500,-7.54
16:49:44.203125,-8.78
16:49:44.218750,-9.53
16:49:44.234375,-10.10
16:49:44.250000,-10.95
16:49:44.265625,-12.60
16:49:44.281250,-15.53
16:49:44.296875,-20.05
16:49:44.312500,-26.21
16:49:44.328125,-33.69
16:49:44.343750,-41.80
16:49:44.359375,-49.50
16:49:44.375000,-55.63
16:49:44.390625,-59.12
16:49:44.406250,-59.31
16:49:44.421875,-56.11
16:49:44.437500,-49.92
16:49:44.453125,-41.49
16:49:44.468750,-31.49
16:49:44.484375,-20.45
16:49:44.500000,-8.71
16:49:44.515625,3.42
16:49:44.531250,15.45
16:49:44.546875,26.74
16:49:44.562500,36.65
16:49:44.578125,44.78
16:49:44.593750,51.14
16:49:44.609375,56.09
16:49:44.625000,60.17
16:49:44.640625,63.88
16:49:44.656250,67.62
16:49:44.671875,71.68
16:49:44.687500,76.31
16:49:44.703125,81.74
16:49:44.718750,88.07
16:49:44.734375,95.20
16:49:44.750000,102.70
16:49:44.765625,109.94
16:49:44.781250,116.15
16:49:44.796875,120.66
16:49:44.812500,123.01
16:49:44.828125,123.06
16:49:44.843750,121.07
16:49:44.859375,117.58
16:49:44.875000,113.35
16:49:44.890625,109.17
16:49:44.906250,105.64
16:49:44.921875,103.17
16:49:44.937500,101.85
16:49:44.953125,101.60
16:49:44.968750,102.19
16:49:44.984375,103.39
16:49:45,104.90
16:49:45.015625,106.42
16:49:45.031250,107.46
16:49:45.046875,107.38
16:49:45.062500,105.35
16:49:45.078125,100.44
16:49:45.093750,91.68
16:49:45.109375,78.33
16:49:45.125000,60.12
16:49:45.140625,37.64
16:49:45.156250,12.49
16:49:45.171875,-12.82
16:49:45.187500,-35.39
16:49:45.203125,-52.69
16:49:45.218750,-63.32
16:49:45.234375,-67.31
16:49:45.250000,-66.05
16:49:45.265625,-61.59
16:49:45.281250,-55.96
16:49:45.296875,-50.67
16:49:45.312500,-46.64
16:49:45.328125,-44.45
16:49:45.343750,-44.77
16:49:45.359375,-48.44
16:49:45.375000,-56.36
16:49:45.390625,-69.15
16:49:45.406250,-86.90
16:49:45.421875,-109.06
16:49:45.437500,-134.59
16:49:45.453125,-162.17
16:49:45.468750,-190.50
16:49:45.484375,-218.52
16:49:45.500000,-245.64
16:49:45.515625,-271.82
16:49:45.531250,-297.57
16:49:45.546875,-323.80
16:49:45.562500,-351.50
16:49:45.578125,-381.28
16:49:45.593750,-412.98
16:49:45.609375,-445.31
16:49:45.625000,-475.82
16:49:45.640625,-501.03
16:49:45.656250,-517.16
16:49:45.671875,-520.95
16:49:45.687500,-510.60
16:49:45.703125,-486.34
16:49:45.718750,-450.48
16:49:45.734375,-406.66
16:49:45.750000,-358.81
16:49:45.765625,-310.20
16:49:45.781250,-262.82
16:49:45.796875,-217.53
16:49:45.812500,-174.55
16:49:45.828125,-133.94
16:49:45.843750,-95.89
16:49:45.859375,-60.60
16:49:45.875000,-27.97
16:49:45.890625,2.59
16:49:45.906250,32.08
16:49:45.921875,61.74
16:49:45.937500,92.72
16:49:45.953125,125.89
16:49:45.968750,161.51
16:49:45.984375,199.02
16:49:46,236.78
16:49:46.015625,272.16
16:49:46.031250,302.20
16:49:46.046875,324.60
16:49:46.062500,338.74
16:49:46.078125,346.19
16:49:46.093750,350.24
16:49:46.109375,354.90
16:49:46.125000,363.56
16:49:46.140625,378.07
16:49:46.156250,398.48
16:49:46.171875,423.32
16:49:46.187500,450.06
16:49:46.203125,475.62
16:49:46.218750,496.71
16:49:46.234375,510.19
16:49:46.250000,513.61
16:49:46.265625,505.66
16:49:46.281250,486.57
16:49:46.296875,458.06
16:49:46.312500,422.91
16:49:46.328125,384.32
16:49:46.343750,345.30
16:49:46.359375,308.07
16:49:46.375000,273.80
16:49:46.390625,242.55
16:49:46.406250,213.36
16:49:46.421875,184.78
16:49:46.437500,155.30
16:49:46.453125,123.98
16:49:46.468750,90.72
16:49:46.484375,56.35
16:49:46.500000,22.45
16:49:46.515625,-8.90
16:49:46.531250,-35.43
16:49:46.546875,-55.08
16:49:46.562500,-66.46
16:49:46.578125,-69.26
16:49:46.593750,-64.46
16:49:46.609375,-54.24
16:49:46.625000,-41.49
16:49:46.640625,-29.11
16:49:46.656250,-19.49
16:49:46.671875,-14.25
16:49:46.687500,-14.21
16:49:46.703125,-19.57
16:49:46.718750,-30.00
16:49:46.734375,-44.57
16:49:46.750000,-61.77
16:49:46.765625,-79.70
16:49:46.781250,-96.33
16:49:46.796875,-110.04
16:49:46.812500,-119.83
16:49:46.828125,-125.49
16:49:46.843750,-127.36
16:49:46.859375,-126.03
16:49:46.875000,-122.09
16:49:46.890625,-116.15
16:49:46.906250,-108.76
16:49:46.921875,-100.58
16:49:46.937500,-92.31
16:49:46.953125,-84.58
16:49:46.968750,-77.88
16:49:46.984375,-72.41
16:49:47,-68.12
16:49:47.015625,-64.80
16:49:47.031250,-62.16
16:49:47.046875,-60.01
16:49:47.062500,-58.25
16:49:47.078125,-56.92
16:49:47.093750,-56.13
16:49:47.109375,-56.00
16:49:47.125000,-56.62
16:49:47.140625,-58.04
16:49:47.156250,-60.31
16:49:47.171875,-63.44
16:49:47.187500,-67.44
16:49:47.203125,-72.28
16:49:47.218750,-77.87
16:49:47.234375,-84.15
16:49:47.250000,-91.07
16:49:47.265625,-98.53
16:49:47.281250,-106.23
16:49:47.296875,-113.52
16:49:47.312500,-119.41
16:49:47.328125,-122.58
16:49:47.343750,-121.77
16:49:47.359375,-116.14
16:49:47.375000,-105.62
16:49:47.390625,-90.96
16:49:47.406250,-73.68
16:49:47.421875,-55.74
16:49:47.437500,-39.12
16:49:47.453125,-25.49
16:49:47.468750,-15.92
16:49:47.484375,-10.77
16:49:47.500000,-9.75
16:49:47.515625,-12.03
16:49:47.531250,-16.60
16:49:47.546875,-22.51
16:49:47.562500,-28.98
16:49:47.578125,-35.44
16:49:47.593750,-41.25
16:49:47.609375,-45.63
16:49:47.625000,-47.54
16:49:47.640625,-45.96
16:49:47.656250,-40.20
16:49:47.671875,-30.35
16:49:47.687500,-17.40
16:49:47.703125,-3.05
16:49:47.718750,10.67
16:49:47.734375,22.01
16:49:47.750000,29.85
16:49:47.765625,33.86
16:49:47.781250,34.36
16:49:47.796875,31.99
16:49:47.812500,27.43
16:49:47.828125,21.24
16:49:47.843750,13.94
16:49:47.859375,6.02
16:49:47.875000,-1.86
16:49:47.890625,-8.95
16:49:47.906250,-14.50
16:49:47.921875,-17.82
16:49:47.937500,-18.45
16:49:47.953125,-16.13
16:49:47.968750,-10.71
16:49:47.984375,-2.23
16:49:48,9.12
16:49:48.015625,22.92
16:49:48.031250,38.36
16:49:48.046875,54.23
16:49:48.062500,69.00
16:49:48.078125,80.94
16:49:48.093750,88.47
16:49:48.109375,90.44
16:49:48.125000,86.48
16:49:48.140625,77.09
16:49:48.156250,63.63
16:49:48.171875,47.95
16:49:48.187500,32.02
16:49:48.203125,17.45
16:49:48.218750,5.15
16:49:48.234375,-4.75
16:49:48.250000,-12.67
16:49:48.265625,-19.22
16:49:48.281250,-24.87
16:49:48.296875,-29.76
16:49:48.312500,-33.75
16:49:48.328125,-36.58
16:49:48.343750,-38.11
16:49:48.359375,-38.50
16:49:48.375000,-38.17
16:49:48.390625,-37.59
16:49:48.406250,-37.07
16:49:48.421875,-36.70
16:49:48.437500,-36.36
16:49:48.453125,-35.99
16:49:48.468750,-35.79
16:49:48.484375,-36.35
16:49:48.500000,-38.56
16:49:48.515625,-43.18
16:49:48.531250,-50.51
16:49:48.546875,-60.14
16:49:48.562500,-70.87
16:49:48.578125,-81.07
16:49:48.593750,-89.16
16:49:48.609375,-94.19
16:49:48.625000,-96.15
16:49:48.640625,-96.09
16:49:48.656250,-95.82
16:49:48.671875,-97.41
16:49:48.687500,-102.41
16:49:48.703125,-111.20
16:49:48.718750,-122.50
16:49:48.734375,-133.47
16:49:48.750000,-140.22
16:49:48.765625,-138.89
16:49:48.781250,-126.90
16:49:48.796875,-104.02
16:49:48.812500,-72.83
16:49:48.828125,-38.24
16:49:48.843750,-6.04
16:49:48.859375,18.96
16:49:48.875000,34.54
16:49:48.890625,41.63
16:49:48.906250,43.73
16:49:48.921875,45.27
16:49:48.937500,49.89
16:49:48.953125,59.23
16:49:48.968750,72.82
16:49:48.984375,88.75
16:49:49,104.73
16:49:49.015625,118.83
16:49:49.031250,129.68
16:49:49.046875,136.28
16:49:49.062500,137.82
16:49:49.078125,133.80
16:49:49.093750,124.41
16:49:49.109375,110.80
16:49:49.125000,94.93
16:49:49.140625,79.03
16:49:49.156250,64.79
16:49:49.171875,52.90
16:49:49.187500,43.02
16:49:49.203125,34.24
16:49:49.218750,25.74
16:49:49.234375,17.24
16:49:49.250000,9.12
16:49:49.265625,2.06
16:49:49.281250,-3.30
16:49:49.296875,-6.71
16:49:49.312500,-8.42
16:49:49.328125,-9.07
16:49:49.343750,-9.51
16:49:49.359375,-10.51
16:49:49.375000,-12.58
16:49:49.390625,-15.86
16:49:49.406250,-20.05
16:49:49.421875,-24.64
16:49:49.437500,-29.11
16:49:49.453125,-33.22
16:49:49.468750,-37.15
16:49:49.484375,-41.42
16:49:49.500000,-46.71
16:49:49.515625,-53.57
16:49:49.531250,-62.18
16:49:49.546875,-72.24
16:49:49.562500,-82.85
16:49:49.578125,-92.60
16:49:49.593750,-99.77
16:49:49.609375,-102.62
16:49:49.625000,-99.87
16:49:49.640625,-91.08
16:49:49.656250,-76.84
16:49:49.671875,-58.63
16:49:49.687500,-38.39
16:49:49.703125,-17.89
16:49:49.718750,1.54
16:49:49.734375,19.14
16:49:49.750000,34.43
16:49:49.765625,47.03
16:49:49.781250,56.53
16:49:49.796875,62.58
16:49:49.812500,65.21
16:49:49.828125,64.91
16:49:49.843750,62.59
16:49:49.859375,59.27
16:49:49.875000,55.75
16:49:49.890625,52.42
16:49:49.906250,49.32
16:49:49.921875,46.32
16:49:49.937500,43.34
16:49:49.953125,40.45
16:49:49.968750,37.85
16:49:49.984375,35.67
16:49:50,33.88
16:49:50.015625,32.24
16:49:50.031250,30.35
16:49:50.046875,27.73
16:49:50.062500,23.98
16:49:50.078125,18.91
16:49:50.093750,12.59
16:49:50.109375,5.34
16:49:50.125000,-2.38
16:49:50.140625,-10.20
16:49:50.156250,-17.95
16:49:50.171875,-25.78
16:49:50.187500,-34.05
16:49:50.203125,-43.15
16:49:50.218750,-53.15
16:49:50.234375,-63.56
16:49:50.250000,-73.26
16:49:50.265625,-80.69
16:49:50.281250,-84.14
16:49:50.296875,-82.27
16:49:50.312500,-74.51
16:49:50.328125,-61.20
16:49:50.343750,-43.54
16:49:50.359375,-23.20
16:49:50.375000,-2.02
16:49:50.390625,18.43
16:49:50.406250,36.90
16:49:50.421875,52.52
16:49:50.437500,64.73
16:49:50.453125,73.25
16:49:50.468750,78.13
16:49:50.484375,79.82
16:49:50.500000,79.04
16:49:50.515625,76.68
16:49:50.531250,73.53
16:49:50.546875,70.09
16:49:50.562500,66.49
16:49:50.578125,62.65
16:49:50.593750,58.41
16:49:50.609375,53.78
16:49:50.625000,48.94
16:49:50.640625,44.22
16:49:50.656250,39.91
16:49:50.671875,36.07
16:49:50.687500,32.55
16:49:50.703125,28.98
16:49:50.718750,24.90
16:49:50.734375,19.94
16:49:50.750000,13.93
16:49:50.765625,6.83
16:49:50.781250,-1.23
16:49:50.796875,-10.04
16:49:50.812500,-19.41
16:49:50.828125,-29.17
16:49:50.843750,-39.23
16:49:50.859375,-49.65
16:49:50.875000,-60.58
16:49:50.890625,-72.12
16:49:50.906250,-84.07
16:49:50.921875,-95.69
16:49:50.937500,-105.58
16:49:50.953125,-111.99
16:49:50.968750,-113.21
16:49:50.984375,-108.18
16:49:51,-96.78
16:49:51.015625,-79.85
16:49:51.031250,-58.93
16:49:51.046875,-35.73
16:49:51.062500,-11.81
16:49:51.078125,11.59
16:49:51.093750,33.51
16:49:51.109375,53.11
16:49:51.125000,69.67
16:49:51.140625,82.57
16:49:51.156250,91.53
16:49:51.171875,96.67
16:49:51.187500,98.58
16:49:51.203125,98.12
16:49:51.218750,96.23
16:49:51.234375,93.60
16:49:51.250000,90.59
16:49:51.265625,87.21
16:49:51.281250,83.30
16:49:51.296875,78.80
16:49:51.312500,73.88
16:49:51.328125,68.90
16:49:51.343750,64.22
16:49:51.359375,59.93
16:49:51.375000,55.76
16:49:51.390625,51.12
16:49:51.406250,45.42
16:49:51.421875,38.38
16:49:51.437500,30.16
16:49:51.453125,21.34
16:49:51.468750,12.62
16:49:51.484375,4.48
16:49:51.500000,-3.00
16:49:51.515625,-10.24
16:49:51.531250,-17.96
16:49:51.546875,-26.88
16:49:51.562500,-37.49
16:49:51.578125,-49.73
16:49:51.593750,-62.98
16:49:51.609375,-75.96
16:49:51.625000,-86.95
16:49:51.640625,-94.08
16:49:51.656250,-95.77
16:49:51.671875,-91.13
16:49:51.687500,-80.23
16:49:51.703125,-64.12
16:49:51.718750,-44.49
16:49:51.734375,-23.25
16:49:51.750000,-2.09
16:49:51.765625,17.86
16:49:51.781250,35.97
16:49:51.796875,52.03
16:49:51.812500,65.92
16:49:51.828125,77.45
16:49:51.843750,86.35
16:49:51.859375,92.34
16:49:51.875000,95.41
16:49:51.890625,95.86
16:49:51.906250,94.35
16:49:51.921875,91.64
16:49:51.937500,88.38
16:49:51.953125,84.90
16:49:51.968750,81.15
16:49:51.984375,76.91
16:49:52,71.99
16:49:52.015625,66.42
16:49:52.031250,60.55
16:49:52.046875,54.84
16:49:52.062500,49.67
16:49:52.078125,45.14
16:49:52.093750,41.00
16:49:52.109375,36.79
16:49:52.125000,32.01
16:49:52.140625,26.30
16:49:52.156250,19.60
16:49:52.171875,12.04
16:49:52.187500,3.92
16:49:52.203125,-4.45
16:49:52.218750,-12.89
16:49:52.234375,-21.36
16:49:52.250000,-30.04
16:49:52.265625,-39.21
16:49:52.281250,-49.25
16:49:52.296875,-60.43
16:49:52.312500,-72.69
16:49:52.328125,-85.41
16:49:52.343750,-97.34
16:49:52.359375,-106.70
16:49:52.375000,-111.58
16:49:52.390625,-110.41
16:49:52.406250,-102.49
16:49:52.421875,-88.24
16:49:52.437500,-69.06
16:49:52.453125,-46.96
16:49:52.468750,-23.95
16:49:52.484375,-1.69
16:49:52.500000,18.79
16:49:52.515625,36.97
16:49:52.531250,52.66
16:49:52.546875,65.72
16:49:52.562500,76.00
16:49:52.578125,83.33
16:49:52.593750,87.65
16:49:52.609375,89.08
16:49:52.625000,88.05
16:49:52.640625,85.17
16:49:52.656250,81.14
16:49:52.671875,76.61
16:49:52.687500,72.05
16:49:52.703125,67.70
16:49:52.718750,63.60
16:49:52.734375,59.62
16:49:52.750000,55.60
16:49:52.765625,51.33
16:49:52.781250,46.69
16:49:52.796875,41.59
16:49:52.812500,36.02
16:49:52.828125,30.02
16:49:52.843750,23.68
16:49:52.859375,17.14
16:49:52.875000,10.58
16:49:52.890625,4.25
16:49:52.906250,-1.58
16:49:52.921875,-6.71
16:49:52.937500,-11.10
16:49:52.953125,-14.94
16:49:52.968750,-18.67
16:49:52.984375,-22.89
16:49:53,-28.22
16:49:53.015625,-35.11
16:49:53.031250,-43.83
16:49:53.046875,-54.32
16:49:53.062500,-66.26
16:49:53.078125,-78.97
16:49:53.093750,-91.43
16:49:53.109375,-102.26
16:49:53.125000,-109.89
16:49:53.140625,-112.82
16:49:53.156250,-110.02
16:49:53.171875,-101.15
16:49:53.187500,-86.77
16:49:53.203125,-68.13
16:49:53.218750,-46.98
16:49:53.234375,-25.10
16:49:53.250000,-4.08
16:49:53.265625,14.93
16:49:53.281250,31.21
16:49:53.296875,44.44
16:49:53.312500,54.58
16:49:53.328125,61.80
16:49:53.343750,66.35
16:49:53.359375,68.62
16:49:53.375000,69.05
16:49:53.390625,68.14
16:49:53.406250,66.44
16:49:53.421875,64.42
16:49:53.437500,62.46
16:49:53.453125,60.78
16:49:53.468750,59.38
16:49:53.484375,58.14
16:49:53.500000,56.88
16:49:53.515625,55.41
16:49:53.531250,53.62
16:49:53.546875,51.49
16:49:53.562500,49.05
16:49:53.578125,46.37
16:49:53.593750,43.48
16:49:53.609375,40.39
16:49:53.625000,37.06
16:49:53.640625,33.42
16:49:53.656250,29.31
16:49:53.671875,24.54
16:49:53.687500,18.90
16:49:53.703125,12.23
16:49:53.718750,4.57
16:49:53.734375,-3.82
16:49:53.750000,-12.45
16:49:53.765625,-20.74
16:49:53.781250,-28.23
16:49:53.796875,-34.69
16:49:53.812500,-40.22
16:49:53.828125,-45.19
16:49:53.843750,-50.14
16:49:53.859375,-55.55
16:49:53.875000,-61.73
16:49:53.890625,-68.62
16:49:53.906250,-75.73
16:49:53.921875,-82.16
16:49:53.937500,-86.75
16:49:53.953125,-88.36
16:49:53.968750,-86.17
16:49:53.984375,-79.91
16:49:54,-69.95
16:49:54.015625,-57.10
16:49:54.031250,-42.30
16:49:54.046875,-26.46
16:49:54.062500,-10.26
16:49:54.078125,5.66
16:49:54.093750,20.56
16:49:54.109375,33.55
16:49:54.125000,43.67
16:49:54.140625,50.25
16:49:54.156250,53.16
16:49:54.171875,52.90
16:49:54.187500,50.43
16:49:54.203125,46.78
16:49:54.218750,42.65
16:49:54.234375,38.24
16:49:54.250000,33.32
16:49:54.265625,27.49
16:49:54.281250,20.54
16:49:54.296875,12.62
16:49:54.312500,4.24
16:49:54.328125,-3.87
16:49:54.343750,-11.06
16:49:54.359375,-16.85
16:49:54.375000,-21.08
16:49:54.390625,-23.88
16:49:54.406250,-25.63
16:49:54.421875,-26.92
16:49:54.437500,-28.44
16:49:54.453125,-30.92
16:49:54.468750,-34.91
16:49:54.484375,-40.67
16:49:54.500000,-48.06
16:49:54.515625,-56.47
16:49:54.531250,-65.01
16:49:54.546875,-72.63
16:49:54.562500,-78.42
16:49:54.578125,-81.77
16:49:54.593750,-82.51
16:49:54.609375,-80.98
16:49:54.625000,-77.95
16:49:54.640625,-74.49
16:49:54.656250,-71.73
16:49:54.671875,-70.59
16:49:54.687500,-71.44
16:49:54.703125,-73.87
16:49:54.718750,-76.76
16:49:54.734375,-78.50
16:49:54.750000,-77.42
16:49:54.765625,-72.37
16:49:54.781250,-62.95
16:49:54.796875,-49.59
16:49:54.812500,-33.35
16:49:54.828125,-15.48
16:49:54.843750,2.86
16:49:54.859375,20.79
16:49:54.875000,37.69
16:49:54.890625,53.15
16:49:54.906250,66.75
16:49:54.921875,78.17
16:49:54.937500,87.20
16:49:54.953125,93.88
16:49:54.968750,98.50
16:49:54.984375,101.55
16:49:55,103.53
16:49:55.015625,104.81
16:49:55.031250,105.60
16:49:55.046875,105.89
16:49:55.062500,105.56
16:49:55.078125,104.50
16:49:55.093750,102.72
16:49:55.109375,100.34
16:49:55.125000,97.58
16:49:55.140625,94.66
16:49:55.156250,91.71
16:49:55.171875,88.77
16:49:55.187500,85.81
16:49:55.203125,82.80
16:49:55.218750,79.75
16:49:55.234375,76.70
16:49:55.250000,73.64
16:49:55.265625,70.41
16:49:55.281250,66.67
16:49:55.296875,61.95
16:49:55.312500,55.77
16:49:55.328125,47.90
16:49:55.343750,38.44
16:49:55.359375,27.95
16:49:55.375000,17.36
16:49:55.390625,7.71
16:49:55.406250,-0.11
16:49:55.421875,-5.69
16:49:55.437500,-9.23
16:49:55.453125,-11.53
16:49:55.468750,-13.70
16:49:55.484375,-16.81
16:49:55.500000,-21.45
16:49:55.515625,-27.55
16:49:55.531250,-34.39
16:49:55.546875,-40.79
16:49:55.562500,-45.52
16:49:55.578125,-47.57
16:49:55.593750,-46.39
16:49:55.609375,-41.91
16:49:55.625000,-34.50
16:49:55.640625,-24.88
16:49:55.656250,-14.01
16:49:55.671875,-3.01
16:49:55.687500,6.94
16:49:55.703125,14.78
16:49:55.718750,19.61
16:49:55.734375,20.98
16:49:55.750000,18.93
16:49:55.765625,13.99
16:49:55.781250,7.06
16:49:55.796875,-0.74
16:49:55.812500,-8.28
16:49:55.828125,-14.51
16:49:55.843750,-18.54
16:49:55.859375,-19.72
16:49:55.875000,-17.71
16:49:55.890625,-12.67
16:49:55.906250,-5.31
16:49:55.921875,3.20
16:49:55.937500,11.43
16:49:55.953125,18.01
16:49:55.968750,21.87
16:49:55.984375,22.34
16:49:56,19.15
16:49:56.015625,12.48
16:49:56.031250,2.91
16:49:56.046875,-8.46
16:49:56.062500,-20.15
16:49:56.078125,-30.47
16:49:56.093750,-37.95
16:49:56.109375,-41.70
16:49:56.125000,-41.70
16:49:56.140625,-38.74
16:49:56.156250,-34.13
16:49:56.171875,-29.30
16:49:56.187500,-25.50
16:49:56.203125,-23.62
16:49:56.218750,-24.27
16:49:56.234375,-27.82
16:49:56.250000,-34.50
16:49:56.265625,-44.18
16:49:56.281250,-56.20
16:49:56.296875,-69.13
16:49:56.312500,-80.81
16:49:56.328125,-88.74
16:49:56.343750,-90.64
16:49:56.359375,-85.33
16:49:56.375000,-73.09
16:49:56.390625,-55.74
16:49:56.406250,-36.14
16:49:56.421875,-17.28
16:49:56.437500,-1.51
16:49:56.453125,10.00
16:49:56.468750,17.24
16:49:56.484375,21.06
16:49:56.500000,22.66
16:49:56.515625,23.21
16:49:56.531250,23.70
16:49:56.546875,24.91
16:49:56.562500,27.42
16:49:56.578125,31.49
16:49:56.593750,36.95
16:49:56.609375,43.05
16:49:56.625000,48.53
16:49:56.640625,51.97
16:49:56.656250,52.21
16:49:56.671875,48.79
16:49:56.687500,42.18
16:49:56.703125,33.59
16:49:56.718750,24.62
16:49:56.734375,16.73
16:49:56.750000,10.85
16:49:56.765625,7.23
16:49:56.781250,5.47
16:49:56.796875,4.71
16:49:56.812500,3.93
16:49:56.828125,2.22
16:49:56.843750,-0.97
16:49:56.859375,-5.63
16:49:56.875000,-11.10
16:49:56.890625,-16.32
16:49:56.906250,-20.15
16:49:56.921875,-21.98
16:49:56.937500,-22.07
16:49:56.953125,-21.55
16:49:56.968750,-22.13
16:49:56.984375,-25.51
16:49:57,-32.82
16:49:57.015625,-44.18
16:49:57.031250,-58.68
16:49:57.046875,-74.50
16:49:57.062500,-89.19
16:49:57.078125,-100.21
16:49:57.093750,-105.34
16:49:57.109375,-103.26
16:49:57.125000,-93.85
16:49:57.140625,-78.33
16:49:57.156250,-58.96
16:49:57.171875,-38.45
16:49:57.187500,-19.32
16:49:57.203125,-3.36
16:49:57.218750,8.53
16:49:57.234375,16.22
16:49:57.250000,20.08
16:49:57.265625,20.71
16:49:57.281250,18.86
16:49:57.296875,15.35
16:49:57.312500,11.00
16:49:57.328125,6.59
16:49:57.343750,2.64
16:49:57.359375,-0.59
16:49:57.375000,-3.18
16:49:57.390625,-5.33
16:49:57.406250,-7.23
16:49:57.421875,-8.91
16:49:57.437500,-10.19
16:49:57.453125,-10.77
16:49:57.468750,-10.48
16:49:57.484375,-9.37
16:49:57.500000,-7.77
16:49:57.515625,-6.28
16:49:57.531250,-5.49
16:49:57.546875,-5.86
16:49:57.562500,-7.54
16:49:57.578125,-10.46
16:49:57.593750,-14.48
16:49:57.609375,-19.57
16:49:57.625000,-25.89
16:49:57.640625,-33.79
16:49:57.656250,-43.55
16:49:57.671875,-55.24
16:49:57.687500,-68.47
16:49:57.703125,-82.44
16:49:57.718750,-95.97
16:49:57.734375,-107.68
16:49:57.750000,-116.16
16:49:57.765625,-120.18
16:49:57.781250,-118.93
16:49:57.796875,-112.20
16:49:57.812500,-100.41
16:49:57.828125,-84.54
16:49:57.843750,-65.90
16:49:57.859375,-45.75
16:49:57.875000,-25.13
16:49:57.890625,-4.74
16:49:57.906250,14.91
16:49:57.921875,33.24
16:49:57.937500,49.45
16:49:57.953125,62.48
16:49:57.968750,71.19
16:49:57.984375,74.71
16:49:58,72.76
16:49:58.015625,65.86
16:49:58.031250,55.30
16:49:58.046875,42.88
16:49:58.062500,30.54
16:49:58.078125,20.07
16:49:58.093750,12.67
16:49:58.109375,8.87
16:49:58.125000,8.48
16:49:58.140625,10.71
16:49:58.156250,14.34
16:49:58.171875,18.01
16:49:58.187500,20.53
16:49:58.203125,21.12
16:49:58.218750,19.50
16:49:58.234375,15.87
16:49:58.250000,10.74
16:49:58.265625,4.74
16:49:58.281250,-1.60
16:49:58.296875,-7.93
16:49:58.312500,-14.12
16:49:58.328125,-20.30
16:49:58.343750,-26.82
16:49:58.359375,-34.13
16:49:58.375000,-42.72
16:49:58.390625,-52.86
16:49:58.406250,-64.35
16:49:58.421875,-76.33
16:49:58.437500,-87.23
16:49:58.453125,-95.09
16:49:58.468750,-98.12
16:49:58.484375,-95.21
16:49:58.500000,-86.37
16:49:58.515625,-72.71
16:49:58.531250,-55.96
16:49:58.546875,-37.93
16:49:58.562500,-19.94
16:49:58.578125,-2.65
16:49:58.593750,13.78
16:49:58.609375,29.25
16:49:58.625000,43.45
16:49:58.640625,55.73
16:49:58.656250,65.34
16:49:58.671875,71.66
16:49:58.687500,74.47
16:49:58.703125,73.98
16:49:58.718750,70.76
16:49:58.734375,65.57
16:49:58.750000,59.18
16:49:58.765625,52.33
16:49:58.781250,45.67
16:49:58.796875,39.68
16:49:58.812500,34.76
16:49:58.828125,31.07
16:49:58.843750,28.51
16:49:58.859375,26.75
16:49:58.875000,25.21
16:49:58.890625,23.17
16:49:58.906250,19.99
16:49:58.921875,15.27
16:49:58.937500,8.98
16:49:58.953125,1.52
16:49:58.968750,-6.47
16:49:58.984375,-14.34
16:49:59,-21.63
16:49:59.015625,-28.30
16:49:59.031250,-34.67
16:49:59.046875,-41.27
16:49:59.062500,-48.67
16:49:59.078125,-57.24
16:49:59.093750,-67.05
16:49:59.109375,-77.69
16:49:59.125000,-88.26
16:49:59.140625,-97.43
16:49:59.156250,-103.60
16:49:59.171875,-105.27
16:49:59.187500,-101.48
16:49:59.203125,-92.10
16:49:59.218750,-77.86
16:49:59.234375,-60.18
16:49:59.250000,-40.66
16:49:59.265625,-20.67
16:49:59.281250,-1.08
16:49:59.296875,17.67
16:49:59.312500,35.38
16:49:59.328125,51.71
16:49:59.343750,66.06
16:49:59.359375,77.67
16:49:59.375000,85.84
16:49:59.390625,90.27
16:49:59.406250,91.22
16:49:59.421875,89.41
16:49:59.437500,85.81
16:49:59.453125,81.34
16:49:59.468750,76.63
16:49:59.484375,71.97
16:49:59.500000,67.43
16:49:59.515625,62.97
16:49:59.531250,58.55
16:49:59.546875,54.18
16:49:59.562500,49.75
16:49:59.578125,45.08
16:49:59.593750,39.86
16:49:59.609375,33.82
16:49:59.625000,26.82
16:49:59.640625,19.02
16:49:59.656250,10.80
16:49:59.671875,2.69
16:49:59.687500,-4.89
16:49:59.703125,-11.83
16:49:59.718750,-18.38
16:49:59.734375,-25.20
16:49:59.750000,-33.07
16:49:59.765625,-42.70
16:49:59.781250,-54.36
16:49:59.796875,-67.66
16:49:59.812500,-81.49
16:49:59.828125,-94.06
16:49:59.843750,-103.24
16:49:59.859375,-107.13
16:49:59.875000,-104.52
16:49:59.890625,-95.28
16:49:59.906250,-80.44
16:49:59.921875,-61.80
16:49:59.937500,-41.43
16:49:59.953125,-21.04
16:49:59.968750,-1.66
16:49:59.984375,16.41
16:50:00,33.28
16:50:00.015625,49.03
16:50:00.031250,63.43
16:50:00.046875,75.78
16:50:00.062500,85.18
16:50:00.078125,90.86
16:50:00.093750,92.57
16:50:00.109375,90.68
16:50:00.125000,86.18
16:50:00.140625,80.29
16:50:00.156250,74.17
16:50:00.171875,68.66
16:50:00.187500,64.16
16:50:00.203125,60.70
16:50:00.218750,58.17
16:50:00.234375,56.34
16:50:00.250000,54.99
16:50:00.265625,53.81
16:50:00.281250,52.38
16:50:00.296875,50.21
16:50:00.312500,46.78
16:50:00.328125,41.75
16:50:00.343750,35.07
16:50:00.359375,26.99
16:50:00.375000,18.00
16:50:00.390625,8.57
16:50:00.406250,-0.98
16:50:00.421875,-10.67
16:50:00.437500,-20.74
16:50:00.453125,-31.59
16:50:00.468750,-43.50
16:50:00.484375,-56.36
16:50:00.500000,-69.52
16:50:00.515625,-81.71
16:50:00.531250,-91.17
16:50:00.546875,-96.09
16:50:00.562500,-95.06
16:50:00.578125,-87.49
16:50:00.593750,-73.85
16:50:00.609375,-55.52
16:50:00.625000,-34.34
16:50:00.640625,-12.12
16:50:00.656250,9.81
16:50:00.671875,30.70
16:50:00.687500,50.22
16:50:00.703125,68.16
16:50:00.718750,84.08
16:50:00.734375,97.31
16:50:00.750000,107.03
16:50:00.765625,112.62
16:50:00.781250,113.87
16:50:00.796875,111.11
16:50:00.812500,105.09
16:50:00.828125,96.75
16:50:00.843750,86.93
16:50:00.859375,76.31
16:50:00.875000,65.28
16:50:00.890625,54.16
16:50:00.906250,43.27
16:50:00.921875,33.01
16:50:00.937500,23.82
16:50:00.953125,16.05
16:50:00.968750,9.80
16:50:00.984375,4.85
16:50:01,0.72
16:50:01.015625,-3.24
16:50:01.031250,-7.61
16:50:01.046875,-12.76
16:50:01.062500,-18.78
16:50:01.078125,-25.47
16:50:01.093750,-32.54
16:50:01.109375,-39.70
16:50:01.125000,-46.84
16:50:01.140625,-53.95
16:50:01.156250,-61.17
16:50:01.171875,-68.66
16:50:01.187500,-76.52
16:50:01.203125,-84.78
16:50:01.218750,-93.24
16:50:01.234375,-101.45
16:50:01.250000,-108.51
16:50:01.265625,-113.22
16:50:01.281250,-114.22
16:50:01.296875,-110.40
16:50:01.312500,-101.21
16:50:01.328125,-86.92
16:50:01.343750,-68.54
16:50:01.359375,-47.61
16:50:01.375000,-25.74
16:50:01.390625,-4.32
16:50:01.406250,15.71
16:50:01.421875,33.73
16:50:01.437500,49.39
16:50:01.453125,62.36
16:50:01.468750,72.35
16:50:01.484375,79.16
16:50:01.500000,82.80
16:50:01.515625,83.56
16:50:01.531250,82.05
16:50:01.546875,79.06
16:50:01.562500,75.32
16:50:01.578125,71.41
16:50:01.593750,67.61
16:50:01.609375,64.03
16:50:01.625000,60.66
16:50:01.640625,57.54
16:50:01.656250,54.76
16:50:01.671875,52.41
16:50:01.687500,50.48
16:50:01.703125,48.74
16:50:01.718750,46.82
16:50:01.734375,44.22
16:50:01.750000,40.50
16:50:01.765625,35.34
16:50:01.781250,28.71
16:50:01.796875,20.81
16:50:01.812500,12.14
16:50:01.828125,3.32
16:50:01.843750,-5.04
16:50:01.859375,-12.51
16:50:01.875000,-19.01
16:50:01.890625,-24.83
16:50:01.906250,-30.50
16:50:01.921875,-36.60
16:50:01.937500,-43.59
16:50:01.953125,-51.72
16:50:01.968750,-60.95
16:50:01.984375,-70.91
16:50:02,-80.88
16:50:02.015625,-89.76
16:50:02.031250,-96.08
16:50:02.046875,-98.37
16:50:02.062500,-95.40
16:50:02.078125,-86.68
16:50:02.093750,-72.57
16:50:02.109375,-54.25
16:50:02.125000,-33.35
16:50:02.140625,-11.57
16:50:02.156250,9.65
16:50:02.171875,29.36
16:50:02.187500,46.93
16:50:02.203125,62.01
16:50:02.218750,74.25
16:50:02.234375,83.28
16:50:02.250000,88.77
16:50:02.265625,90.57
16:50:02.281250,88.93
16:50:02.296875,84.61
16:50:02.312500,78.71
16:50:02.328125,72.46
16:50:02.343750,66.81
16:50:02.359375,62.17
16:50:02.375000,58.42
16:50:02.390625,55.04
16:50:02.406250,51.49
16:50:02.421875,47.45
16:50:02.437500,42.98
16:50:02.453125,38.37
16:50:02.468750,33.92
16:50:02.484375,29.75
16:50:02.500000,25.74
16:50:02.515625,21.57
16:50:02.531250,16.90
16:50:02.546875,11.55
16:50:02.562500,5.51
16:50:02.578125,-0.98
16:50:02.593750,-7.66
16:50:02.609375,-14.27
16:50:02.625000,-20.73
16:50:02.640625,-27.06
16:50:02.656250,-33.33
16:50:02.671875,-39.60
16:50:02.687500,-45.88
16:50:02.703125,-52.25
16:50:02.718750,-58.93
16:50:02.734375,-66.22
16:50:02.750000,-74.32
16:50:02.765625,-83.00
16:50:02.781250,-91.38
16:50:02.796875,-97.91
16:50:02.812500,-100.80
16:50:02.828125,-98.53
16:50:02.843750,-90.46
16:50:02.859375,-77.06
16:50:02.875000,-59.72
16:50:02.890625,-40.35
16:50:02.906250,-20.77
16:50:02.921875,-2.34
16:50:02.937500,14.20
16:50:02.953125,28.54
16:50:02.968750,40.60
16:50:02.984375,50.27
16:50:03,57.36
16:50:03.015625,61.71
16:50:03.031250,63.29
16:50:03.046875,62.40
16:50:03.062500,59.61
16:50:03.078125,55.75
16:50:03.093750,51.59
16:50:03.109375,47.70
16:50:03.125000,44.33
16:50:03.140625,41.43
16:50:03.156250,38.77
16:50:03.171875,36.10
16:50:03.187500,33.31
16:50:03.203125,30.37
16:50:03.218750,27.33
16:50:03.234375,24.18
16:50:03.250000,20.80
16:50:03.265625,16.98
16:50:03.281250,12.45
16:50:03.296875,7.06
16:50:03.312500,0.84
16:50:03.328125,-6.03
16:50:03.343750,-13.22
16:50:03.359375,-20.41
16:50:03.375000,-27.38
16:50:03.390625,-34.02
16:50:03.406250,-40.36
16:50:03.421875,-46.47
16:50:03.437500,-52.58
16:50:03.453125,-58.99
16:50:03.468750,-66.12
16:50:03.484375,-74.34
16:50:03.500000,-83.72
16:50:03.515625,-93.83
16:50:03.531250,-103.52
16:50:03.546875,-111.18
16:50:03.562500,-115.01
16:50:03.578125,-113.54
16:50:03.593750,-106.07
16:50:03.609375,-92.88
16:50:03.625000,-75.14
16:50:03.640625,-54.55
16:50:03.656250,-32.94
16:50:03.671875,-11.80
16:50:03.687500,7.86
16:50:03.703125,25.53
16:50:03.718750,41.02
16:50:03.734375,54.23
16:50:03.750000,65.01
16:50:03.765625,73.13
16:50:03.781250,78.46
16:50:03.796875,81.00
16:50:03.812500,81.11
16:50:03.828125,79.37
16:50:03.843750,76.48
16:50:03.859375,73.03
16:50:03.875000,69.44
16:50:03.890625,65.88
16:50:03.906250,62.34
16:50:03.921875,58.74
16:50:03.937500,54.97
16:50:03.953125,51.00
16:50:03.968750,46.82
16:50:03.984375,42.50
16:50:04,38.12
16:50:04.015625,33.74
16:50:04.031250,29.39
16:50:04.046875,24.97
16:50:04.062500,20.24
16:50:04.078125,14.95
16:50:04.093750,8.87
16:50:04.109375,2.00
16:50:04.125000,-5.42
16:50:04.140625,-13.01
16:50:04.156250,-20.41
16:50:04.171875,-27.40
16:50:04.187500,-34.02
16:50:04.203125,-40.48
16:50:04.218750,-47.12
16:50:04.234375,-54.33
16:50:04.250000,-62.48
16:50:04.265625,-71.84
16:50:04.281250,-82.36
16:50:04.296875,-93.45
16:50:04.312500,-103.86
16:50:04.328125,-111.75
16:50:04.343750,-115.18
16:50:04.359375,-112.70
16:50:04.375000,-103.82
16:50:04.390625,-89.29
16:50:04.406250,-70.79
16:50:04.421875,-50.41
16:50:04.437500,-29.96
16:50:04.453125,-10.67
16:50:04.468750,6.99
16:50:04.484375,22.96
16:50:04.500000,37.39
16:50:04.515625,50.25
16:50:04.531250,61.34
16:50:04.546875,70.29
16:50:04.562500,76.73
16:50:04.578125,80.47
16:50:04.593750,81.54
16:50:04.609375,80.23
16:50:04.625000,77.07
16:50:04.640625,72.72
16:50:04.656250,67.88
16:50:04.671875,63.19
16:50:04.687500,59.12
16:50:04.703125,55.93
16:50:04.718750,53.59
16:50:04.734375,51.80
16:50:04.750000,50.06
16:50:04.765625,47.77
16:50:04.781250,44.46
16:50:04.796875,39.90
16:50:04.812500,34.19
16:50:04.828125,27.75
16:50:04.843750,21.09
16:50:04.859375,14.64
16:50:04.875000,8.54
16:50:04.890625,2.60
16:50:04.906250,-3.56
16:50:04.921875,-10.23
16:50:04.937500,-17.48
16:50:04.953125,-25.05
16:50:04.968750,-32.53
16:50:04.984375,-39.54
16:50:05,-45.94
16:50:05.015625,-51.92
16:50:05.031250,-57.94
16:50:05.046875,-64.59
16:50:05.062500,-72.36
16:50:05.078125,-81.49
16:50:05.093750,-91.71
16:50:05.109375,-102.18
16:50:05.125000,-111.43
16:50:05.140625,-117.70
16:50:05.156250,-119.33
16:50:05.171875,-115.23
16:50:05.187500,-105.28
16:50:05.203125,-90.33
16:50:05.218750,-71.94
16:50:05.234375,-51.93
16:50:05.250000,-31.86
16:50:05.265625,-12.74
16:50:05.281250,4.93
16:50:05.296875,21.05
16:50:05.312500,35.56
16:50:05.328125,48.27
16:50:05.343750,58.80
16:50:05.359375,66.72
16:50:05.375000,71.74
16:50:05.390625,73.95
16:50:05.406250,73.84
16:50:05.421875,72.26
16:50:05.437500,70.05
16:50:05.453125,67.89
16:50:05.468750,66.12
16:50:05.484375,64.78
16:50:05.500000,63.74
16:50:05.515625,62.90
16:50:05.531250,62.18
16:50:05.546875,61.50
16:50:05.562500,60.66
16:50:05.578125,59.36
16:50:05.593750,57.21
16:50:05.609375,53.91
16:50:05.625000,49.35
16:50:05.640625,43.72
16:50:05.656250,37.46
16:50:05.671875,31.14
16:50:05.687500,25.27
16:50:05.703125,20.15
16:50:05.718750,15.76
16:50:05.734375,11.85
16:50:05.750000,8.03
16:50:05.765625,3.93
16:50:05.781250,-0.61
16:50:05.796875,-5.60
16:50:05.812500,-10.92
16:50:05.828125,-16.47
16:50:05.843750,-22.24
16:50:05.859375,-28.36
16:50:05.875000,-35.04
16:50:05.890625,-42.57
16:50:05.906250,-51.23
16:50:05.921875,-61.23
16:50:05.937500,-72.52
16:50:05.953125,-84.63
16:50:05.968750,-96.45
16:50:05.984375,-106.29
16:50:06,-112.17
16:50:06.015625,-112.37
16:50:06.031250,-105.93
16:50:06.046875,-93.06
16:50:06.062500,-75.01
16:50:06.078125,-53.72
16:50:06.093750,-31.19
16:50:06.109375,-9.09
16:50:06.125000,11.48
16:50:06.140625,29.89
16:50:06.156250,45.71
16:50:06.171875,58.56
16:50:06.187500,68.11
16:50:06.203125,74.19
16:50:06.218750,76.98
16:50:06.234375,77.06
16:50:06.250000,75.28
16:50:06.265625,72.58
16:50:06.281250,69.70
16:50:06.296875,67.06
16:50:06.312500,64.77
16:50:06.328125,62.75
16:50:06.343750,60.86
16:50:06.359375,59.07
16:50:06.375000,57.44
16:50:06.390625,56.12
16:50:06.406250,55.15
16:50:06.421875,54.39
16:50:06.437500,53.40
16:50:06.453125,51.60
16:50:06.468750,48.45
16:50:06.484375,43.62
16:50:06.500000,37.24
16:50:06.515625,29.84
16:50:06.531250,22.19
16:50:06.546875,15.01
16:50:06.562500,8.71
16:50:06.578125,3.32
16:50:06.593750,-1.49
16:50:06.609375,-6.16
16:50:06.625000,-11.08
16:50:06.640625,-16.42
16:50:06.656250,-22.10
16:50:06.671875,-27.96
16:50:06.687500,-33.79
16:50:06.703125,-39.51
16:50:06.718750,-45.22
16:50:06.734375,-51.17
16:50:06.750000,-57.70
16:50:06.765625,-65.16
16:50:06.781250,-73.76
16:50:06.796875,-83.40
16:50:06.812500,-93.48
16:50:06.828125,-102.88
16:50:06.843750,-109.97
16:50:06.859375,-113.03
16:50:06.875000,-110.65
16:50:06.890625,-102.28
16:50:06.906250,-88.45
16:50:06.921875,-70.69
16:50:06.937500,-51.05
16:50:06.953125,-31.54
16:50:06.968750,-13.59
16:50:06.984375,2.11
16:50:07,15.46
16:50:07.015625,26.67
16:50:07.031250,35.92
16:50:07.046875,43.24
16:50:07.062500,48.50
16:50:07.078125,51.59
16:50:07.093750,52.59
16:50:07.109375,51.80
16:50:07.125000,49.73
16:50:07.140625,46.96
16:50:07.156250,44.02
16:50:07.171875,41.35
16:50:07.187500,39.21
16:50:07.203125,37.78
16:50:07.218750,37.20
16:50:07.234375,37.49
16:50:07.250000,38.57
16:50:07.265625,40.09
16:50:07.281250,41.49
16:50:07.296875,42.07
16:50:07.312500,41.22
16:50:07.328125,38.70
16:50:07.343750,34.72
16:50:07.359375,29.97
16:50:07.375000,25.34
16:50:07.390625,21.56
16:50:07.406250,18.92
16:50:07.421875,17.15
16:50:07.437500,15.58
16:50:07.453125,13.45
16:50:07.468750,10.23
16:50:07.484375,5.83
16:50:07.500000,0.58
16:50:07.515625,-4.97
16:50:07.531250,-10.35
16:50:07.546875,-15.34
16:50:07.562500,-20.15
16:50:07.578125,-25.30
16:50:07.593750,-31.46
16:50:07.609375,-39.23
16:50:07.625000,-48.92
16:50:07.640625,-60.38
16:50:07.656250,-72.88
16:50:07.671875,-85.09
16:50:07.687500,-95.26
16:50:07.703125,-101.58
16:50:07.718750,-102.57
16:50:07.734375,-97.53
16:50:07.750000,-86.80
16:50:07.765625,-71.68
16:50:07.781250,-54.10
16:50:07.796875,-36.05
16:50:07.812500,-19.19
16:50:07.828125,-4.47
16:50:07.843750,7.78
16:50:07.859375,17.60
16:50:07.875000,25.17
16:50:07.890625,30.59
16:50:07.906250,33.84
16:50:07.921875,34.93
16:50:07.937500,34.02
16:50:07.953125,31.51
16:50:07.968750,28.05
16:50:07.984375,24.34
16:50:08,21.04
16:50:08.015625,18.58
16:50:08.031250,17.11
16:50:08.046875,16.60
16:50:08.062500,16.88
16:50:08.078125,17.75
16:50:08.093750,19.03
16:50:08.109375,20.46
16:50:08.125000,21.74
16:50:08.140625,22.51
16:50:08.156250,22.38
16:50:08.171875,21.17
16:50:08.187500,18.88
16:50:08.203125,15.79
16:50:08.218750,12.28
16:50:08.234375,8.65
16:50:08.250000,5.01
16:50:08.265625,1.27
16:50:08.281250,-2.69
16:50:08.296875,-6.94
16:50:08.312500,-11.35
16:50:08.328125,-15.70
16:50:08.343750,-19.76
16:50:08.359375,-23.49
16:50:08.375000,-27.05
16:50:08.390625,-30.80
16:50:08.406250,-35.07
16:50:08.421875,-40.12
16:50:08.437500,-46.01
16:50:08.453125,-52.53
16:50:08.468750,-59.13
16:50:08.484375,-64.94
16:50:08.500000,-68.83
16:50:08.515625,-69.65
16:50:08.531250,-66.46
16:50:08.546875,-58.91
16:50:08.562500,-47.34
16:50:08.578125,-32.75
16:50:08.593750,-16.50
16:50:08.609375,0.07
16:50:08.625000,15.82
16:50:08.640625,30.05
16:50:08.656250,42.31
16:50:08.671875,52.33
16:50:08.687500,59.90
16:50:08.703125,64.83
16:50:08.718750,67.07
16:50:08.734375,66.79
16:50:08.750000,64.45
16:50:08.765625,60.72
16:50:08.781250,56.41
16:50:08.796875,52.20
16:50:08.812500,48.56
16:50:08.828125,45.62
16:50:08.843750,43.21
16:50:08.859375,40.99
16:50:08.875000,38.64
16:50:08.890625,35.93
16:50:08.906250,32.85
16:50:08.921875,29.51
16:50:08.937500,26.09
16:50:08.953125,22.67
16:50:08.968750,19.30
16:50:08.984375,15.92
16:50:09,12.45
16:50:09.015625,8.76
16:50:09.031250,4.70
16:50:09.046875,0.19
16:50:09.062500,-4.80
16:50:09.078125,-10.14
16:50:09.093750,-15.56
16:50:09.109375,-20.65
16:50:09.125000,-25.11
16:50:09.140625,-28.87
16:50:09.156250,-32.20
16:50:09.171875,-35.68
16:50:09.187500,-39.97
16:50:09.203125,-45.63
16:50:09.218750,-52.87
16:50:09.234375,-61.45
16:50:09.250000,-70.63
16:50:09.265625,-79.19
16:50:09.281250,-85.59
16:50:09.296875,-88.24
16:50:09.312500,-85.90
16:50:09.328125,-78.07
16:50:09.343750,-65.25
16:50:09.359375,-48.82
16:50:09.375000,-30.67
16:50:09.390625,-12.63
16:50:09.406250,3.96
16:50:09.421875,18.40
16:50:09.437500,30.55
16:50:09.453125,40.50
16:50:09.468750,48.24
16:50:09.484375,53.62
16:50:09.500000,56.38
16:50:09.515625,56.40
16:50:09.531250,53.80
16:50:09.546875,49.10
16:50:09.562500,43.12
16:50:09.578125,36.88
16:50:09.593750,31.31
16:50:09.609375,27.17
16:50:09.625000,24.75
16:50:09.640625,23.97
16:50:09.656250,24.37
16:50:09.671875,25.31
16:50:09.687500,26.16
16:50:09.703125,26.43
16:50:09.718750,25.85
16:50:09.734375,24.28
16:50:09.750000,21.75
16:50:09.765625,18.30
16:50:09.781250,14.12
16:50:09.796875,9.41
16:50:09.812500,4.46
16:50:09.828125,-0.45
16:50:09.843750,-5.11
16:50:09.859375,-9.37
16:50:09.875000,-13.24
16:50:09.890625,-16.78
16:50:09.906250,-20.17
16:50:09.921875,-23.68
16:50:09.937500,-27.67
16:50:09.953125,-32.55
16:50:09.968750,-38.73
16:50:09.984375,-46.46
16:50:10,-55.71
16:50:10.015625,-66.05
16:50:10.031250,-76.58
16:50:10.046875,-85.96
16:50:10.062500,-92.63
16:50:10.078125,-95.17
16:50:10.093750,-92.60
16:50:10.109375,-84.76
16:50:10.125000,-72.35
16:50:10.140625,-56.73
16:50:10.156250,-39.55
16:50:10.171875,-22.34
16:50:10.187500,-6.21
16:50:10.203125,8.21
16:50:10.218750,20.55
16:50:10.234375,30.52
16:50:10.250000,37.84
16:50:10.265625,42.30
16:50:10.281250,43.93
