18:26:38,-0.00
18:26:38.015625,-0.00
18:26:38.031250,-0.00
18:26:38.046875,-0.00
18:26:38.062500,-0.00
18:26:38.078125,-0.00
18:26:38.093750,-0.00
18:26:38.109375,-0.00
18:26:38.125000,-0.00
18:26:38.140625,-0.00
18:26:38.156250,0.00
18:26:38.171875,0.01
18:26:38.187500,0.01
18:26:38.203125,-0.00
18:26:38.218750,-0.03
18:26:38.234375,-0.05
18:26:38.250000,-0.05
18:26:38.265625,0.00
18:26:38.281250,0.13
18:26:38.296875,0.36
18:26:38.312500,0.66
18:26:38.328125,1.01
18:26:38.343750,1.37
18:26:38.359375,1.72
18:26:38.375000,2.06
18:26:38.390625,2.40
18:26:38.406250,2.79
18:26:38.421875,3.23
18:26:38.437500,3.79
18:26:38.453125,4.41
18:26:38.468750,5.07
18:26:38.484375,5.70
18:26:38.500000,6.26
18:26:38.515625,6.73
18:26:38.531250,7.14
18:26:38.546875,7.53
18:26:38.562500,7.96
18:26:38.578125,8.53
18:26:38.593750,9.22
18:26:38.609375,9.94
18:26:38.625000,10.62
18:26:38.640625,11.20
18:26:38.656250,11.71
18:26:38.671875,12.27
18:26:38.687500,13.06
18:26:38.703125,14.22
18:26:38.718750,16.00
18:26:38.734375,18.25
18:26:38.750000,20.74
18:26:38.765625,23.21
18:26:38.781250,25.46
18:26:38.796875,27.48
18:26:38.812500,29.52
18:26:38.828125,31.93
18:26:38.843750,35.02
18:26:38.859375,39.24
18:26:38.875000,44.35
18:26:38.890625,49.96
18:26:38.906250,55.53
18:26:38.921875,60.65
18:26:38.937500,65.19
18:26:38.953125,69.42
18:26:38.968750,73.85
18:26:38.984375,78.98
18:26:39,85.52
18:26:39.015625,93.27
18:26:39.031250,101.75
18:26:39.046875,110.22
18:26:39.062500,117.99
18:26:39.078125,124.74
18:26:39.093750,130.61
18:26:39.109375,136.57
18:26:39.125000,141.24
18:26:39.140625,147.22
18:26:39.156250,155.66
18:26:39.171875,167.27
18:26:39.187500,181.15
18:26:39.203125,194.23
18:26:39.218750,201.61
18:26:39.234375,197.86
18:26:39.250000,179.00
18:26:39.265625,144.02
18:26:39.281250,95.73
18:26:39.296875,38.77
18:26:39.312500,-21.68
18:26:39.328125,-81.89
18:26:39.343750,-140.33
18:26:39.359375,-197.19
18:26:39.375000,-253.36
18:26:39.390625,-309.47
18:26:39.406250,-365.60
18:26:39.421875,-420.91
18:26:39.437500,-474.31
18:26:39.453125,-523.63
18:26:39.468750,-565.21
18:26:39.484375,-594.05
18:26:39.500000,-604.79
18:26:39.515625,-593.61
18:26:39.531250,-559.78
18:26:39.546875,-506.33
18:26:39.562500,-438.93
18:26:39.578125,-364.54
18:26:39.593750,-289.22
18:26:39.609375,-217.18
18:26:39.625000,-151.27
18:26:39.640625,-92.80
18:26:39.656250,-42.36
18:26:39.671875,-0.14
18:26:39.687500,34.13
18:26:39.703125,61.43
18:26:39.718750,83.13
18:26:39.734375,100.63
18:26:39.750000,114.92
18:26:39.765625,126.34
18:26:39.781250,134.87
18:26:39.796875,140.24
18:26:39.812500,142.48
18:26:39.828125,142.00
18:26:39.843750,139.66
18:26:39.859375,136.39
18:26:39.875000,132.92
18:26:39.890625,129.56
18:26:39.906250,126.21
18:26:39.921875,122.54
18:26:39.937500,118.17
18:26:39.953125,112.94
18:26:39.968750,106.98
18:26:39.984375,100.59
18:26:40,94.24
18:26:40.015625,88.32
18:26:40.031250,83.04
18:26:40.046875,78.40
18:26:40.062500,74.22
18:26:40.078125,70.21
18:26:40.093750,66.08
18:26:40.109375,61.68
18:26:40.125000,56.99
18:26:40.140625,52.19
18:26:40.156250,47.52
18:26:40.171875,43.24
18:26:40.187500,39.48
18:26:40.203125,36.25
18:26:40.218750,33.41
18:26:40.234375,30.79
18:26:40.250000,28.29
18:26:40.265625,25.88
18:26:40.281250,23.59
18:26:40.296875,21.47
18:26:40.312500,19.51
18:26:40.328125,17.68
18:26:40.343750,15.94
18:26:40.359375,14.30
18:26:40.375000,12.81
18:26:40.390625,11.53
18:26:40.406250,10.49
18:26:40.421875,9.68
18:26:40.437500,9.03
18:26:40.453125,8.51
18:26:40.468750,8.10
18:26:40.484375,7.81
18:26:40.500000,7.63
18:26:40.515625,7.50
18:26:40.531250,7.33
18:26:40.546875,7.02
18:26:40.562500,6.56
18:26:40.578125,6.01
18:26:40.593750,5.51
18:26:40.609375,5.18
18:26:40.625000,5.09
18:26:40.640625,5.19
18:26:40.656250,5.36
18:26:40.671875,5.48
18:26:40.687500,5.44
18:26:40.703125,5.23
18:26:40.718750,4.91
18:26:40.734375,4.55
18:26:40.750000,4.23
18:26:40.765625,3.96
18:26:40.781250,3.72
18:26:40.796875,3.53
18:26:40.812500,3.41
18:26:40.828125,3.41
18:26:40.843750,3.52
18:26:40.859375,3.71
18:26:40.875000,3.88
18:26:40.890625,3.98
18:26:40.906250,4.00
18:26:40.921875,3.98
18:26:40.937500,3.98
18:26:40.953125,4.07
18:26:40.968750,4.22
18:26:40.984375,4.37
18:26:41,4.47
18:26:41.015625,4.49
18:26:41.031250,4.44
18:26:41.046875,4.35
18:26:41.062500,4.23
18:26:41.078125,4.09
18:26:41.093750,3.90
18:26:41.109375,3.66
18:26:41.125000,3.38
18:26:41.140625,3.10
18:26:41.156250,2.92
18:26:41.171875,2.87
18:26:41.187500,2.99
18:26:41.203125,3.23
18:26:41.218750,3.49
18:26:41.234375,3.69
18:26:41.250000,3.75
18:26:41.265625,3.66
18:26:41.281250,3.47
18:26:41.296875,3.26
18:26:41.312500,3.10
18:26:41.328125,3.06
18:26:41.343750,3.15
18:26:41.359375,3.37
18:26:41.375000,3.65
18:26:41.390625,3.91
18:26:41.406250,4.03
18:26:41.421875,3.92
18:26:41.437500,3.57
18:26:41.453125,3.11
18:26:41.468750,2.72
18:26:41.484375,2.58
18:26:41.500000,2.79
18:26:41.515625,3.32
18:26:41.531250,4.06
18:26:41.546875,4.89
18:26:41.562500,5.71
18:26:41.578125,6.53
18:26:41.593750,7.35
18:26:41.609375,8.14
18:26:41.625000,8.81
18:26:41.640625,9.23
18:26:41.656250,9.32
18:26:41.671875,9.09
18:26:41.687500,8.62
18:26:41.703125,7.97
18:26:41.718750,7.14
18:26:41.734375,6.03
18:26:41.750000,4.51
18:26:41.765625,2.50
18:26:41.781250,0.09
18:26:41.796875,-2.53
18:26:41.812500,-5.08
18:26:41.828125,-7.29
18:26:41.843750,-9.00
18:26:41.859375,-10.20
18:26:41.875000,-10.92
18:26:41.890625,-11.27
18:26:41.906250,-11.33
18:26:41.921875,-11.13
18:26:41.937500,-10.67
18:26:41.953125,-9.92
18:26:41.968750,-8.87
18:26:41.984375,-7.52
18:26:42,-5.96
18:26:42.015625,-4.30
18:26:42.031250,-2.66
18:26:42.046875,-1.12
18:26:42.062500,0.30
18:26:42.078125,1.67
18:26:42.093750,3.04
18:26:42.109375,4.47
18:26:42.125000,6.02
18:26:42.140625,7.65
18:26:42.156250,9.35
18:26:42.171875,11.06
18:26:42.187500,12.70
18:26:42.203125,14.22
18:26:42.218750,15.59
18:26:42.234375,16.80
18:26:42.250000,17.91
18:26:42.265625,19.03
18:26:42.281250,20.25
18:26:42.296875,21.64
18:26:42.312500,23.15
18:26:42.328125,24.65
18:26:42.343750,26.00
18:26:42.359375,27.08
18:26:42.375000,27.87
18:26:42.390625,28.46
18:26:42.406250,29.03
18:26:42.421875,29.69
18:26:42.437500,30.49
18:26:42.453125,31.36
18:26:42.468750,32.15
18:26:42.484375,32.73
18:26:42.500000,32.99
18:26:42.515625,32.92
18:26:42.531250,32.51
18:26:42.546875,31.78
18:26:42.562500,30.76
18:26:42.578125,29.53
18:26:42.593750,28.19
18:26:42.609375,26.84
18:26:42.625000,25.58
18:26:42.640625,24.34
18:26:42.656250,23.00
18:26:42.671875,21.40
18:26:42.687500,19.49
18:26:42.703125,17.32
18:26:42.718750,15.08
18:26:42.734375,12.99
18:26:42.750000,11.14
18:26:42.765625,9.52
18:26:42.781250,8.01
18:26:42.796875,6.51
18:26:42.812500,4.99
18:26:42.828125,3.52
18:26:42.843750,2.21
18:26:42.859375,1.14
18:26:42.875000,0.30
18:26:42.890625,-0.37
18:26:42.906250,-0.95
18:26:42.921875,-1.53
18:26:42.937500,-2.11
18:26:42.953125,-2.70
18:26:42.968750,-3.30
18:26:42.984375,-3.91
18:26:43,-4.52
18:26:43.015625,-5.10
18:26:43.031250,-5.57
18:26:43.046875,-5.86
18:26:43.062500,-5.96
18:26:43.078125,-5.95
18:26:43.093750,-5.91
18:26:43.109375,-5.97
18:26:43.125000,-6.14
18:26:43.140625,-6.39
18:26:43.156250,-6.63
18:26:43.171875,-6.77
18:26:43.187500,-6.75
18:26:43.203125,-6.55
18:26:43.218750,-6.19
18:26:43.234375,-5.71
18:26:43.250000,-5.19
18:26:43.265625,-4.72
18:26:43.281250,-4.41
18:26:43.296875,-4.32
18:26:43.312500,-4.49
18:26:43.328125,-4.85
18:26:43.343750,-5.31
18:26:43.359375,-5.77
18:26:43.375000,-6.17
18:26:43.390625,-6.54
18:26:43.406250,-6.90
18:26:43.421875,-7.29
18:26:43.437500,-7.71
18:26:43.453125,-8.10
18:26:43.468750,-8.36
18:26:43.484375,-8.45
18:26:43.500000,-8.36
18:26:43.515625,-8.13
18:26:43.531250,-7.84
18:26:43.546875,-7.55
18:26:43.562500,-7.27
18:26:43.578125,-6.94
18:26:43.593750,-6.49
18:26:43.609375,-5.92
18:26:43.625000,-5.24
18:26:43.640625,-4.55
18:26:43.656250,-3.89
18:26:43.671875,-3.29
18:26:43.687500,-2.73
18:26:43.703125,-2.15
18:26:43.718750,-1.56
18:26:43.734375,-1.03
18:26:43.750000,-0.67
18:26:43.765625,-0.50
18:26:43.781250,-0.48
18:26:43.796875,-0.46
18:26:43.812500,-0.31
18:26:43.828125,0.03
18:26:43.843750,0.48
18:26:43.859375,0.91
18:26:43.875000,1.16
18:26:43.890625,1.18
18:26:43.906250,0.99
18:26:43.921875,0.68
18:26:43.937500,0.33
18:26:43.953125,0.00
18:26:43.968750,-0.27
18:26:43.984375,-0.46
18:26:44,-0.56
18:26:44.015625,-0.56
18:26:44.031250,-0.53
18:26:44.046875,-0.54
18:26:44.062500,-0.71
18:26:44.078125,-1.09
18:26:44.093750,-1.66
18:26:44.109375,-2.30
18:26:44.125000,-2.85
18:26:44.140625,-3.18
18:26:44.156250,-3.19
18:26:44.171875,-2.89
18:26:44.187500,-2.31
18:26:44.203125,-1.57
18:26:44.218750,-0.76
18:26:44.234375,-0.01
18:26:44.250000,0.57
18:26:44.265625,0.90
18:26:44.281250,0.97
18:26:44.296875,0.79
18:26:44.312500,0.46
18:26:44.328125,0.04
18:26:44.343750,-0.39
18:26:44.359375,-0.79
18:26:44.375000,-1.10
18:26:44.390625,-1.28
18:26:44.406250,-1.27
18:26:44.421875,-1.05
18:26:44.437500,-0.65
18:26:44.453125,-0.21
18:26:44.468750,0.09
18:26:44.484375,0.10
18:26:44.500000,-0.22
18:26:44.515625,-0.74
18:26:44.531250,-1.26
18:26:44.546875,-1.60
18:26:44.562500,-1.68
18:26:44.578125,-1.58
18:26:44.593750,-1.46
18:26:44.609375,-1.46
18:26:44.625000,-1.62
18:26:44.640625,-1.90
18:26:44.656250,-2.16
18:26:44.671875,-2.31
18:26:44.687500,-2.31
18:26:44.703125,-2.21
18:26:44.718750,-2.05
18:26:44.734375,-1.90
18:26:44.750000,-1.78
18:26:44.765625,-1.66
18:26:44.781250,-1.55
18:26:44.796875,-1.47
18:26:44.812500,-1.44
18:26:44.828125,-1.48
18:26:44.843750,-1.59
18:26:44.859375,-1.75
18:26:44.875000,-1.94
18:26:44.890625,-2.14
18:26:44.906250,-2.31
18:26:44.921875,-2.43
18:26:44.937500,-2.49
18:26:44.953125,-2.47
18:26:44.968750,-2.34
18:26:44.984375,-2.10
18:26:45,-1.79
18:26:45.015625,-1.45
18:26:45.031250,-1.16
18:26:45.046875,-0.99
18:26:45.062500,-0.96
18:26:45.078125,-1.02
18:26:45.093750,-1.08
18:26:45.109375,-1.07
18:26:45.125000,-0.96
18:26:45.140625,-0.78
18:26:45.156250,-0.60
18:26:45.171875,-0.47
18:26:45.187500,-0.41
18:26:45.203125,-0.38
18:26:45.218750,-0.33
18:26:45.234375,-0.25
18:26:45.250000,-0.16
18:26:45.265625,-0.13
18:26:45.281250,-0.21
18:26:45.296875,-0.42
18:26:45.312500,-0.71
18:26:45.328125,-1.03
18:26:45.343750,-1.32
18:26:45.359375,-1.54
18:26:45.375000,-1.64
18:26:45.390625,-1.58
18:26:45.406250,-1.36
18:26:45.421875,-1.04
18:26:45.437500,-0.72
18:26:45.453125,-0.51
18:26:45.468750,-0.48
18:26:45.484375,-0.63
18:26:45.500000,-0.86
18:26:45.515625,-1.06
18:26:45.531250,-1.18
18:26:45.546875,-1.18
18:26:45.562500,-1.10
18:26:45.578125,-0.97
18:26:45.593750,-0.82
18:26:45.609375,-0.63
18:26:45.625000,-0.43
18:26:45.640625,-0.21
18:26:45.656250,-0.03
18:26:45.671875,0.05
18:26:45.687500,-0.01
18:26:45.703125,-0.19
18:26:45.718750,-0.43
18:26:45.734375,-0.67
18:26:45.750000,-0.84
18:26:45.765625,-0.88
18:26:45.781250,-0.78
18:26:45.796875,-0.62
18:26:45.812500,-0.49
18:26:45.828125,-0.50
18:26:45.843750,-0.67
18:26:45.859375,-0.94
18:26:45.875000,-1.17
18:26:45.890625,-1.16
18:26:45.906250,-0.84
18:26:45.921875,-0.26
18:26:45.937500,0.38
18:26:45.953125,0.81
18:26:45.968750,0.87
18:26:45.984375,0.56
18:26:46,0.05
18:26:46.015625,-0.41
18:26:46.031250,-0.65
18:26:46.046875,-0.61
18:26:46.062500,-0.44
18:26:46.078125,-0.29
18:26:46.093750,-0.30
18:26:46.109375,-0.44
18:26:46.125000,-0.60
18:26:46.140625,-0.61
18:26:46.156250,-0.42
18:26:46.171875,-0.07
18:26:46.187500,0.26
18:26:46.203125,0.39
18:26:46.218750,0.24
18:26:46.234375,-0.16
18:26:46.250000,-0.64
18:26:46.265625,-1.04
18:26:46.281250,-1.25
18:26:46.296875,-1.28
18:26:46.312500,-1.21
18:26:46.328125,-1.12
18:26:46.343750,-1.06
18:26:46.359375,-1.02
18:26:46.375000,-0.95
18:26:46.390625,-0.82
18:26:46.406250,-0.67
18:26:46.421875,-0.55
18:26:46.437500,-0.49
18:26:46.453125,-0.51
18:26:46.468750,-0.58
18:26:46.484375,-0.66
18:26:46.500000,-0.73
18:26:46.515625,-0.79
18:26:46.531250,-0.84
18:26:46.546875,-0.84
18:26:46.562500,-0.75
18:26:46.578125,-0.51
18:26:46.593750,-0.12
18:26:46.609375,0.31
18:26:46.625000,0.64
18:26:46.640625,0.78
18:26:46.656250,0.71
18:26:46.671875,0.51
18:26:46.687500,0.32
18:26:46.703125,0.22
18:26:46.718750,0.16
18:26:46.734375,0.06
18:26:46.750000,-0.15
18:26:46.765625,-0.47
18:26:46.781250,-0.79
18:26:46.796875,-1.01
18:26:46.812500,-1.09
18:26:46.828125,-1.07
18:26:46.843750,-1.03
18:26:46.859375,-1.02
18:26:46.875000,-1.01
18:26:46.890625,-0.91
18:26:46.906250,-0.67
18:26:46.921875,-0.31
18:26:46.937500,0.07
18:26:46.953125,0.34
18:26:46.968750,0.42
18:26:46.984375,0.31
18:26:47,0.11
18:26:47.015625,-0.06
18:26:47.031250,-0.11
18:26:47.046875,0.00
18:26:47.062500,0.20
18:26:47.078125,0.37
18:26:47.093750,0.39
18:26:47.109375,0.21
18:26:47.125000,-0.12
18:26:47.140625,-0.51
18:26:47.156250,-0.83
18:26:47.171875,-1.01
18:26:47.187500,-1.03
18:26:47.203125,-0.96
18:26:47.218750,-0.87
18:26:47.234375,-0.78
18:26:47.250000,-0.71
18:26:47.265625,-0.63
18:26:47.281250,-0.52
18:26:47.296875,-0.37
18:26:47.312500,-0.18
18:26:47.328125,0.03
18:26:47.343750,0.22
18:26:47.359375,0.33
18:26:47.375000,0.31
18:26:47.390625,0.14
18:26:47.406250,-0.13
18:26:47.421875,-0.42
18:26:47.437500,-0.62
18:26:47.453125,-0.71
18:26:47.468750,-0.74
18:26:47.484375,-0.75
18:26:47.500000,-0.79
18:26:47.515625,-0.81
18:26:47.531250,-0.74
18:26:47.546875,-0.53
18:26:47.562500,-0.19
18:26:47.578125,0.20
18:26:47.593750,0.50
18:26:47.609375,0.63
18:26:47.625000,0.58
18:26:47.640625,0.39
18:26:47.656250,0.12
18:26:47.671875,-0.17
18:26:47.687500,-0.46
18:26:47.703125,-0.72
18:26:47.718750,-0.90
18:26:47.734375,-0.95
18:26:47.750000,-0.82
18:26:47.765625,-0.57
18:26:47.781250,-0.32
18:26:47.796875,-0.18
18:26:47.812500,-0.23
18:26:47.828125,-0.40
18:26:47.843750,-0.58
18:26:47.859375,-0.63
18:26:47.875000,-0.47
18:26:47.890625,-0.17
18:26:47.906250,0.12
18:26:47.921875,0.27
18:26:47.937500,0.19
18:26:47.953125,-0.06
18:26:47.968750,-0.36
18:26:47.984375,-0.59
18:26:48,-0.68
18:26:48.015625,-0.63
18:26:48.031250,-0.50
18:26:48.046875,-0.33
18:26:48.062500,-0.17
18:26:48.078125,-0.03
18:26:48.093750,0.06
18:26:48.109375,0.05
18:26:48.125000,-0.09
18:26:48.140625,-0.39
18:26:48.156250,-0.79
18:26:48.171875,-1.18
18:26:48.187500,-1.46
18:26:48.203125,-1.53
18:26:48.218750,-1.39
18:26:48.234375,-1.08
18:26:48.250000,-0.69
18:26:48.265625,-0.32
18:26:48.281250,0.00
18:26:48.296875,0.25
18:26:48.312500,0.42
18:26:48.328125,0.53
18:26:48.343750,0.59
18:26:48.359375,0.58
18:26:48.375000,0.52
18:26:48.390625,0.38
18:26:48.406250,0.17
18:26:48.421875,-0.10
18:26:48.437500,-0.39
18:26:48.453125,-0.62
18:26:48.468750,-0.69
18:26:48.484375,-0.58
18:26:48.500000,-0.32
18:26:48.515625,-0.02
18:26:48.531250,0.19
18:26:48.546875,0.24
18:26:48.562500,0.14
18:26:48.578125,-0.01
18:26:48.593750,-0.10
18:26:48.609375,-0.07
18:26:48.625000,0.09
18:26:48.640625,0.29
18:26:48.656250,0.46
18:26:48.671875,0.58
18:26:48.687500,0.63
18:26:48.703125,0.65
18:26:48.718750,0.65
18:26:48.734375,0.62
18:26:48.750000,0.55
18:26:48.765625,0.45
18:26:48.781250,0.30
18:26:48.796875,0.15
18:26:48.812500,0.01
18:26:48.828125,-0.07
18:26:48.843750,-0.11
18:26:48.859375,-0.13
18:26:48.875000,-0.22
18:26:48.890625,-0.42
18:26:48.906250,-0.74
18:26:48.921875,-1.09
18:26:48.937500,-1.32
18:26:48.953125,-1.30
18:26:48.968750,-1.00
18:26:48.984375,-0.52
18:26:49,-0.07
18:26:49.015625,0.15
18:26:49.031250,0.04
18:26:49.046875,-0.30
18:26:49.062500,-0.70
18:26:49.078125,-0.96
18:26:49.093750,-1.01
18:26:49.109375,-0.90
18:26:49.125000,-0.73
18:26:49.140625,-0.58
18:26:49.156250,-0.47
18:26:49.171875,-0.33
18:26:49.187500,-0.13
18:26:49.203125,0.10
18:26:49.218750,0.27
18:26:49.234375,0.28
18:26:49.250000,0.12
18:26:49.265625,-0.12
18:26:49.281250,-0.28
18:26:49.296875,-0.25
18:26:49.312500,-0.02
18:26:49.328125,0.27
18:26:49.343750,0.44
18:26:49.359375,0.38
18:26:49.375000,0.12
18:26:49.390625,-0.19
18:26:49.406250,-0.37
18:26:49.421875,-0.32
18:26:49.437500,-0.05
18:26:49.453125,0.31
18:26:49.468750,0.61
18:26:49.484375,0.80
18:26:49.500000,0.91
18:26:49.515625,1.02
18:26:49.531250,1.17
18:26:49.546875,1.37
18:26:49.562500,1.53
18:26:49.578125,1.58
18:26:49.593750,1.50
18:26:49.609375,1.32
18:26:49.625000,1.10
18:26:49.640625,0.86
18:26:49.656250,0.60
18:26:49.671875,0.30
18:26:49.687500,-0.09
18:26:49.703125,-0.53
18:26:49.718750,-0.96
18:26:49.734375,-1.28
18:26:49.750000,-1.41
18:26:49.765625,-1.33
18:26:49.781250,-1.08
18:26:49.796875,-0.79
18:26:49.812500,-0.58
18:26:49.828125,-0.53
18:26:49.843750,-0.64
18:26:49.859375,-0.84
18:26:49.875000,-1.01
18:26:49.890625,-1.09
18:26:49.906250,-1.10
18:26:49.921875,-1.06
18:26:49.937500,-1.02
18:26:49.953125,-0.99
18:26:49.968750,-0.91
18:26:49.984375,-0.73
18:26:50,-0.46
18:26:50.015625,-0.17
18:26:50.031250,0.01
18:26:50.046875,-0.01
18:26:50.062500,-0.20
18:26:50.078125,-0.48
18:26:50.093750,-0.69
18:26:50.109375,-0.73
18:26:50.125000,-0.62
18:26:50.140625,-0.48
18:26:50.156250,-0.45
18:26:50.171875,-0.60
18:26:50.187500,-0.91
18:26:50.203125,-1.22
18:26:50.218750,-1.37
18:26:50.234375,-1.29
18:26:50.250000,-1.01
18:26:50.265625,-0.64
18:26:50.281250,-0.34
18:26:50.296875,-0.21
18:26:50.312500,-0.24
18:26:50.328125,-0.37
18:26:50.343750,-0.51
18:26:50.359375,-0.58
18:26:50.375000,-0.56
18:26:50.390625,-0.49
18:26:50.406250,-0.42
18:26:50.421875,-0.42
18:26:50.437500,-0.49
18:26:50.453125,-0.61
18:26:50.468750,-0.69
18:26:50.484375,-0.68
18:26:50.500000,-0.55
18:26:50.515625,-0.33
18:26:50.531250,-0.13
18:26:50.546875,-0.03
18:26:50.562500,-0.09
18:26:50.578125,-0.27
18:26:50.593750,-0.50
18:26:50.609375,-0.72
18:26:50.625000,-0.88
18:26:50.640625,-0.97
18:26:50.656250,-1.00
18:26:50.671875,-0.93
18:26:50.687500,-0.75
18:26:50.703125,-0.47
18:26:50.718750,-0.17
18:26:50.734375,0.06
18:26:50.750000,0.11
18:26:50.765625,-0.06
18:26:50.781250,-0.37
18:26:50.796875,-0.67
18:26:50.812500,-0.80
18:26:50.828125,-0.66
18:26:50.843750,-0.28
18:26:50.859375,0.22
18:26:50.875000,0.69
18:26:50.890625,1.01
18:26:50.906250,1.17
18:26:50.921875,1.24
18:26:50.937500,1.29
18:26:50.953125,1.39
18:26:50.968750,1.53
18:26:50.984375,1.64
18:26:51,1.67
18:26:51.015625,1.60
18:26:51.031250,1.48
18:26:51.046875,1.37
18:26:51.062500,1.32
18:26:51.078125,1.35
18:26:51.093750,1.45
18:26:51.109375,1.53
18:26:51.125000,1.52
18:26:51.140625,1.34
18:26:51.156250,0.97
18:26:51.171875,0.46
18:26:51.187500,-0.09
18:26:51.203125,-0.55
18:26:51.218750,-0.79
18:26:51.234375,-0.78
18:26:51.250000,-0.59
18:26:51.265625,-0.35
18:26:51.281250,-0.19
18:26:51.296875,-0.19
18:26:51.312500,-0.32
18:26:51.328125,-0.47
18:26:51.343750,-0.57
18:26:51.359375,-0.57
18:26:51.375000,-0.49
18:26:51.390625,-0.41
18:26:51.406250,-0.34
18:26:51.421875,-0.27
18:26:51.437500,-0.19
18:26:51.453125,-0.09
18:26:51.468750,0.02
18:26:51.484375,0.06
18:26:51.500000,-0.02
18:26:51.515625,-0.20
18:26:51.531250,-0.43
18:26:51.546875,-0.61
18:26:51.562500,-0.69
18:26:51.578125,-0.66
18:26:51.593750,-0.59
18:26:51.609375,-0.55
18:26:51.625000,-0.57
18:26:51.640625,-0.62
18:26:51.656250,-0.64
18:26:51.671875,-0.62
18:26:51.687500,-0.52
18:26:51.703125,-0.39
18:26:51.718750,-0.25
18:26:51.734375,-0.15
18:26:51.750000,-0.07
18:26:51.765625,-0.04
18:26:51.781250,-0.04
18:26:51.796875,-0.05
18:26:51.812500,-0.06
18:26:51.828125,-0.05
18:26:51.843750,-0.01
18:26:51.859375,0.03
18:26:51.875000,0.05
18:26:51.890625,0.03
18:26:51.906250,-0.05
18:26:51.921875,-0.16
18:26:51.937500,-0.29
18:26:51.953125,-0.43
18:26:51.968750,-0.56
18:26:51.984375,-0.72
18:26:52,-0.86
18:26:52.015625,-0.94
18:26:52.031250,-0.88
18:26:52.046875,-0.65
18:26:52.062500,-0.31
18:26:52.078125,0.08
18:26:52.093750,0.39
18:26:52.109375,0.58
18:26:52.125000,0.63
18:26:52.140625,0.57
18:26:52.156250,0.43
18:26:52.171875,0.23
18:26:52.187500,0.01
18:26:52.203125,-0.20
18:26:52.218750,-0.30
18:26:52.234375,-0.23
18:26:52.250000,0.02
18:26:52.265625,0.40
18:26:52.281250,0.78
18:26:52.296875,1.04
18:26:52.312500,1.08
18:26:52.328125,0.91
18:26:52.343750,0.62
18:26:52.359375,0.34
18:26:52.375000,0.18
18:26:52.390625,0.16
18:26:52.406250,0.25
18:26:52.421875,0.33
18:26:52.437500,0.31
18:26:52.453125,0.13
18:26:52.468750,-0.15
18:26:52.484375,-0.45
18:26:52.500000,-0.65
18:26:52.515625,-0.67
18:26:52.531250,-0.52
18:26:52.546875,-0.28
18:26:52.562500,-0.07
18:26:52.578125,0.04
18:26:52.593750,0.05
18:26:52.609375,0.03
18:26:52.625000,0.04
18:26:52.640625,0.13
18:26:52.656250,0.27
18:26:52.671875,0.39
18:26:52.687500,0.45
18:26:52.703125,0.46
18:26:52.718750,0.49
18:26:52.734375,0.57
18:26:52.750000,0.70
18:26:52.765625,0.79
18:26:52.781250,0.71
18:26:52.796875,0.44
18:26:52.812500,0.05
18:26:52.828125,-0.24
18:26:52.843750,-0.26
18:26:52.859375,0.05
18:26:52.875000,0.58
18:26:52.890625,1.10
18:26:52.906250,1.38
18:26:52.921875,1.34
18:26:52.937500,1.02
18:26:52.953125,0.59
18:26:52.968750,0.21
18:26:52.984375,-0.04
18:26:53,-0.16
18:26:53.015625,-0.22
18:26:53.031250,-0.29
18:26:53.046875,-0.37
18:26:53.062500,-0.43
18:26:53.078125,-0.44
18:26:53.093750,-0.38
18:26:53.109375,-0.25
18:26:53.125000,-0.10
18:26:53.140625,0.04
18:26:53.156250,0.11
18:26:53.171875,0.11
18:26:53.187500,0.01
18:26:53.203125,-0.16
18:26:53.218750,-0.41
18:26:53.234375,-0.69
18:26:53.250000,-0.99
18:26:53.265625,-1.24
18:26:53.281250,-1.40
18:26:53.296875,-1.41
18:26:53.312500,-1.28
18:26:53.328125,-1.05
18:26:53.343750,-0.85
18:26:53.359375,-0.76
18:26:53.375000,-0.88
18:26:53.390625,-1.14
18:26:53.406250,-1.42
18:26:53.421875,-1.56
18:26:53.437500,-1.47
18:26:53.453125,-1.18
18:26:53.468750,-0.81
18:26:53.484375,-0.50
18:26:53.500000,-0.35
18:26:53.515625,-0.33
18:26:53.531250,-0.35
18:26:53.546875,-0.32
18:26:53.562500,-0.22
18:26:53.578125,-0.08
18:26:53.593750,0.01
18:26:53.609375,-0.01
18:26:53.625000,-0.16
18:26:53.640625,-0.37
18:26:53.656250,-0.53
18:26:53.671875,-0.57
18:26:53.687500,-0.45
18:26:53.703125,-0.20
18:26:53.718750,0.08
18:26:53.734375,0.28
18:26:53.750000,0.35
18:26:53.765625,0.30
18:26:53.781250,0.17
18:26:53.796875,0.06
18:26:53.812500,-0.02
18:26:53.828125,-0.06
18:26:53.843750,-0.08
18:26:53.859375,-0.04
18:26:53.875000,0.12
18:26:53.890625,0.43
18:26:53.906250,0.82
18:26:53.921875,1.14
18:26:53.937500,1.21
18:26:53.953125,0.96
18:26:53.968750,0.50
18:26:53.984375,0.04
18:26:54,-0.21
18:26:54.015625,-0.16
18:26:54.031250,0.08
18:26:54.046875,0.34
18:26:54.062500,0.43
18:26:54.078125,0.34
18:26:54.093750,0.15
18:26:54.109375,-0.01
18:26:54.125000,-0.07
18:26:54.140625,-0.05
18:26:54.156250,-0.05
18:26:54.171875,-0.13
18:26:54.187500,-0.27
18:26:54.203125,-0.39
18:26:54.218750,-0.37
18:26:54.234375,-0.20
18:26:54.250000,0.04
18:26:54.265625,0.22
18:26:54.281250,0.20
18:26:54.296875,-0.06
18:26:54.312500,-0.50
18:26:54.328125,-0.98
18:26:54.343750,-1.33
18:26:54.359375,-1.46
18:26:54.375000,-1.36
18:26:54.390625,-1.10
18:26:54.406250,-0.81
18:26:54.421875,-0.58
18:26:54.437500,-0.50
18:26:54.453125,-0.57
18:26:54.468750,-0.75
18:26:54.484375,-0.95
18:26:54.500000,-1.07
18:26:54.515625,-1.04
18:26:54.531250,-0.86
18:26:54.546875,-0.55
18:26:54.562500,-0.21
18:26:54.578125,0.12
18:26:54.593750,0.39
18:26:54.609375,0.60
18:26:54.625000,0.75
18:26:54.640625,0.84
18:26:54.656250,0.86
18:26:54.671875,0.82
18:26:54.687500,0.78
18:26:54.703125,0.77
18:26:54.718750,0.83
18:26:54.734375,0.93
18:26:54.750000,0.98
18:26:54.765625,0.89
18:26:54.781250,0.65
18:26:54.796875,0.32
18:26:54.812500,0.03
18:26:54.828125,-0.14
18:26:54.843750,-0.18
18:26:54.859375,-0.15
18:26:54.875000,-0.16
18:26:54.890625,-0.25
18:26:54.906250,-0.40
18:26:54.921875,-0.52
18:26:54.937500,-0.55
18:26:54.953125,-0.46
18:26:54.968750,-0.33
18:26:54.984375,-0.27
18:26:55,-0.36
18:26:55.015625,-0.61
18:26:55.031250,-0.93
18:26:55.046875,-1.20
18:26:55.062500,-1.28
18:26:55.078125,-1.15
18:26:55.093750,-0.86
18:26:55.109375,-0.54
18:26:55.125000,-0.29
18:26:55.140625,-0.17
18:26:55.156250,-0.16
18:26:55.171875,-0.20
18:26:55.187500,-0.21
18:26:55.203125,-0.17
18:26:55.218750,-0.10
18:26:55.234375,-0.04
18:26:55.250000,-0.02
18:26:55.265625,-0.01
18:26:55.281250,-0.01
18:26:55.296875,-0.02
18:26:55.312500,-0.03
18:26:55.328125,-0.07
18:26:55.343750,-0.14
18:26:55.359375,-0.20
18:26:55.375000,-0.23
18:26:55.390625,-0.19
18:26:55.406250,-0.10
18:26:55.421875,0.03
18:26:55.437500,0.16
18:26:55.453125,0.27
18:26:55.468750,0.34
18:26:55.484375,0.40
18:26:55.500000,0.41
18:26:55.515625,0.35
18:26:55.531250,0.20
18:26:55.546875,-0.02
18:26:55.562500,-0.28
18:26:55.578125,-0.47
18:26:55.593750,-0.54
18:26:55.609375,-0.43
18:26:55.625000,-0.17
18:26:55.640625,0.19
18:26:55.656250,0.57
18:26:55.671875,0.90
18:26:55.687500,1.11
18:26:55.703125,1.16
18:26:55.718750,1.02
18:26:55.734375,0.71
18:26:55.750000,0.26
18:26:55.765625,-0.27
18:26:55.781250,-0.77
18:26:55.796875,-1.09
18:26:55.812500,-1.15
18:26:55.828125,-0.92
18:26:55.843750,-0.49
18:26:55.859375,-0.04
18:26:55.875000,0.25
18:26:55.890625,0.27
18:26:55.906250,0.07
18:26:55.921875,-0.21
18:26:55.937500,-0.38
18:26:55.953125,-0.38
18:26:55.968750,-0.23
18:26:55.984375,-0.07
18:26:56,0.01
18:26:56.015625,-0.01
18:26:56.031250,-0.05
18:26:56.046875,-0.01
18:26:56.062500,0.13
18:26:56.078125,0.28
18:26:56.093750,0.33
18:26:56.109375,0.20
18:26:56.125000,-0.08
18:26:56.140625,-0.38
18:26:56.156250,-0.60
18:26:56.171875,-0.70
18:26:56.187500,-0.72
18:26:56.203125,-0.76
18:26:56.218750,-0.91
18:26:56.234375,-1.13
18:26:56.250000,-1.36
18:26:56.265625,-1.47
18:26:56.281250,-1.40
18:26:56.296875,-1.14
18:26:56.312500,-0.76
18:26:56.328125,-0.38
18:26:56.343750,-0.07
18:26:56.359375,0.14
18:26:56.375000,0.25
18:26:56.390625,0.29
18:26:56.406250,0.29
18:26:56.421875,0.26
18:26:56.437500,0.20
18:26:56.453125,0.09
18:26:56.468750,-0.05
18:26:56.484375,-0.17
18:26:56.500000,-0.21
18:26:56.515625,-0.14
18:26:56.531250,-0.00
18:26:56.546875,0.12
18:26:56.562500,0.15
18:26:56.578125,0.03
18:26:56.593750,-0.18
18:26:56.609375,-0.42
18:26:56.625000,-0.59
18:26:56.640625,-0.65
18:26:56.656250,-0.62
18:26:56.671875,-0.55
18:26:56.687500,-0.47
18:26:56.703125,-0.40
18:26:56.718750,-0.34
18:26:56.734375,-0.31
18:26:56.750000,-0.35
18:26:56.765625,-0.53
18:26:56.781250,-0.86
18:26:56.796875,-1.28
18:26:56.812500,-1.64
18:26:56.828125,-1.80
18:26:56.843750,-1.67
18:26:56.859375,-1.29
18:26:56.875000,-0.83
18:26:56.890625,-0.47
18:26:56.906250,-0.35
18:26:56.921875,-0.47
18:26:56.937500,-0.71
18:26:56.953125,-0.90
18:26:56.968750,-0.90
18:26:56.984375,-0.68
18:26:57,-0.33
18:26:57.015625,0.03
18:26:57.031250,0.32
18:26:57.046875,0.53
18:26:57.062500,0.71
18:26:57.078125,0.89
18:26:57.093750,1.05
18:26:57.109375,1.16
18:26:57.125000,1.16
18:26:57.140625,1.05
18:26:57.156250,0.88
18:26:57.171875,0.73
18:26:57.187500,0.64
18:26:57.203125,0.56
18:26:57.218750,0.44
18:26:57.234375,0.24
18:26:57.250000,-0.02
18:26:57.265625,-0.23
18:26:57.281250,-0.26
18:26:57.296875,-0.06
18:26:57.312500,0.32
18:26:57.328125,0.73
18:26:57.343750,1.01
18:26:57.359375,1.04
18:26:57.375000,0.85
18:26:57.390625,0.58
18:26:57.406250,0.38
18:26:57.421875,0.39
18:26:57.437500,0.60
18:26:57.453125,0.92
18:26:57.468750,1.20
18:26:57.484375,1.37
18:26:57.500000,1.40
18:26:57.515625,1.37
18:26:57.531250,1.36
18:26:57.546875,1.41
18:26:57.562500,1.50
18:26:57.578125,1.53
18:26:57.593750,1.45
18:26:57.609375,1.24
18:26:57.625000,0.94
18:26:57.640625,0.65
18:26:57.656250,0.45
18:26:57.671875,0.41
18:26:57.687500,0.54
18:26:57.703125,0.71
18:26:57.718750,0.79
18:26:57.734375,0.60
18:26:57.750000,0.08
18:26:57.765625,-0.71
18:26:57.781250,-1.55
18:26:57.796875,-2.19
18:26:57.812500,-2.45
18:26:57.828125,-2.33
18:26:57.843750,-1.96
18:26:57.859375,-1.57
18:26:57.875000,-1.34
18:26:57.890625,-1.33
18:26:57.906250,-1.52
18:26:57.921875,-1.83
18:26:57.937500,-2.21
18:26:57.953125,-2.63
18:26:57.968750,-3.09
18:26:57.984375,-3.54
18:26:58,-3.87
18:26:58.015625,-3.92
18:26:58.031250,-3.56
18:26:58.046875,-2.78
18:26:58.062500,-1.71
18:26:58.078125,-0.60
18:26:58.093750,0.26
18:26:58.109375,0.62
18:26:58.125000,0.41
18:26:58.140625,-0.28
18:26:58.156250,-1.19
18:26:58.171875,-2.06
18:26:58.187500,-2.68
18:26:58.203125,-2.99
18:26:58.218750,-3.01
18:26:58.234375,-2.85
18:26:58.250000,-2.59
18:26:58.265625,-2.29
18:26:58.281250,-2.00
18:26:58.296875,-1.76
18:26:58.312500,-1.60
18:26:58.328125,-1.52
18:26:58.343750,-1.47
18:26:58.359375,-1.40
18:26:58.375000,-1.27
18:26:58.390625,-1.08
18:26:58.406250,-0.88
18:26:58.421875,-0.68
18:26:58.437500,-0.45
18:26:58.453125,-0.11
18:26:58.468750,0.40
18:26:58.484375,1.06
18:26:58.500000,1.77
18:26:58.515625,2.36
18:26:58.531250,2.71
18:26:58.546875,2.80
18:26:58.562500,2.74
18:26:58.578125,2.65
18:26:58.593750,2.61
18:26:58.609375,2.61
18:26:58.625000,2.58
18:26:58.640625,2.54
18:26:58.656250,2.53
18:26:58.671875,2.69
18:26:58.687500,3.08
18:26:58.703125,3.65
18:26:58.718750,4.20
18:26:58.734375,4.51
18:26:58.750000,4.41
18:26:58.765625,3.91
18:26:58.781250,3.22
18:26:58.796875,2.61
18:26:58.812500,2.28
18:26:58.828125,2.29
18:26:58.843750,2.56
18:26:58.859375,2.90
18:26:58.875000,3.16
18:26:58.890625,3.22
18:26:58.906250,3.03
18:26:58.921875,2.60
18:26:58.937500,1.99
18:26:58.953125,1.32
18:26:58.968750,0.75
18:26:58.984375,0.40
18:26:59,0.36
18:26:59.015625,0.60
18:26:59.031250,0.95
18:26:59.046875,1.17
18:26:59.062500,1.05
18:26:59.078125,0.53
18:26:59.093750,-0.33
18:26:59.109375,-1.30
18:26:59.125000,-2.12
18:26:59.140625,-2.61
18:26:59.156250,-2.70
18:26:59.171875,-2.48
18:26:59.187500,-2.09
18:26:59.203125,-1.72
18:26:59.218750,-1.47
18:26:59.234375,-1.38
18:26:59.250000,-1.44
18:26:59.265625,-1.62
18:26:59.281250,-1.87
18:26:59.296875,-2.17
18:26:59.312500,-2.48
18:26:59.328125,-2.73
18:26:59.343750,-2.87
18:26:59.359375,-2.86
18:26:59.375000,-2.73
18:26:59.390625,-2.55
18:26:59.406250,-2.44
18:26:59.421875,-2.51
18:26:59.437500,-2.81
18:26:59.453125,-3.32
18:26:59.468750,-3.90
18:26:59.484375,-4.41
18:26:59.500000,-4.69
18:26:59.515625,-4.67
18:26:59.531250,-4.35
18:26:59.546875,-3.85
18:26:59.562500,-3.29
18:26:59.578125,-2.77
18:26:59.593750,-2.30
18:26:59.609375,-1.82
18:26:59.625000,-1.24
18:26:59.640625,-0.49
18:26:59.656250,0.41
18:26:59.671875,1.35
18:26:59.687500,2.14
18:26:59.703125,2.63
18:26:59.718750,2.74
18:26:59.734375,2.53
18:26:59.750000,2.12
18:26:59.765625,1.68
18:26:59.781250,1.33
18:26:59.796875,1.13
18:26:59.812500,1.03
18:26:59.828125,0.97
18:26:59.843750,0.91
18:26:59.859375,0.86
18:26:59.875000,0.88
18:26:59.890625,1.02
18:26:59.906250,1.31
18:26:59.921875,1.70
18:26:59.937500,2.10
18:26:59.953125,2.39
18:26:59.968750,2.48
18:26:59.984375,2.34
18:27:00,2.02
18:27:00.015625,1.60
18:27:00.031250,1.17
18:27:00.046875,0.80
18:27:00.062500,0.55
18:27:00.078125,0.42
18:27:00.093750,0.39
18:27:00.109375,0.43
18:27:00.125000,0.52
18:27:00.140625,0.61
18:27:00.156250,0.67
18:27:00.171875,0.68
18:27:00.187500,0.62
18:27:00.203125,0.51
18:27:00.218750,0.37
18:27:00.234375,0.24
18:27:00.250000,0.16
18:27:00.265625,0.12
18:27:00.281250,0.12
18:27:00.296875,0.14
18:27:00.312500,0.19
18:27:00.328125,0.24
18:27:00.343750,0.28
18:27:00.359375,0.28
18:27:00.375000,0.23
18:27:00.390625,0.10
18:27:00.406250,-0.09
18:27:00.421875,-0.31
18:27:00.437500,-0.50
18:27:00.453125,-0.59
18:27:00.468750,-0.53
18:27:00.484375,-0.31
18:27:00.500000,0.03
18:27:00.515625,0.39
18:27:00.531250,0.63
18:27:00.546875,0.69
18:27:00.562500,0.58
18:27:00.578125,0.37
18:27:00.593750,0.20
18:27:00.609375,0.15
18:27:00.625000,0.20
18:27:00.640625,0.28
18:27:00.656250,0.30
18:27:00.671875,0.19
18:27:00.687500,-0.03
18:27:00.703125,-0.28
18:27:00.718750,-0.49
18:27:00.734375,-0.62
18:27:00.750000,-0.68
18:27:00.765625,-0.68
18:27:00.781250,-0.61
18:27:00.796875,-0.45
18:27:00.812500,-0.16
18:27:00.828125,0.23
18:27:00.843750,0.63
18:27:00.859375,0.95
18:27:00.875000,1.12
18:27:00.890625,1.12
18:27:00.906250,1.00
18:27:00.921875,0.85
18:27:00.937500,0.70
18:27:00.953125,0.54
18:27:00.968750,0.30
18:27:00.984375,-0.03
18:27:01,-0.43
18:27:01.015625,-0.78
18:27:01.031250,-0.97
18:27:01.046875,-0.92
18:27:01.062500,-0.65
18:27:01.078125,-0.30
18:27:01.093750,0.02
18:27:01.109375,0.23
18:27:01.125000,0.35
18:27:01.140625,0.44
18:27:01.156250,0.55
18:27:01.171875,0.66
18:27:01.187500,0.68
18:27:01.203125,0.56
18:27:01.218750,0.28
18:27:01.234375,-0.10
18:27:01.250000,-0.47
18:27:01.265625,-0.75
18:27:01.281250,-0.91
18:27:01.296875,-0.99
18:27:01.312500,-1.01
18:27:01.328125,-0.97
18:27:01.343750,-0.86
18:27:01.359375,-0.71
18:27:01.375000,-0.56
18:27:01.390625,-0.49
18:27:01.406250,-0.53
18:27:01.421875,-0.68
18:27:01.437500,-0.83
18:27:01.453125,-0.87
18:27:01.468750,-0.77
18:27:01.484375,-0.54
18:27:01.500000,-0.31
18:27:01.515625,-0.19
18:27:01.531250,-0.24
18:27:01.546875,-0.39
18:27:01.562500,-0.57
18:27:01.578125,-0.70
18:27:01.593750,-0.77
18:27:01.609375,-0.80
18:27:01.625000,-0.80
18:27:01.640625,-0.74
18:27:01.656250,-0.55
18:27:01.671875,-0.18
18:27:01.687500,0.34
18:27:01.703125,0.86
18:27:01.718750,1.20
18:27:01.734375,1.22
18:27:01.750000,0.91
18:27:01.765625,0.40
18:27:01.781250,-0.11
18:27:01.796875,-0.42
18:27:01.812500,-0.46
18:27:01.828125,-0.29
18:27:01.843750,-0.03
18:27:01.859375,0.20
18:27:01.875000,0.38
18:27:01.890625,0.54
18:27:01.906250,0.75
18:27:01.921875,1.02
18:27:01.937500,1.25
18:27:01.953125,1.32
18:27:01.968750,1.17
18:27:01.984375,0.83
18:27:02,0.43
18:27:02.015625,0.07
18:27:02.031250,-0.21
18:27:02.046875,-0.46
18:27:02.062500,-0.75
18:27:02.078125,-1.04
18:27:02.093750,-1.22
18:27:02.109375,-1.13
18:27:02.125000,-0.74
18:27:02.140625,-0.15
18:27:02.156250,0.38
18:27:02.171875,0.66
18:27:02.187500,0.64
18:27:02.203125,0.43
18:27:02.218750,0.24
18:27:02.234375,0.21
18:27:02.250000,0.33
18:27:02.265625,0.48
18:27:02.281250,0.56
18:27:02.296875,0.52
18:27:02.312500,0.42
18:27:02.328125,0.33
18:27:02.343750,0.28
18:27:02.359375,0.23
18:27:02.375000,0.12
18:27:02.390625,-0.08
18:27:02.406250,-0.33
18:27:02.421875,-0.53
18:27:02.437500,-0.61
18:27:02.453125,-0.58
18:27:02.468750,-0.47
18:27:02.484375,-0.38
18:27:02.500000,-0.36
18:27:02.515625,-0.42
18:27:02.531250,-0.52
18:27:02.546875,-0.63
18:27:02.562500,-0.74
18:27:02.578125,-0.82
18:27:02.593750,-0.88
18:27:02.609375,-0.94
18:27:02.625000,-0.96
18:27:02.640625,-0.93
18:27:02.656250,-0.82
18:27:02.671875,-0.61
18:27:02.687500,-0.35
18:27:02.703125,-0.07
18:27:02.718750,0.17
18:27:02.734375,0.32
18:27:02.750000,0.38
18:27:02.765625,0.36
18:27:02.781250,0.30
18:27:02.796875,0.23
18:27:02.812500,0.14
18:27:02.828125,0.01
18:27:02.843750,-0.21
18:27:02.859375,-0.52
18:27:02.875000,-0.88
18:27:02.890625,-1.19
18:27:02.906250,-1.30
18:27:02.921875,-1.13
18:27:02.937500,-0.67
18:27:02.953125,-0.02
18:27:02.968750,0.66
18:27:02.984375,1.17
18:27:03,1.41
18:27:03.015625,1.36
18:27:03.031250,1.13
18:27:03.046875,0.87
18:27:03.062500,0.69
18:27:03.078125,0.64
18:27:03.093750,0.68
18:27:03.109375,0.73
18:27:03.125000,0.73
18:27:03.140625,0.66
18:27:03.156250,0.57
18:27:03.171875,0.51
18:27:03.187500,0.51
18:27:03.203125,0.54
18:27:03.218750,0.54
18:27:03.234375,0.44
18:27:03.250000,0.23
18:27:03.265625,-0.05
18:27:03.281250,-0.30
18:27:03.296875,-0.45
18:27:03.312500,-0.46
18:27:03.328125,-0.39
18:27:03.343750,-0.29
18:27:03.359375,-0.25
18:27:03.375000,-0.29
18:27:03.390625,-0.37
18:27:03.406250,-0.45
18:27:03.421875,-0.49
18:27:03.437500,-0.48
18:27:03.453125,-0.47
18:27:03.468750,-0.51
18:27:03.484375,-0.63
18:27:03.500000,-0.80
18:27:03.515625,-0.95
18:27:03.531250,-1.02
18:27:03.546875,-0.99
18:27:03.562500,-0.93
18:27:03.578125,-0.91
18:27:03.593750,-0.98
18:27:03.609375,-1.11
18:27:03.625000,-1.18
18:27:03.640625,-1.10
18:27:03.656250,-0.87
18:27:03.671875,-0.56
18:27:03.687500,-0.32
18:27:03.703125,-0.25
18:27:03.718750,-0.31
18:27:03.734375,-0.38
18:27:03.750000,-0.33
18:27:03.765625,-0.13
18:27:03.781250,0.13
18:27:03.796875,0.26
18:27:03.812500,0.12
18:27:03.828125,-0.27
18:27:03.843750,-0.71
18:27:03.859375,-0.94
18:27:03.875000,-0.80
18:27:03.890625,-0.35
18:27:03.906250,0.17
18:27:03.921875,0.47
18:27:03.937500,0.37
18:27:03.953125,-0.09
18:27:03.968750,-0.69
18:27:03.984375,-1.17
18:27:04,-1.36
18:27:04.015625,-1.29
18:27:04.031250,-1.11
18:27:04.046875,-0.99
18:27:04.062500,-0.98
18:27:04.078125,-1.01
18:27:04.093750,-0.93
18:27:04.109375,-0.61
18:27:04.125000,-0.02
18:27:04.140625,0.75
18:27:04.156250,1.56
18:27:04.171875,2.28
18:27:04.187500,2.80
18:27:04.203125,3.10
18:27:04.218750,3.20
18:27:04.234375,3.13
18:27:04.250000,2.93
18:27:04.265625,2.60
18:27:04.281250,2.15
18:27:04.296875,1.58
18:27:04.312500,0.93
18:27:04.328125,0.32
18:27:04.343750,-0.16
18:27:04.359375,-0.43
18:27:04.375000,-0.50
18:27:04.390625,-0.46
18:27:04.406250,-0.44
18:27:04.421875,-0.48
18:27:04.437500,-0.52
18:27:04.453125,-0.42
18:27:04.468750,-0.05
18:27:04.484375,0.63
18:27:04.500000,1.47
18:27:04.515625,2.21
18:27:04.531250,2.63
18:27:04.546875,2.64
18:27:04.562500,2.31
18:27:04.578125,1.80
18:27:04.593750,1.29
18:27:04.609375,0.86
18:27:04.625000,0.51
18:27:04.640625,0.15
18:27:04.656250,-0.31
18:27:04.671875,-0.90
18:27:04.687500,-1.59
18:27:04.703125,-2.26
18:27:04.718750,-2.77
18:27:04.734375,-2.92
18:27:04.750000,-2.59
18:27:04.765625,-1.77
18:27:04.781250,-0.62
18:27:04.796875,0.59
18:27:04.812500,1.54
18:27:04.828125,2.03
18:27:04.843750,2.02
18:27:04.859375,1.68
18:27:04.875000,1.25
18:27:04.890625,0.94
18:27:04.906250,0.82
18:27:04.921875,0.84
18:27:04.937500,0.86
18:27:04.953125,0.80
18:27:04.968750,0.67
18:27:04.984375,0.57
18:27:05,0.61
18:27:05.015625,0.81
18:27:05.031250,1.08
18:27:05.046875,1.31
18:27:05.062500,1.35
18:27:05.078125,1.19
18:27:05.093750,0.85
18:27:05.109375,0.45
18:27:05.125000,0.06
18:27:05.140625,-0.27
18:27:05.156250,-0.52
18:27:05.171875,-0.70
18:27:05.187500,-0.83
18:27:05.203125,-0.94
18:27:05.218750,-1.12
18:27:05.234375,-1.44
18:27:05.250000,-1.95
18:27:05.265625,-2.62
18:27:05.281250,-3.29
18:27:05.296875,-3.75
18:27:05.312500,-3.83
18:27:05.328125,-3.52
18:27:05.343750,-2.90
18:27:05.359375,-2.18
18:27:05.375000,-1.51
18:27:05.390625,-0.99
18:27:05.406250,-0.60
18:27:05.421875,-0.28
18:27:05.437500,-0.04
18:27:05.453125,0.10
18:27:05.468750,0.09
18:27:05.484375,-0.06
18:27:05.500000,-0.23
18:27:05.515625,-0.30
18:27:05.531250,-0.15
18:27:05.546875,0.20
18:27:05.562500,0.61
18:27:05.578125,0.93
18:27:05.593750,1.04
18:27:05.609375,0.93
18:27:05.625000,0.76
18:27:05.640625,0.69
18:27:05.656250,0.82
18:27:05.671875,1.15
18:27:05.687500,1.54
18:27:05.703125,1.79
18:27:05.718750,1.80
18:27:05.734375,1.55
18:27:05.750000,1.17
18:27:05.765625,0.84
18:27:05.781250,0.68
18:27:05.796875,0.73
18:27:05.812500,0.89
18:27:05.828125,1.07
18:27:05.843750,1.15
18:27:05.859375,1.10
18:27:05.875000,0.98
18:27:05.890625,0.79
18:27:05.906250,0.57
18:27:05.921875,0.28
18:27:05.937500,-0.07
18:27:05.953125,-0.44
18:27:05.968750,-0.75
18:27:05.984375,-0.93
18:27:06,-0.94
18:27:06.015625,-0.82
18:27:06.031250,-0.65
18:27:06.046875,-0.51
18:27:06.062500,-0.46
18:27:06.078125,-0.51
18:27:06.093750,-0.64
18:27:06.109375,-0.84
18:27:06.125000,-1.05
18:27:06.140625,-1.22
18:27:06.156250,-1.28
18:27:06.171875,-1.21
18:27:06.187500,-1.03
18:27:06.203125,-0.82
18:27:06.218750,-0.67
18:27:06.234375,-0.64
18:27:06.250000,-0.74
18:27:06.265625,-0.97
18:27:06.281250,-1.31
18:27:06.296875,-1.73
18:27:06.312500,-2.19
18:27:06.328125,-2.58
18:27:06.343750,-2.79
18:27:06.359375,-2.73
18:27:06.375000,-2.37
18:27:06.390625,-1.84
18:27:06.406250,-1.31
18:27:06.421875,-0.97
18:27:06.437500,-0.90
18:27:06.453125,-1.01
18:27:06.468750,-1.13
18:27:06.484375,-1.08
18:27:06.500000,-0.74
18:27:06.515625,-0.19
18:27:06.531250,0.42
18:27:06.546875,0.85
18:27:06.562500,0.94
18:27:06.578125,0.64
18:27:06.593750,0.07
18:27:06.609375,-0.59
18:27:06.625000,-1.09
18:27:06.640625,-1.27
18:27:06.656250,-1.09
18:27:06.671875,-0.64
18:27:06.687500,-0.07
18:27:06.703125,0.48
18:27:06.718750,0.92
18:27:06.734375,1.25
18:27:06.750000,1.45
18:27:06.765625,1.53
18:27:06.781250,1.45
18:27:06.796875,1.17
18:27:06.812500,0.72
18:27:06.828125,0.21
18:27:06.843750,-0.20
18:27:06.859375,-0.36
18:27:06.875000,-0.19
18:27:06.890625,0.24
18:27:06.906250,0.73
18:27:06.921875,1.10
18:27:06.937500,1.21
18:27:06.953125,1.01
18:27:06.968750,0.60
18:27:06.984375,0.13
18:27:07,-0.23
18:27:07.015625,-0.36
18:27:07.031250,-0.21
18:27:07.046875,0.14
18:27:07.062500,0.53
18:27:07.078125,0.79
18:27:07.093750,0.77
18:27:07.109375,0.47
18:27:07.125000,-0.04
18:27:07.140625,-0.62
18:27:07.156250,-1.12
18:27:07.171875,-1.44
18:27:07.187500,-1.57
18:27:07.203125,-1.54
18:27:07.218750,-1.39
18:27:07.234375,-1.17
18:27:07.250000,-0.89
18:27:07.265625,-0.57
18:27:07.281250,-0.22
18:27:07.296875,0.12
18:27:07.312500,0.36
18:27:07.328125,0.41
18:27:07.343750,0.24
18:27:07.359375,-0.17
18:27:07.375000,-0.69
18:27:07.390625,-1.18
18:27:07.406250,-1.47
18:27:07.421875,-1.46
18:27:07.437500,-1.16
18:27:07.453125,-0.66
18:27:07.468750,-0.13
18:27:07.484375,0.30
18:27:07.500000,0.55
18:27:07.515625,0.63
18:27:07.531250,0.61
18:27:07.546875,0.55
18:27:07.562500,0.52
18:27:07.578125,0.50
18:27:07.593750,0.46
18:27:07.609375,0.39
18:27:07.625000,0.33
18:27:07.640625,0.34
18:27:07.656250,0.49
18:27:07.671875,0.78
18:27:07.687500,1.13
18:27:07.703125,1.39
18:27:07.718750,1.45
18:27:07.734375,1.27
18:27:07.750000,0.93
18:27:07.765625,0.60
18:27:07.781250,0.39
18:27:07.796875,0.35
18:27:07.812500,0.42
18:27:07.828125,0.50
18:27:07.843750,0.49
18:27:07.859375,0.35
18:27:07.875000,0.12
18:27:07.890625,-0.12
18:27:07.906250,-0.32
18:27:07.921875,-0.46
18:27:07.937500,-0.53
18:27:07.953125,-0.54
18:27:07.968750,-0.47
18:27:07.984375,-0.34
18:27:08,-0.17
18:27:08.015625,-0.06
18:27:08.031250,-0.06
18:27:08.046875,-0.21
18:27:08.062500,-0.46
18:27:08.078125,-0.70
18:27:08.093750,-0.84
18:27:08.109375,-0.82
18:27:08.125000,-0.68
18:27:08.140625,-0.48
18:27:08.156250,-0.32
18:27:08.171875,-0.25
18:27:08.187500,-0.27
18:27:08.203125,-0.34
18:27:08.218750,-0.41
18:27:08.234375,-0.47
18:27:08.250000,-0.50
18:27:08.265625,-0.50
18:27:08.281250,-0.46
18:27:08.296875,-0.36
18:27:08.312500,-0.20
18:27:08.328125,-0.02
18:27:08.343750,0.13
18:27:08.359375,0.20
18:27:08.375000,0.14
18:27:08.390625,-0.03
18:27:08.406250,-0.27
18:27:08.421875,-0.50
18:27:08.437500,-0.67
18:27:08.453125,-0.74
18:27:08.468750,-0.71
18:27:08.484375,-0.59
18:27:08.500000,-0.39
18:27:08.515625,-0.14
18:27:08.531250,0.12
18:27:08.546875,0.35
18:27:08.562500,0.46
18:27:08.578125,0.44
18:27:08.593750,0.31
18:27:08.609375,0.17
18:27:08.625000,0.13
18:27:08.640625,0.25
18:27:08.656250,0.52
18:27:08.671875,0.85
18:27:08.687500,1.15
18:27:08.703125,1.33
18:27:08.718750,1.39
18:27:08.734375,1.32
18:27:08.750000,1.16
18:27:08.765625,0.93
18:27:08.781250,0.67
18:27:08.796875,0.41
18:27:08.812500,0.19
18:27:08.828125,0.02
18:27:08.843750,-0.08
18:27:08.859375,-0.14
18:27:08.875000,-0.17
18:27:08.890625,-0.18
18:27:08.906250,-0.15
18:27:08.921875,-0.07
18:27:08.937500,0.05
18:27:08.953125,0.18
18:27:08.968750,0.26
18:27:08.984375,0.30
18:27:09,0.29
18:27:09.015625,0.27
18:27:09.031250,0.25
18:27:09.046875,0.21
18:27:09.062500,0.13
18:27:09.078125,0.01
18:27:09.093750,-0.12
18:27:09.109375,-0.23
18:27:09.125000,-0.26
18:27:09.140625,-0.25
18:27:09.156250,-0.23
18:27:09.171875,-0.26
18:27:09.187500,-0.40
18:27:09.203125,-0.59
18:27:09.218750,-0.75
18:27:09.234375,-0.78
18:27:09.250000,-0.65
18:27:09.265625,-0.39
18:27:09.281250,-0.11
18:27:09.296875,0.04
18:27:09.312500,0.00
18:27:09.328125,-0.23
18:27:09.343750,-0.57
18:27:09.359375,-0.91
18:27:09.375000,-1.14
18:27:09.390625,-1.19
18:27:09.406250,-1.03
18:27:09.421875,-0.69
18:27:09.437500,-0.25
18:27:09.453125,0.18
18:27:09.468750,0.46
18:27:09.484375,0.51
18:27:09.500000,0.34
18:27:09.515625,0.05
18:27:09.531250,-0.16
18:27:09.546875,-0.18
18:27:09.562500,0.03
18:27:09.578125,0.34
18:27:09.593750,0.62
18:27:09.609375,0.71
18:27:09.625000,0.60
18:27:09.640625,0.36
18:27:09.656250,0.11
18:27:09.671875,-0.06
18:27:09.687500,-0.11
18:27:09.703125,-0.07
18:27:09.718750,0.03
18:27:09.734375,0.15
18:27:09.750000,0.26
18:27:09.765625,0.36
18:27:09.781250,0.43
18:27:09.796875,0.44
18:27:09.812500,0.37
18:27:09.828125,0.20
18:27:09.843750,-0.06
18:27:09.859375,-0.37
18:27:09.875000,-0.66
18:27:09.890625,-0.85
18:27:09.906250,-0.87
18:27:09.921875,-0.72
18:27:09.937500,-0.43
18:27:09.953125,-0.15
18:27:09.968750,0.03
18:27:09.984375,0.02
18:27:10,-0.14
18:27:10.015625,-0.32
18:27:10.031250,-0.35
18:27:10.046875,-0.11
18:27:10.062500,0.40
18:27:10.078125,1.03
18:27:10.093750,1.58
18:27:10.109375,1.84
18:27:10.125000,1.70
18:27:10.140625,1.19
18:27:10.156250,0.46
18:27:10.171875,-0.29
18:27:10.187500,-0.86
18:27:10.203125,-1.16
18:27:10.218750,-1.20
18:27:10.234375,-1.07
18:27:10.250000,-0.91
18:27:10.265625,-0.82
18:27:10.281250,-0.84
18:27:10.296875,-0.95
18:27:10.312500,-1.06
18:27:10.328125,-1.09
18:27:10.343750,-0.99
18:27:10.359375,-0.80
18:27:10.375000,-0.62
18:27:10.390625,-0.53
18:27:10.406250,-0.55
18:27:10.421875,-0.62
18:27:10.437500,-0.62
18:27:10.453125,-0.48
18:27:10.468750,-0.19
18:27:10.484375,0.16
18:27:10.500000,0.44
18:27:10.515625,0.59
18:27:10.531250,0.59
18:27:10.546875,0.54
18:27:10.562500,0.52
18:27:10.578125,0.62
18:27:10.593750,0.83
18:27:10.609375,1.12
18:27:10.625000,1.39
18:27:10.640625,1.57
18:27:10.656250,1.59
18:27:10.671875,1.45
18:27:10.687500,1.18
18:27:10.703125,0.82
18:27:10.718750,0.47
18:27:10.734375,0.19
18:27:10.750000,0.05
18:27:10.765625,0.09
18:27:10.781250,0.32
18:27:10.796875,0.68
18:27:10.812500,1.07
18:27:10.828125,1.36
18:27:10.843750,1.43
18:27:10.859375,1.22
18:27:10.875000,0.77
18:27:10.890625,0.21
18:27:10.906250,-0.31
18:27:10.921875,-0.65
18:27:10.937500,-0.76
18:27:10.953125,-0.69
18:27:10.968750,-0.55
18:27:10.984375,-0.47
18:27:11,-0.53
18:27:11.015625,-0.69
18:27:11.031250,-0.87
18:27:11.046875,-0.98
18:27:11.062500,-0.98
18:27:11.078125,-0.90
18:27:11.093750,-0.86
18:27:11.109375,-0.93
18:27:11.125000,-1.13
18:27:11.140625,-1.38
18:27:11.156250,-1.55
18:27:11.171875,-1.52
18:27:11.187500,-1.27
18:27:11.203125,-0.89
18:27:11.218750,-0.49
18:27:11.234375,-0.18
18:27:11.250000,0.00
18:27:11.265625,0.07
18:27:11.281250,0.07
18:27:11.296875,0.01
18:27:11.312500,-0.09
18:27:11.328125,-0.20
18:27:11.343750,-0.29
18:27:11.359375,-0.31
18:27:11.375000,-0.25
18:27:11.390625,-0.12
18:27:11.406250,-0.00
18:27:11.421875,0.06
18:27:11.437500,0.05
18:27:11.453125,0.03
18:27:11.468750,0.08
18:27:11.484375,0.24
18:27:11.500000,0.44
18:27:11.515625,0.61
18:27:11.531250,0.64
18:27:11.546875,0.55
18:27:11.562500,0.39
18:27:11.578125,0.26
18:27:11.593750,0.22
18:27:11.609375,0.24
18:27:11.625000,0.24
18:27:11.640625,0.16
18:27:11.656250,-0.01
18:27:11.671875,-0.24
18:27:11.687500,-0.43
18:27:11.703125,-0.52
18:27:11.718750,-0.50
18:27:11.734375,-0.37
18:27:11.750000,-0.15
18:27:11.765625,0.13
18:27:11.781250,0.45
18:27:11.796875,0.73
18:27:11.812500,0.91
18:27:11.828125,0.97
18:27:11.843750,0.93
18:27:11.859375,0.85
18:27:11.875000,0.79
18:27:11.890625,0.75
18:27:11.906250,0.68
18:27:11.921875,0.53
18:27:11.937500,0.31
18:27:11.953125,0.11
18:27:11.968750,0.04
18:27:11.984375,0.16
18:27:12,0.43
18:27:12.015625,0.68
18:27:12.031250,0.72
18:27:12.046875,0.48
18:27:12.062500,0.04
18:27:12.078125,-0.38
18:27:12.093750,-0.57
18:27:12.109375,-0.43
18:27:12.125000,-0.07
18:27:12.140625,0.31
18:27:12.156250,0.47
18:27:12.171875,0.32
18:27:12.187500,-0.09
18:27:12.203125,-0.57
18:27:12.218750,-0.92
18:27:12.234375,-1.03
18:27:12.250000,-0.92
18:27:12.265625,-0.70
18:27:12.281250,-0.49
18:27:12.296875,-0.37
18:27:12.312500,-0.36
18:27:12.328125,-0.42
18:27:12.343750,-0.51
18:27:12.359375,-0.59
18:27:12.375000,-0.68
18:27:12.390625,-0.76
18:27:12.406250,-0.80
18:27:12.421875,-0.74
18:27:12.437500,-0.56
18:27:12.453125,-0.24
18:27:12.468750,0.19
18:27:12.484375,0.61
18:27:12.500000,0.89
18:27:12.515625,0.95
18:27:12.531250,0.80
18:27:12.546875,0.53
18:27:12.562500,0.30
18:27:12.578125,0.22
18:27:12.593750,0.32
18:27:12.609375,0.53
18:27:12.625000,0.69
18:27:12.640625,0.68
18:27:12.656250,0.47
18:27:12.671875,0.12
18:27:12.687500,-0.21
18:27:12.703125,-0.40
18:27:12.718750,-0.37
18:27:12.734375,-0.16
18:27:12.750000,0.13
18:27:12.765625,0.40
18:27:12.781250,0.60
18:27:12.796875,0.71
18:27:12.812500,0.75
18:27:12.828125,0.73
18:27:12.843750,0.65
18:27:12.859375,0.49
18:27:12.875000,0.24
18:27:12.890625,-0.07
18:27:12.906250,-0.38
18:27:12.921875,-0.63
18:27:12.937500,-0.78
18:27:12.953125,-0.83
18:27:12.968750,-0.83
18:27:12.984375,-0.83
18:27:13,-0.87
18:27:13.015625,-0.93
18:27:13.031250,-0.95
18:27:13.046875,-0.90
18:27:13.062500,-0.75
18:27:13.078125,-0.54
18:27:13.093750,-0.32
18:27:13.109375,-0.15
18:27:13.125000,-0.08
18:27:13.140625,-0.12
18:27:13.156250,-0.24
18:27:13.171875,-0.42
18:27:13.187500,-0.64
18:27:13.203125,-0.88
18:27:13.218750,-1.08
18:27:13.234375,-1.18
18:27:13.250000,-1.13
18:27:13.265625,-0.90
18:27:13.281250,-0.52
18:27:13.296875,-0.04
18:27:13.312500,0.46
18:27:13.328125,0.88
18:27:13.343750,1.16
18:27:13.359375,1.27
18:27:13.375000,1.22
18:27:13.390625,1.02
18:27:13.406250,0.74
18:27:13.421875,0.43
18:27:13.437500,0.11
18:27:13.453125,-0.16
18:27:13.468750,-0.37
18:27:13.484375,-0.50
18:27:13.500000,-0.51
18:27:13.515625,-0.36
18:27:13.531250,-0.05
18:27:13.546875,0.39
18:27:13.562500,0.88
18:27:13.578125,1.27
18:27:13.593750,1.47
18:27:13.609375,1.44
18:27:13.625000,1.20
18:27:13.640625,0.82
18:27:13.656250,0.39
18:27:13.671875,-0.08
18:27:13.687500,-0.56
18:27:13.703125,-1.00
18:27:13.718750,-1.33
18:27:13.734375,-1.42
18:27:13.750000,-1.22
18:27:13.765625,-0.74
18:27:13.781250,-0.14
18:27:13.796875,0.42
18:27:13.812500,0.81
18:27:13.828125,1.00
18:27:13.843750,1.07
18:27:13.859375,1.10
18:27:13.875000,1.10
18:27:13.890625,1.02
18:27:13.906250,0.80
18:27:13.921875,0.42
18:27:13.937500,-0.03
18:27:13.953125,-0.43
18:27:13.968750,-0.67
18:27:13.984375,-0.69
18:27:14,-0.57
18:27:14.015625,-0.39
18:27:14.031250,-0.29
18:27:14.046875,-0.32
18:27:14.062500,-0.49
18:27:14.078125,-0.77
18:27:14.093750,-1.06
18:27:14.109375,-1.26
18:27:14.125000,-1.31
18:27:14.140625,-1.18
18:27:14.156250,-0.94
18:27:14.171875,-0.69
18:27:14.187500,-0.52
18:27:14.203125,-0.51
18:27:14.218750,-0.61
18:27:14.234375,-0.74
18:27:14.250000,-0.80
18:27:14.265625,-0.72
18:27:14.281250,-0.49
18:27:14.296875,-0.16
18:27:14.312500,0.18
18:27:14.328125,0.44
18:27:14.343750,0.55
18:27:14.359375,0.51
18:27:14.375000,0.36
18:27:14.390625,0.18
18:27:14.406250,0.04
18:27:14.421875,-0.01
18:27:14.437500,0.02
18:27:14.453125,0.10
18:27:14.468750,0.22
18:27:14.484375,0.34
18:27:14.500000,0.46
18:27:14.515625,0.56
18:27:14.531250,0.61
18:27:14.546875,0.54
18:27:14.562500,0.35
18:27:14.578125,0.06
18:27:14.593750,-0.23
18:27:14.609375,-0.46
18:27:14.625000,-0.57
18:27:14.640625,-0.58
18:27:14.656250,-0.49
18:27:14.671875,-0.34
18:27:14.687500,-0.12
18:27:14.703125,0.21
18:27:14.718750,0.61
18:27:14.734375,1.01
18:27:14.750000,1.25
18:27:14.765625,1.20
18:27:14.781250,0.84
18:27:14.796875,0.30
18:27:14.812500,-0.23
18:27:14.828125,-0.53
18:27:14.843750,-0.55
18:27:14.859375,-0.35
18:27:14.875000,-0.11
18:27:14.890625,0.05
18:27:14.906250,0.08
18:27:14.921875,0.07
18:27:14.937500,0.09
18:27:14.953125,0.17
18:27:14.968750,0.27
18:27:14.984375,0.31
18:27:15,0.23
18:27:15.015625,0.09
18:27:15.031250,0.01
18:27:15.046875,0.05
18:27:15.062500,0.21
18:27:15.078125,0.37
18:27:15.093750,0.36
18:27:15.109375,0.08
18:27:15.125000,-0.44
18:27:15.140625,-1.03
18:27:15.156250,-1.49
18:27:15.171875,-1.66
18:27:15.187500,-1.48
18:27:15.203125,-1.01
18:27:15.218750,-0.43
18:27:15.234375,0.10
18:27:15.250000,0.42
18:27:15.265625,0.47
18:27:15.281250,0.29
18:27:15.296875,0.03
18:27:15.312500,-0.20
18:27:15.328125,-0.29
18:27:15.343750,-0.25
18:27:15.359375,-0.18
18:27:15.375000,-0.17
18:27:15.390625,-0.30
18:27:15.406250,-0.56
18:27:15.421875,-0.80
18:27:15.437500,-0.88
18:27:15.453125,-0.69
18:27:15.468750,-0.26
18:27:15.484375,0.26
18:27:15.500000,0.67
18:27:15.515625,0.83
18:27:15.531250,0.76
18:27:15.546875,0.58
18:27:15.562500,0.47
18:27:15.578125,0.53
18:27:15.593750,0.76
18:27:15.609375,1.02
18:27:15.625000,1.17
18:27:15.640625,1.12
18:27:15.656250,0.92
18:27:15.671875,0.71
18:27:15.687500,0.60
18:27:15.703125,0.65
18:27:15.718750,0.79
18:27:15.734375,0.88
18:27:15.750000,0.84
18:27:15.765625,0.61
18:27:15.781250,0.26
18:27:15.796875,-0.10
18:27:15.812500,-0.35
18:27:15.828125,-0.45
18:27:15.843750,-0.41
18:27:15.859375,-0.33
18:27:15.875000,-0.28
18:27:15.890625,-0.30
18:27:15.906250,-0.36
18:27:15.921875,-0.42
18:27:15.937500,-0.40
18:27:15.953125,-0.29
18:27:15.968750,-0.08
18:27:15.984375,0.17
18:27:16,0.39
18:27:16.015625,0.51
18:27:16.031250,0.52
18:27:16.046875,0.43
18:27:16.062500,0.25
18:27:16.078125,0.01
18:27:16.093750,-0.27
18:27:16.109375,-0.57
18:27:16.125000,-0.86
18:27:16.140625,-1.07
18:27:16.156250,-1.17
18:27:16.171875,-1.13
18:27:16.187500,-0.94
18:27:16.203125,-0.65
18:27:16.218750,-0.36
18:27:16.234375,-0.15
18:27:16.250000,-0.10
18:27:16.265625,-0.22
18:27:16.281250,-0.44
18:27:16.296875,-0.64
18:27:16.312500,-0.71
18:27:16.328125,-0.55
18:27:16.343750,-0.18
18:27:16.359375,0.30
18:27:16.375000,0.71
18:27:16.390625,0.89
18:27:16.406250,0.76
18:27:16.421875,0.36
18:27:16.437500,-0.16
18:27:16.453125,-0.61
18:27:16.468750,-0.85
18:27:16.484375,-0.84
18:27:16.500000,-0.65
18:27:16.515625,-0.42
18:27:16.531250,-0.26
18:27:16.546875,-0.19
18:27:16.562500,-0.17
18:27:16.578125,-0.07
18:27:16.593750,0.19
18:27:16.609375,0.62
18:27:16.625000,1.10
18:27:16.640625,1.48
18:27:16.656250,1.65
18:27:16.671875,1.58
18:27:16.687500,1.32
18:27:16.703125,0.99
18:27:16.718750,0.66
18:27:16.734375,0.37
18:27:16.750000,0.13
18:27:16.765625,-0.05
18:27:16.781250,-0.15
18:27:16.796875,-0.14
18:27:16.812500,-0.05
18:27:16.828125,0.07
18:27:16.843750,0.12
18:27:16.859375,0.07
18:27:16.875000,-0.04
18:27:16.890625,-0.09
18:27:16.906250,0.01
18:27:16.921875,0.25
18:27:16.937500,0.49
18:27:16.953125,0.58
18:27:16.968750,0.45
18:27:16.984375,0.15
18:27:17,-0.13
18:27:17.015625,-0.26
18:27:17.031250,-0.20
18:27:17.046875,-0.05
18:27:17.062500,0.02
18:27:17.078125,-0.11
18:27:17.093750,-0.43
18:27:17.109375,-0.80
18:27:17.125000,-1.09
18:27:17.140625,-1.19
18:27:17.156250,-1.11
18:27:17.171875,-0.90
18:27:17.187500,-0.66
18:27:17.203125,-0.43
18:27:17.218750,-0.20
18:27:17.234375,0.01
18:27:17.250000,0.20
18:27:17.265625,0.34
18:27:17.281250,0.40
18:27:17.296875,0.35
18:27:17.312500,0.21
18:27:17.328125,0.06
18:27:17.343750,-0.02
18:27:17.359375,0.02
18:27:17.375000,0.18
18:27:17.390625,0.39
18:27:17.406250,0.57
18:27:17.421875,0.66
18:27:17.437500,0.65
18:27:17.453125,0.59
18:27:17.468750,0.56
18:27:17.484375,0.61
18:27:17.500000,0.75
18:27:17.515625,0.94
18:27:17.531250,1.11
18:27:17.546875,1.21
18:27:17.562500,1.22
18:27:17.578125,1.12
18:27:17.593750,0.90
18:27:17.609375,0.60
18:27:17.625000,0.23
18:27:17.640625,-0.14
18:27:17.656250,-0.49
18:27:17.671875,-0.77
18:27:17.687500,-0.92
18:27:17.703125,-0.95
18:27:17.718750,-0.85
18:27:17.734375,-0.66
18:27:17.750000,-0.44
18:27:17.765625,-0.28
18:27:17.781250,-0.24
18:27:17.796875,-0.33
18:27:17.812500,-0.53
18:27:17.828125,-0.74
18:27:17.843750,-0.85
18:27:17.859375,-0.81
18:27:17.875000,-0.62
18:27:17.890625,-0.36
18:27:17.906250,-0.16
18:27:17.921875,-0.13
18:27:17.937500,-0.26
18:27:17.953125,-0.49
18:27:17.968750,-0.69
18:27:17.984375,-0.74
18:27:18,-0.63
18:27:18.015625,-0.42
18:27:18.031250,-0.26
18:27:18.046875,-0.25
18:27:18.062500,-0.42
18:27:18.078125,-0.70
18:27:18.093750,-0.97
18:27:18.109375,-1.16
18:27:18.125000,-1.23
18:27:18.140625,-1.21
18:27:18.156250,-1.13
18:27:18.171875,-1.00
18:27:18.187500,-0.80
18:27:18.203125,-0.52
18:27:18.218750,-0.18
18:27:18.234375,0.16
18:27:18.250000,0.44
18:27:18.265625,0.63
18:27:18.281250,0.76
18:27:18.296875,0.86
18:27:18.312500,0.96
18:27:18.328125,1.04
18:27:18.343750,1.03
18:27:18.359375,0.88
18:27:18.375000,0.57
18:27:18.390625,0.16
18:27:18.406250,-0.21
18:27:18.421875,-0.42
18:27:18.437500,-0.42
18:27:18.453125,-0.23
18:27:18.468750,0.05
18:27:18.484375,0.33
18:27:18.500000,0.54
18:27:18.515625,0.65
18:27:18.531250,0.69
18:27:18.546875,0.63
18:27:18.562500,0.42
18:27:18.578125,0.04
18:27:18.593750,-0.49
18:27:18.609375,-1.05
18:27:18.625000,-1.44
18:27:18.640625,-1.49
18:27:18.656250,-1.15
18:27:18.671875,-0.54
18:27:18.687500,0.10
18:27:18.703125,0.53
18:27:18.718750,0.66
18:27:18.734375,0.54
18:27:18.750000,0.33
18:27:18.765625,0.20
18:27:18.781250,0.23
18:27:18.796875,0.35
18:27:18.812500,0.43
18:27:18.828125,0.39
18:27:18.843750,0.21
18:27:18.859375,-0.03
18:27:18.875000,-0.21
18:27:18.890625,-0.24
18:27:18.906250,-0.14
18:27:18.921875,0.03
18:27:18.937500,0.17
18:27:18.953125,0.26
18:27:18.968750,0.31
18:27:18.984375,0.38
18:27:19,0.52
18:27:19.015625,0.66
18:27:19.031250,0.69
18:27:19.046875,0.51
18:27:19.062500,0.07
18:27:19.078125,-0.54
18:27:19.093750,-1.11
18:27:19.109375,-1.44
18:27:19.125000,-1.42
18:27:19.140625,-1.10
18:27:19.156250,-0.61
18:27:19.171875,-0.14
18:27:19.187500,0.19
18:27:19.203125,0.38
18:27:19.218750,0.49
18:27:19.234375,0.60
18:27:19.250000,0.74
18:27:19.265625,0.85
18:27:19.281250,0.84
18:27:19.296875,0.66
18:27:19.312500,0.32
18:27:19.328125,-0.11
18:27:19.343750,-0.50
18:27:19.359375,-0.78
18:27:19.375000,-0.90
18:27:19.390625,-0.89
18:27:19.406250,-0.81
18:27:19.421875,-0.68
18:27:19.437500,-0.55
18:27:19.453125,-0.42
18:27:19.468750,-0.31
18:27:19.484375,-0.26
18:27:19.500000,-0.27
18:27:19.515625,-0.32
18:27:19.531250,-0.34
18:27:19.546875,-0.25
18:27:19.562500,0.01
18:27:19.578125,0.40
18:27:19.593750,0.83
18:27:19.609375,1.15
18:27:19.625000,1.25
18:27:19.640625,1.11
18:27:19.656250,0.79
18:27:19.671875,0.41
18:27:19.687500,0.08
18:27:19.703125,-0.14
18:27:19.718750,-0.22
18:27:19.734375,-0.20
18:27:19.750000,-0.11
18:27:19.765625,0.01
18:27:19.781250,0.11
18:27:19.796875,0.15
18:27:19.812500,0.08
18:27:19.828125,-0.08
18:27:19.843750,-0.32
18:27:19.859375,-0.56
18:27:19.875000,-0.72
18:27:19.890625,-0.75
18:27:19.906250,-0.62
18:27:19.921875,-0.40
18:27:19.937500,-0.17
18:27:19.953125,-0.01
18:27:19.968750,0.01
18:27:19.984375,-0.13
18:27:20,-0.37
18:27:20.015625,-0.63
18:27:20.031250,-0.84
18:27:20.046875,-0.92
18:27:20.062500,-0.87
18:27:20.078125,-0.72
18:27:20.093750,-0.53
18:27:20.109375,-0.39
18:27:20.125000,-0.31
18:27:20.140625,-0.32
18:27:20.156250,-0.36
18:27:20.171875,-0.38
18:27:20.187500,-0.36
18:27:20.203125,-0.26
18:27:20.218750,-0.11
18:27:20.234375,0.08
18:27:20.250000,0.24
18:27:20.265625,0.33
18:27:20.281250,0.30
18:27:20.296875,0.14
18:27:20.312500,-0.12
18:27:20.328125,-0.42
18:27:20.343750,-0.69
18:27:20.359375,-0.87
18:27:20.375000,-0.96
18:27:20.390625,-1.02
18:27:20.406250,-1.06
18:27:20.421875,-1.09
18:27:20.437500,-1.08
18:27:20.453125,-0.97
18:27:20.468750,-0.77
18:27:20.484375,-0.50
18:27:20.500000,-0.26
18:27:20.515625,-0.11
18:27:20.531250,-0.07
18:27:20.546875,-0.09
18:27:20.562500,-0.12
18:27:20.578125,-0.14
18:27:20.593750,-0.17
18:27:20.609375,-0.23
18:27:20.625000,-0.33
18:27:20.640625,-0.40
18:27:20.656250,-0.35
18:27:20.671875,-0.14
18:27:20.687500,0.20
18:27:20.703125,0.57
18:27:20.718750,0.84
18:27:20.734375,0.96
18:27:20.750000,0.98
18:27:20.765625,1.02
18:27:20.781250,1.21
18:27:20.796875,1.54
18:27:20.812500,1.90
18:27:20.828125,2.11
18:27:20.843750,2.03
18:27:20.859375,1.68
18:27:20.875000,1.20
18:27:20.890625,0.79
18:27:20.906250,0.58
18:27:20.921875,0.57
18:27:20.937500,0.63
18:27:20.953125,0.58
18:27:20.968750,0.35
18:27:20.984375,-0.01
18:27:21,-0.38
18:27:21.015625,-0.64
18:27:21.031250,-0.70
18:27:21.046875,-0.61
18:27:21.062500,-0.42
18:27:21.078125,-0.19
18:27:21.093750,0.08
18:27:21.109375,0.36
18:27:21.125000,0.65
18:27:21.140625,0.85
18:27:21.156250,0.90
18:27:21.171875,0.74
18:27:21.187500,0.37
18:27:21.203125,-0.10
18:27:21.218750,-0.55
18:27:21.234375,-0.83
18:27:21.250000,-0.85
18:27:21.265625,-0.58
18:27:21.281250,-0.11
18:27:21.296875,0.44
18:27:21.312500,0.89
18:27:21.328125,1.15
18:27:21.343750,1.18
18:27:21.359375,1.08
18:27:21.375000,1.00
18:27:21.390625,1.05
18:27:21.406250,1.27
18:27:21.421875,1.58
18:27:21.437500,1.84
18:27:21.453125,1.95
18:27:21.468750,1.87
18:27:21.484375,1.66
18:27:21.500000,1.47
18:27:21.515625,1.40
18:27:21.531250,1.51
18:27:21.546875,1.76
18:27:21.562500,2.07
18:27:21.578125,2.34
18:27:21.593750,2.51
18:27:21.609375,2.57
18:27:21.625000,2.54
18:27:21.640625,2.46
18:27:21.656250,2.37
18:27:21.671875,2.28
18:27:21.687500,2.19
18:27:21.703125,2.08
18:27:21.718750,1.92
18:27:21.734375,1.66
18:27:21.750000,1.30
18:27:21.765625,0.86
18:27:21.781250,0.40
18:27:21.796875,-0.05
18:27:21.812500,-0.48
18:27:21.828125,-0.92
18:27:21.843750,-1.38
18:27:21.859375,-1.84
18:27:21.875000,-2.24
18:27:21.890625,-2.55
18:27:21.906250,-2.80
18:27:21.921875,-3.07
18:27:21.937500,-3.45
18:27:21.953125,-3.95
18:27:21.968750,-4.49
18:27:21.984375,-4.90
18:27:22,-5.01
18:27:22.015625,-4.81
18:27:22.031250,-4.35
18:27:22.046875,-3.81
18:27:22.062500,-3.30
18:27:22.078125,-2.90
18:27:22.093750,-2.58
18:27:22.109375,-2.32
18:27:22.125000,-2.11
18:27:22.140625,-1.93
18:27:22.156250,-1.79
18:27:22.171875,-1.66
18:27:22.187500,-1.50
18:27:22.203125,-1.29
18:27:22.218750,-1.05
18:27:22.234375,-0.80
18:27:22.250000,-0.54
18:27:22.265625,-0.29
18:27:22.281250,-0.01
18:27:22.296875,0.26
18:27:22.312500,0.44
18:27:22.328125,0.45
18:27:22.343750,0.25
18:27:22.359375,-0.13
18:27:22.375000,-0.55
18:27:22.390625,-0.84
18:27:22.406250,-0.88
18:27:22.421875,-0.66
18:27:22.437500,-0.27
18:27:22.453125,0.14
18:27:22.468750,0.44
18:27:22.484375,0.57
18:27:22.500000,0.59
18:27:22.515625,0.60
18:27:22.531250,0.71
18:27:22.546875,0.93
18:27:22.562500,1.19
18:27:22.578125,1.38
18:27:22.593750,1.40
18:27:22.609375,1.24
18:27:22.625000,0.98
18:27:22.640625,0.74
18:27:22.656250,0.60
18:27:22.671875,0.60
18:27:22.687500,0.67
18:27:22.703125,0.74
18:27:22.718750,0.77
18:27:22.734375,0.76
18:27:22.750000,0.77
18:27:22.765625,0.81
18:27:22.781250,0.84
18:27:22.796875,0.79
18:27:22.812500,0.62
18:27:22.828125,0.33
18:27:22.843750,0.01
18:27:22.859375,-0.26
18:27:22.875000,-0.38
18:27:22.890625,-0.33
18:27:22.906250,-0.15
18:27:22.921875,0.09
18:27:22.937500,0.32
18:27:22.953125,0.49
18:27:22.968750,0.56
18:27:22.984375,0.49
18:27:23,0.31
18:27:23.015625,0.04
18:27:23.031250,-0.22
18:27:23.046875,-0.37
18:27:23.062500,-0.35
18:27:23.078125,-0.14
18:27:23.093750,0.16
18:27:23.109375,0.42
18:27:23.125000,0.53
18:27:23.140625,0.42
18:27:23.156250,0.14
18:27:23.171875,-0.20
18:27:23.187500,-0.49
18:27:23.203125,-0.63
18:27:23.218750,-0.59
18:27:23.234375,-0.43
18:27:23.250000,-0.19
18:27:23.265625,0.02
18:27:23.281250,0.14
18:27:23.296875,0.15
18:27:23.312500,0.04
18:27:23.328125,-0.13
18:27:23.343750,-0.29
18:27:23.359375,-0.39
18:27:23.375000,-0.40
18:27:23.390625,-0.31
18:27:23.406250,-0.11
18:27:23.421875,0.18
18:27:23.437500,0.53
18:27:23.453125,0.87
18:27:23.468750,1.12
18:27:23.484375,1.16
18:27:23.500000,0.95
18:27:23.515625,0.51
18:27:23.531250,-0.05
18:27:23.546875,-0.59
18:27:23.562500,-0.96
18:27:23.578125,-1.06
18:27:23.593750,-0.90
18:27:23.609375,-0.53
18:27:23.625000,-0.06
18:27:23.640625,0.38
18:27:23.656250,0.67
18:27:23.671875,0.75
18:27:23.687500,0.60
18:27:23.703125,0.31
18:27:23.718750,-0.02
18:27:23.734375,-0.25
18:27:23.750000,-0.32
18:27:23.765625,-0.24
18:27:23.781250,-0.07
18:27:23.796875,0.09
18:27:23.812500,0.16
18:27:23.828125,0.10
18:27:23.843750,-0.05
18:27:23.859375,-0.20
18:27:23.875000,-0.30
18:27:23.890625,-0.30
18:27:23.906250,-0.23
18:27:23.921875,-0.11
18:27:23.937500,-0.01
18:27:23.953125,0.06
18:27:23.968750,0.09
18:27:23.984375,0.09
18:27:24,0.07
18:27:24.015625,0.05
18:27:24.031250,0.08
18:27:24.046875,0.19
18:27:24.062500,0.39
18:27:24.078125,0.63
18:27:24.093750,0.79
18:27:24.109375,0.76
18:27:24.125000,0.49
18:27:24.140625,0.04
18:27:24.156250,-0.45
18:27:24.171875,-0.81
18:27:24.187500,-0.98
18:27:24.203125,-1.00
18:27:24.218750,-0.95
18:27:24.234375,-0.92
18:27:24.250000,-0.92
18:27:24.265625,-0.88
18:27:24.281250,-0.72
18:27:24.296875,-0.40
18:27:24.312500,-0.00
18:27:24.328125,0.36
18:27:24.343750,0.58
18:27:24.359375,0.59
18:27:24.375000,0.42
18:27:24.390625,0.16
18:27:24.406250,-0.10
18:27:24.421875,-0.28
18:27:24.437500,-0.37
18:27:24.453125,-0.40
18:27:24.468750,-0.36
18:27:24.484375,-0.24
18:27:24.500000,-0.03
18:27:24.515625,0.27
18:27:24.531250,0.63
18:27:24.546875,0.97
18:27:24.562500,1.21
18:27:24.578125,1.30
18:27:24.593750,1.24
18:27:24.609375,1.08
18:27:24.625000,0.92
18:27:24.640625,0.80
18:27:24.656250,0.70
18:27:24.671875,0.58
18:27:24.687500,0.37
18:27:24.703125,0.05
18:27:24.718750,-0.32
18:27:24.734375,-0.61
18:27:24.750000,-0.75
18:27:24.765625,-0.71
18:27:24.781250,-0.55
18:27:24.796875,-0.38
18:27:24.812500,-0.32
18:27:24.828125,-0.40
18:27:24.843750,-0.56
18:27:24.859375,-0.73
18:27:24.875000,-0.81
18:27:24.890625,-0.79
18:27:24.906250,-0.72
18:27:24.921875,-0.67
18:27:24.937500,-0.67
18:27:24.953125,-0.69
18:27:24.968750,-0.66
18:27:24.984375,-0.53
18:27:25,-0.28
18:27:25.015625,0.02
18:27:25.031250,0.24
18:27:25.046875,0.27
18:27:25.062500,0.09
18:27:25.078125,-0.27
18:27:25.093750,-0.69
18:27:25.109375,-1.02
18:27:25.125000,-1.16
18:27:25.140625,-1.13
18:27:25.156250,-1.02
18:27:25.171875,-0.97
18:27:25.187500,-1.07
18:27:25.203125,-1.31
18:27:25.218750,-1.59
18:27:25.234375,-1.77
18:27:25.250000,-1.79
18:27:25.265625,-1.66
18:27:25.281250,-1.47
18:27:25.296875,-1.34
18:27:25.312500,-1.34
18:27:25.328125,-1.48
18:27:25.343750,-1.72
18:27:25.359375,-1.96
18:27:25.375000,-2.15
18:27:25.390625,-2.28
18:27:25.406250,-2.37
18:27:25.421875,-2.45
18:27:25.437500,-2.58
18:27:25.453125,-2.78
18:27:25.468750,-3.02
18:27:25.484375,-3.23
18:27:25.500000,-3.33
18:27:25.515625,-3.22
18:27:25.531250,-2.91
18:27:25.546875,-2.44
18:27:25.562500,-1.94
18:27:25.578125,-1.51
18:27:25.593750,-1.23
18:27:25.609375,-1.12
18:27:25.625000,-1.14
18:27:25.640625,-1.20
18:27:25.656250,-1.23
18:27:25.671875,-1.18
18:27:25.687500,-1.04
18:27:25.703125,-0.83
18:27:25.718750,-0.53
18:27:25.734375,-0.07
18:27:25.750000,0.67
18:27:25.765625,1.82
18:27:25.781250,3.44
18:27:25.796875,5.45
18:27:25.812500,7.60
18:27:25.828125,9.55
18:27:25.843750,10.94
18:27:25.859375,11.56
18:27:25.875000,11.37
18:27:25.890625,10.52
18:27:25.906250,9.25
18:27:25.921875,7.78
18:27:25.937500,6.29
18:27:25.953125,4.88
18:27:25.968750,3.63
18:27:25.984375,2.59
18:27:26,1.82
18:27:26.015625,1.32
18:27:26.031250,1.06
18:27:26.046875,0.91
18:27:26.062500,0.74
18:27:26.078125,0.45
18:27:26.093750,-0.01
18:27:26.109375,-0.59
18:27:26.125000,-1.16
18:27:26.140625,-1.56
18:27:26.156250,-1.67
18:27:26.171875,-1.45
18:27:26.187500,-0.96
18:27:26.203125,-0.35
18:27:26.218750,0.18
18:27:26.234375,0.47
18:27:26.250000,0.48
18:27:26.265625,0.28
18:27:26.281250,0.01
18:27:26.296875,-0.13
18:27:26.312500,0.01
18:27:26.328125,0.45
18:27:26.343750,1.08
18:27:26.359375,1.71
18:27:26.375000,2.13
18:27:26.390625,2.20
18:27:26.406250,1.90
18:27:26.421875,1.34
18:27:26.437500,0.70
18:27:26.453125,0.17
18:27:26.468750,-0.12
18:27:26.484375,-0.12
18:27:26.500000,0.11
18:27:26.515625,0.47
18:27:26.531250,0.84
18:27:26.546875,1.12
18:27:26.562500,1.22
18:27:26.578125,1.11
18:27:26.593750,0.83
18:27:26.609375,0.44
18:27:26.625000,0.07
18:27:26.640625,-0.20
18:27:26.656250,-0.31
18:27:26.671875,-0.26
18:27:26.687500,-0.13
18:27:26.703125,0.02
18:27:26.718750,0.10
18:27:26.734375,0.06
18:27:26.750000,-0.08
18:27:26.765625,-0.29
18:27:26.781250,-0.49
18:27:26.796875,-0.64
18:27:26.812500,-0.67
18:27:26.828125,-0.57
18:27:26.843750,-0.34
18:27:26.859375,-0.02
18:27:26.875000,0.34
18:27:26.890625,0.65
18:27:26.906250,0.86
18:27:26.921875,0.93
18:27:26.937500,0.85
18:27:26.953125,0.63
18:27:26.968750,0.31
18:27:26.984375,-0.06
18:27:27,-0.44
18:27:27.015625,-0.80
18:27:27.031250,-1.09
18:27:27.046875,-1.28
18:27:27.062500,-1.33
18:27:27.078125,-1.20
18:27:27.093750,-0.87
18:27:27.109375,-0.38
18:27:27.125000,0.18
18:27:27.140625,0.69
18:27:27.156250,1.00
18:27:27.171875,1.02
18:27:27.187500,0.74
18:27:27.203125,0.22
18:27:27.218750,-0.39
18:27:27.234375,-0.92
18:27:27.250000,-1.32
18:27:27.265625,-1.59
18:27:27.281250,-1.85
18:27:27.296875,-2.18
18:27:27.312500,-2.62
18:27:27.328125,-3.11
18:27:27.343750,-3.53
18:27:27.359375,-3.76
18:27:27.375000,-3.76
18:27:27.390625,-3.57
18:27:27.406250,-3.31
18:27:27.421875,-3.13
18:27:27.437500,-3.12
18:27:27.453125,-3.28
18:27:27.468750,-3.49
18:27:27.484375,-3.62
18:27:27.500000,-3.55
18:27:27.515625,-3.26
18:27:27.531250,-2.82
18:27:27.546875,-2.34
18:27:27.562500,-1.95
18:27:27.578125,-1.72
18:27:27.593750,-1.66
18:27:27.609375,-1.71
18:27:27.625000,-1.80
18:27:27.640625,-1.88
18:27:27.656250,-1.88
18:27:27.671875,-1.79
18:27:27.687500,-1.56
18:27:27.703125,-1.19
18:27:27.718750,-0.72
18:27:27.734375,-0.20
18:27:27.750000,0.29
18:27:27.765625,0.66
18:27:27.781250,0.89
18:27:27.796875,0.99
18:27:27.812500,0.99
18:27:27.828125,0.92
18:27:27.843750,0.82
18:27:27.859375,0.70
18:27:27.875000,0.59
18:27:27.890625,0.50
18:27:27.906250,0.44
18:27:27.921875,0.41
18:27:27.937500,0.39
18:27:27.953125,0.35
18:27:27.968750,0.29
18:27:27.984375,0.24
18:27:28,0.29
18:27:28.015625,0.46
18:27:28.031250,0.75
18:27:28.046875,1.10
18:27:28.062500,1.41
18:27:28.078125,1.59
18:27:28.093750,1.64
18:27:28.109375,1.62
18:27:28.125000,1.59
18:27:28.140625,1.59
18:27:28.156250,1.56
18:27:28.171875,1.41
18:27:28.187500,1.08
18:27:28.203125,0.60
18:27:28.218750,0.10
18:27:28.234375,-0.28
18:27:28.250000,-0.47
18:27:28.265625,-0.55
18:27:28.281250,-0.65
18:27:28.296875,-0.88
18:27:28.312500,-1.22
18:27:28.328125,-1.56
18:27:28.343750,-1.72
18:27:28.359375,-1.60
18:27:28.375000,-1.23
18:27:28.390625,-0.73
18:27:28.406250,-0.25
18:27:28.421875,0.12
18:27:28.437500,0.35
18:27:28.453125,0.43
18:27:28.468750,0.37
18:27:28.484375,0.19
18:27:28.500000,-0.11
18:27:28.515625,-0.45
18:27:28.531250,-0.73
18:27:28.546875,-0.88
18:27:28.562500,-0.89
18:27:28.578125,-0.83
18:27:28.593750,-0.77
18:27:28.609375,-0.78
18:27:28.625000,-0.85
18:27:28.640625,-0.90
18:27:28.656250,-0.86
18:27:28.671875,-0.70
18:27:28.687500,-0.40
18:27:28.703125,-0.04
18:27:28.718750,0.33
18:27:28.734375,0.61
18:27:28.750000,0.76
18:27:28.765625,0.73
18:27:28.781250,0.53
18:27:28.796875,0.24
18:27:28.812500,-0.05
18:27:28.828125,-0.28
18:27:28.843750,-0.38
18:27:28.859375,-0.34
18:27:28.875000,-0.19
18:27:28.890625,0.07
18:27:28.906250,0.44
18:27:28.921875,0.88
18:27:28.937500,1.34
18:27:28.953125,1.74
18:27:28.968750,2.02
18:27:28.984375,2.15
18:27:29,2.16
18:27:29.015625,2.13
18:27:29.031250,2.10
18:27:29.046875,2.11
18:27:29.062500,2.11
18:27:29.078125,2.06
18:27:29.093750,1.91
18:27:29.109375,1.66
18:27:29.125000,1.34
18:27:29.140625,1.03
18:27:29.156250,0.78
18:27:29.171875,0.62
18:27:29.187500,0.54
18:27:29.203125,0.50
18:27:29.218750,0.43
18:27:29.234375,0.29
18:27:29.250000,0.07
18:27:29.265625,-0.20
18:27:29.281250,-0.51
18:27:29.296875,-0.80
18:27:29.312500,-1.07
18:27:29.328125,-1.32
18:27:29.343750,-1.56
18:27:29.359375,-1.75
18:27:29.375000,-1.86
18:27:29.390625,-1.82
18:27:29.406250,-1.60
18:27:29.421875,-1.25
18:27:29.437500,-0.87
18:27:29.453125,-0.55
18:27:29.468750,-0.36
18:27:29.484375,-0.28
18:27:29.500000,-0.27
18:27:29.515625,-0.23
18:27:29.531250,-0.15
18:27:29.546875,-0.05
18:27:29.562500,0.02
18:27:29.578125,0.07
18:27:29.593750,0.13
18:27:29.609375,0.25
18:27:29.625000,0.43
18:27:29.640625,0.59
18:27:29.656250,0.63
18:27:29.671875,0.48
18:27:29.687500,0.19
18:27:29.703125,-0.10
18:27:29.718750,-0.25
18:27:29.734375,-0.17
18:27:29.750000,0.11
18:27:29.765625,0.45
18:27:29.781250,0.73
18:27:29.796875,0.90
18:27:29.812500,0.98
18:27:29.828125,1.03
18:27:29.843750,1.13
18:27:29.859375,1.24
18:27:29.875000,1.33
18:27:29.890625,1.35
18:27:29.906250,1.30
18:27:29.921875,1.24
18:27:29.937500,1.24
18:27:29.953125,1.31
18:27:29.968750,1.41
18:27:29.984375,1.46
18:27:30,1.40
18:27:30.015625,1.21
18:27:30.031250,0.97
18:27:30.046875,0.77
18:27:30.062500,0.67
18:27:30.078125,0.70
18:27:30.093750,0.85
18:27:30.109375,1.07
18:27:30.125000,1.33
18:27:30.140625,1.57
18:27:30.156250,1.76
18:27:30.171875,1.84
18:27:30.187500,1.76
18:27:30.203125,1.51
18:27:30.218750,1.14
18:27:30.234375,0.76
18:27:30.250000,0.49
18:27:30.265625,0.36
18:27:30.281250,0.33
18:27:30.296875,0.26
18:27:30.312500,0.02
18:27:30.328125,-0.42
18:27:30.343750,-0.98
18:27:30.359375,-1.51
18:27:30.375000,-1.85
18:27:30.390625,-1.95
18:27:30.406250,-1.91
18:27:30.421875,-1.84
18:27:30.437500,-1.88
18:27:30.453125,-2.00
18:27:30.468750,-2.11
18:27:30.484375,-2.11
18:27:30.500000,-1.97
18:27:30.515625,-1.74
18:27:30.531250,-1.54
18:27:30.546875,-1.44
18:27:30.562500,-1.44
18:27:30.578125,-1.46
18:27:30.593750,-1.39
18:27:30.609375,-1.21
18:27:30.625000,-0.94
18:27:30.640625,-0.65
18:27:30.656250,-0.38
18:27:30.671875,-0.17
18:27:30.687500,-0.02
18:27:30.703125,0.05
18:27:30.718750,0.02
18:27:30.734375,-0.09
18:27:30.750000,-0.22
18:27:30.765625,-0.32
18:27:30.781250,-0.33
18:27:30.796875,-0.24
18:27:30.812500,-0.14
18:27:30.828125,-0.09
18:27:30.843750,-0.15
18:27:30.859375,-0.31
18:27:30.875000,-0.50
18:27:30.890625,-0.67
18:27:30.906250,-0.78
18:27:30.921875,-0.82
18:27:30.937500,-0.82
18:27:30.953125,-0.80
18:27:30.968750,-0.78
18:27:30.984375,-0.75
18:27:31,-0.70
18:27:31.015625,-0.61
18:27:31.031250,-0.48
18:27:31.046875,-0.36
18:27:31.062500,-0.27
18:27:31.078125,-0.23
18:27:31.093750,-0.27
18:27:31.109375,-0.33
18:27:31.125000,-0.34
18:27:31.140625,-0.19
18:27:31.156250,0.16
18:27:31.171875,0.68
18:27:31.187500,1.24
18:27:31.203125,1.68
18:27:31.218750,1.86
18:27:31.234375,1.76
18:27:31.250000,1.43
18:27:31.265625,1.01
18:27:31.281250,0.64
18:27:31.296875,0.38
18:27:31.312500,0.23
18:27:31.328125,0.15
18:27:31.343750,0.09
18:27:31.359375,0.04
18:27:31.375000,-0.01
18:27:31.390625,-0.03
18:27:31.406250,-0.04
18:27:31.421875,-0.03
18:27:31.437500,-0.02
18:27:31.453125,0.02
18:27:31.468750,0.11
18:27:31.484375,0.27
18:27:31.500000,0.43
18:27:31.515625,0.51
18:27:31.531250,0.43
18:27:31.546875,0.14
18:27:31.562500,-0.27
18:27:31.578125,-0.66
18:27:31.593750,-0.88
18:27:31.609375,-0.84
18:27:31.625000,-0.59
18:27:31.640625,-0.25
18:27:31.656250,0.03
18:27:31.671875,0.20
18:27:31.687500,0.27
18:27:31.703125,0.32
18:27:31.718750,0.40
18:27:31.734375,0.49
18:27:31.750000,0.50
18:27:31.765625,0.37
18:27:31.781250,0.10
18:27:31.796875,-0.22
18:27:31.812500,-0.45
18:27:31.828125,-0.49
18:27:31.843750,-0.36
18:27:31.859375,-0.15
18:27:31.875000,0.00
18:27:31.890625,-0.00
18:27:31.906250,-0.16
18:27:31.921875,-0.39
18:27:31.937500,-0.58
18:27:31.953125,-0.65
18:27:31.968750,-0.59
18:27:31.984375,-0.44
18:27:32,-0.29
18:27:32.015625,-0.22
18:27:32.031250,-0.25
18:27:32.046875,-0.32
18:27:32.062500,-0.33
18:27:32.078125,-0.19
18:27:32.093750,0.13
18:27:32.109375,0.54
18:27:32.125000,0.91
18:27:32.140625,1.10
18:27:32.156250,1.06
18:27:32.171875,0.89
18:27:32.187500,0.72
18:27:32.203125,0.66
18:27:32.218750,0.71
18:27:32.234375,0.77
18:27:32.250000,0.70
18:27:32.265625,0.44
18:27:32.281250,0.02
18:27:32.296875,-0.45
18:27:32.312500,-0.85
18:27:32.328125,-1.09
18:27:32.343750,-1.17
18:27:32.359375,-1.11
18:27:32.375000,-0.93
18:27:32.390625,-0.64
18:27:32.406250,-0.26
18:27:32.421875,0.16
18:27:32.437500,0.55
18:27:32.453125,0.81
18:27:32.468750,0.87
18:27:32.484375,0.75
18:27:32.500000,0.48
18:27:32.515625,0.15
18:27:32.531250,-0.14
18:27:32.546875,-0.32
18:27:32.562500,-0.37
18:27:32.578125,-0.27
18:27:32.593750,-0.08
18:27:32.609375,0.15
18:27:32.625000,0.32
18:27:32.640625,0.37
18:27:32.656250,0.29
18:27:32.671875,0.13
18:27:32.687500,-0.04
18:27:32.703125,-0.15
18:27:32.718750,-0.18
18:27:32.734375,-0.15
18:27:32.750000,-0.12
18:27:32.765625,-0.15
18:27:32.781250,-0.26
18:27:32.796875,-0.46
18:27:32.812500,-0.73
18:27:32.828125,-1.03
18:27:32.843750,-1.30
18:27:32.859375,-1.47
18:27:32.875000,-1.45
18:27:32.890625,-1.18
18:27:32.906250,-0.70
18:27:32.921875,-0.07
18:27:32.937500,0.53
18:27:32.953125,0.93
18:27:32.968750,1.03
18:27:32.984375,0.82
18:27:33,0.40
18:27:33.015625,-0.07
18:27:33.031250,-0.45
18:27:33.046875,-0.64
18:27:33.062500,-0.64
18:27:33.078125,-0.51
18:27:33.093750,-0.32
18:27:33.109375,-0.10
18:27:33.125000,0.10
18:27:33.140625,0.30
18:27:33.156250,0.48
18:27:33.171875,0.64
18:27:33.187500,0.73
18:27:33.203125,0.72
18:27:33.218750,0.61
18:27:33.234375,0.43
18:27:33.250000,0.26
18:27:33.265625,0.16
18:27:33.281250,0.16
18:27:33.296875,0.25
18:27:33.312500,0.37
18:27:33.328125,0.49
18:27:33.343750,0.57
18:27:33.359375,0.59
18:27:33.375000,0.54
18:27:33.390625,0.40
18:27:33.406250,0.18
18:27:33.421875,-0.11
18:27:33.437500,-0.40
18:27:33.453125,-0.60
18:27:33.468750,-0.63
18:27:33.484375,-0.47
18:27:33.500000,-0.19
18:27:33.515625,0.09
18:27:33.531250,0.22
18:27:33.546875,0.14
18:27:33.562500,-0.12
18:27:33.578125,-0.45
18:27:33.593750,-0.70
18:27:33.609375,-0.81
18:27:33.625000,-0.78
18:27:33.640625,-0.68
18:27:33.656250,-0.58
18:27:33.671875,-0.50
18:27:33.687500,-0.41
18:27:33.703125,-0.29
18:27:33.718750,-0.16
18:27:33.734375,-0.05
18:27:33.750000,-0.03
18:27:33.765625,-0.10
18:27:33.781250,-0.21
18:27:33.796875,-0.29
18:27:33.812500,-0.31
18:27:33.828125,-0.33
18:27:33.843750,-0.44
18:27:33.859375,-0.70
18:27:33.875000,-1.07
18:27:33.890625,-1.44
18:27:33.906250,-1.67
18:27:33.921875,-1.66
18:27:33.937500,-1.42
18:27:33.953125,-1.03
18:27:33.968750,-0.57
18:27:33.984375,-0.15
18:27:34,0.19
18:27:34.015625,0.38
18:27:34.031250,0.38
18:27:34.046875,0.18
18:27:34.062500,-0.18
18:27:34.078125,-0.59
18:27:34.093750,-0.90
18:27:34.109375,-0.96
18:27:34.125000,-0.71
18:27:34.140625,-0.18
18:27:34.156250,0.45
18:27:34.171875,0.99
18:27:34.187500,1.28
18:27:34.203125,1.27
18:27:34.218750,1.04
18:27:34.234375,0.77
18:27:34.250000,0.65
18:27:34.265625,0.76
18:27:34.281250,1.10
18:27:34.296875,1.56
18:27:34.312500,2.00
18:27:34.328125,2.32
18:27:34.343750,2.47
18:27:34.359375,2.50
18:27:34.375000,2.47
18:27:34.390625,2.42
18:27:34.406250,2.38
18:27:34.421875,2.35
18:27:34.437500,2.30
18:27:34.453125,2.22
18:27:34.468750,2.10
18:27:34.484375,1.94
18:27:34.500000,1.73
18:27:34.515625,1.49
18:27:34.531250,1.20
18:27:34.546875,0.87
18:27:34.562500,0.50
18:27:34.578125,0.11
18:27:34.593750,-0.28
18:27:34.609375,-0.61
18:27:34.625000,-0.85
18:27:34.640625,-0.98
18:27:34.656250,-1.01
18:27:34.671875,-0.98
18:27:34.687500,-0.93
18:27:34.703125,-0.91
18:27:34.718750,-0.93
18:27:34.734375,-1.00
18:27:34.750000,-1.11
18:27:34.765625,-1.24
18:27:34.781250,-1.36
18:27:34.796875,-1.46
18:27:34.812500,-1.51
18:27:34.828125,-1.49
18:27:34.843750,-1.41
18:27:34.859375,-1.27
18:27:34.875000,-1.06
18:27:34.890625,-0.80
18:27:34.906250,-0.50
18:27:34.921875,-0.23
18:27:34.937500,-0.06
18:27:34.953125,-0.06
18:27:34.968750,-0.27
18:27:34.984375,-0.64
18:27:35,-1.05
18:27:35.015625,-1.36
18:27:35.031250,-1.44
18:27:35.046875,-1.27
18:27:35.062500,-0.93
18:27:35.078125,-0.57
18:27:35.093750,-0.30
18:27:35.109375,-0.14
18:27:35.125000,-0.05
18:27:35.140625,0.09
18:27:35.156250,0.34
18:27:35.171875,0.68
18:27:35.187500,0.99
18:27:35.203125,1.16
18:27:35.218750,1.11
18:27:35.234375,0.93
18:27:35.250000,0.75
18:27:35.265625,0.73
18:27:35.281250,0.91
18:27:35.296875,1.18
18:27:35.312500,1.34
18:27:35.328125,1.22
18:27:35.343750,0.80
18:27:35.359375,0.19
18:27:35.375000,-0.36
18:27:35.390625,-0.68
18:27:35.406250,-0.69
18:27:35.421875,-0.49
18:27:35.437500,-0.24
18:27:35.453125,-0.08
18:27:35.468750,-0.06
18:27:35.484375,-0.11
18:27:35.500000,-0.15
18:27:35.515625,-0.12
18:27:35.531250,0.01
18:27:35.546875,0.22
18:27:35.562500,0.46
18:27:35.578125,0.71
18:27:35.593750,0.94
18:27:35.609375,1.09
18:27:35.625000,1.11
18:27:35.640625,0.96
18:27:35.656250,0.66
18:27:35.671875,0.32
18:27:35.687500,0.11
18:27:35.703125,0.14
18:27:35.718750,0.45
18:27:35.734375,0.93
18:27:35.750000,1.38
18:27:35.765625,1.62
18:27:35.781250,1.57
18:27:35.796875,1.27
18:27:35.812500,0.84
18:27:35.828125,0.45
18:27:35.843750,0.17
18:27:35.859375,0.02
18:27:35.875000,-0.05
18:27:35.890625,-0.07
18:27:35.906250,-0.06
18:27:35.921875,-0.04
18:27:35.937500,-0.03
18:27:35.953125,-0.06
18:27:35.968750,-0.19
18:27:35.984375,-0.44
18:27:36,-0.74
18:27:36.015625,-1.01
18:27:36.031250,-1.16
18:27:36.046875,-1.13
18:27:36.062500,-0.98
18:27:36.078125,-0.77
18:27:36.093750,-0.54
18:27:36.109375,-0.29
18:27:36.125000,0.01
18:27:36.140625,0.38
18:27:36.156250,0.78
18:27:36.171875,1.19
18:27:36.187500,1.54
18:27:36.203125,1.83
18:27:36.218750,2.10
18:27:36.234375,2.35
18:27:36.250000,2.59
18:27:36.265625,2.75
18:27:36.281250,2.78
18:27:36.296875,2.71
18:27:36.312500,2.65
18:27:36.328125,2.79
18:27:36.343750,3.26
18:27:36.359375,4.03
18:27:36.375000,4.93
18:27:36.390625,5.69
18:27:36.406250,6.10
18:27:36.421875,6.11
18:27:36.437500,5.88
18:27:36.453125,5.66
18:27:36.468750,5.64
18:27:36.484375,5.84
18:27:36.500000,6.12
18:27:36.515625,6.20
18:27:36.531250,5.83
18:27:36.546875,4.90
18:27:36.562500,3.48
18:27:36.578125,1.79
18:27:36.593750,0.11
18:27:36.609375,-1.25
18:27:36.625000,-2.13
18:27:36.640625,-2.45
18:27:36.656250,-2.35
18:27:36.671875,-2.11
18:27:36.687500,-2.01
18:27:36.703125,-2.29
18:27:36.718750,-2.98
18:27:36.734375,-3.90
18:27:36.750000,-4.67
18:27:36.765625,-4.94
18:27:36.781250,-4.43
18:27:36.796875,-3.11
18:27:36.812500,-1.14
18:27:36.828125,1.20
18:27:36.843750,3.63
18:27:36.859375,5.97
18:27:36.875000,8.15
18:27:36.890625,10.11
18:27:36.906250,11.74
18:27:36.921875,12.89
18:27:36.937500,13.45
18:27:36.953125,13.42
18:27:36.968750,13.02
18:27:36.984375,12.60
18:27:37,12.53
18:27:37.015625,12.97
18:27:37.031250,13.75
18:27:37.046875,14.40
18:27:37.062500,14.39
18:27:37.078125,13.39
18:27:37.093750,11.49
18:27:37.109375,9.17
18:27:37.125000,7.18
18:27:37.140625,6.18
18:27:37.156250,6.49
18:27:37.171875,8.00
18:27:37.187500,10.16
18:27:37.203125,12.27
18:27:37.218750,13.67
18:27:37.234375,13.94
18:27:37.250000,13.11
18:27:37.265625,11.59
18:27:37.281250,10.11
18:27:37.296875,9.41
18:27:37.312500,9.82
18:27:37.328125,10.84
18:27:37.343750,10.98
18:27:37.359375,8.01
18:27:37.375000,-0.41
18:27:37.390625,-15.79
18:27:37.406250,-37.84
18:27:37.421875,-64.04
18:27:37.437500,-89.74
18:27:37.453125,-109.33
18:27:37.468750,-117.83
18:27:37.484375,-112.52
18:27:37.500000,-93.99
18:27:37.515625,-66.23
18:27:37.531250,-35.59
18:27:37.546875,-9.03
18:27:37.562500,7.96
18:27:37.578125,12.77
18:27:37.593750,6.24
18:27:37.609375,-7.99
18:27:37.625000,-24.74
18:27:37.640625,-38.88
18:27:37.656250,-46.63
18:27:37.671875,-46.21
18:27:37.687500,-38.09
18:27:37.703125,-24.54
18:27:37.718750,-8.80
18:27:37.734375,5.84
18:27:37.750000,16.97
18:27:37.765625,23.54
18:27:37.781250,25.83
18:27:37.796875,25.08
18:27:37.812500,22.86
18:27:37.828125,20.51
18:27:37.843750,18.85
18:27:37.859375,18.18
18:27:37.875000,18.45
18:27:37.890625,19.41
18:27:37.906250,20.70
18:27:37.921875,21.75
18:27:37.937500,21.96
18:27:37.953125,20.86
18:27:37.968750,18.35
18:27:37.984375,14.83
18:27:38,11.10
18:27:38.015625,8.10
18:27:38.031250,6.46
18:27:38.046875,6.25
18:27:38.062500,6.92
18:27:38.078125,7.56
18:27:38.093750,7.34
18:27:38.109375,5.82
18:27:38.125000,3.25
18:27:38.140625,0.41
18:27:38.156250,-1.72
18:27:38.171875,-2.41
18:27:38.187500,-1.56
18:27:38.203125,0.27
18:27:38.218750,2.12
18:27:38.234375,3.06
18:27:38.250000,2.61
18:27:38.265625,0.95
18:27:38.281250,-1.27
18:27:38.296875,-3.21
18:27:38.312500,-4.25
18:27:38.328125,-4.24
18:27:38.343750,-3.45
18:27:38.359375,-2.29
18:27:38.375000,-1.13
18:27:38.390625,-0.14
18:27:38.406250,0.70
18:27:38.421875,1.42
18:27:38.437500,2.03
18:27:38.453125,2.42
18:27:38.468750,2.49
18:27:38.484375,2.23
18:27:38.500000,1.74
18:27:38.515625,1.20
18:27:38.531250,0.80
18:27:38.546875,0.65
18:27:38.562500,0.76
18:27:38.578125,1.06
18:27:38.593750,1.39
18:27:38.609375,1.61
18:27:38.625000,1.61
18:27:38.640625,1.34
18:27:38.656250,0.83
18:27:38.671875,0.17
18:27:38.687500,-0.50
18:27:38.703125,-1.05
18:27:38.718750,-1.39
18:27:38.734375,-1.49
18:27:38.750000,-1.37
18:27:38.765625,-1.04
18:27:38.781250,-0.54
18:27:38.796875,0.13
18:27:38.812500,0.92
18:27:38.828125,1.79
18:27:38.843750,2.65
18:27:38.859375,3.45
18:27:38.875000,4.14
18:27:38.890625,4.77
18:27:38.906250,5.37
18:27:38.921875,5.96
18:27:38.937500,6.49
18:27:38.953125,6.86
18:27:38.968750,6.99
18:27:38.984375,6.89
18:27:39,6.65
18:27:39.015625,6.44
18:27:39.031250,6.39
18:27:39.046875,6.54
18:27:39.062500,6.83
18:27:39.078125,7.14
18:27:39.093750,7.38
18:27:39.109375,7.49
18:27:39.125000,7.49
18:27:39.140625,7.35
18:27:39.156250,7.03
18:27:39.171875,6.47
18:27:39.187500,5.62
18:27:39.203125,4.56
18:27:39.218750,3.40
18:27:39.234375,2.32
18:27:39.250000,1.48
18:27:39.265625,0.94
18:27:39.281250,0.67
18:27:39.296875,0.60
18:27:39.312500,0.63
18:27:39.328125,0.68
18:27:39.343750,0.67
18:27:39.359375,0.50
18:27:39.375000,0.11
18:27:39.390625,-0.48
18:27:39.406250,-1.22
18:27:39.421875,-1.93
18:27:39.437500,-2.43
18:27:39.453125,-2.59
18:27:39.468750,-2.42
18:27:39.484375,-2.00
18:27:39.500000,-1.50
18:27:39.515625,-1.10
18:27:39.531250,-0.88
18:27:39.546875,-0.86
18:27:39.562500,-0.96
18:27:39.578125,-1.09
18:27:39.593750,-1.19
18:27:39.609375,-1.25
18:27:39.625000,-1.28
18:27:39.640625,-1.32
18:27:39.656250,-1.35
18:27:39.671875,-1.34
18:27:39.687500,-1.24
18:27:39.703125,-1.06
18:27:39.718750,-0.86
18:27:39.734375,-0.76
18:27:39.750000,-0.88
18:27:39.765625,-1.22
18:27:39.781250,-1.66
18:27:39.796875,-2.01
18:27:39.812500,-2.08
18:27:39.828125,-1.83
18:27:39.843750,-1.38
18:27:39.859375,-0.94
18:27:39.875000,-0.70
18:27:39.890625,-0.72
18:27:39.906250,-0.93
18:27:39.921875,-1.18
18:27:39.937500,-1.34
18:27:39.953125,-1.36
18:27:39.968750,-1.26
18:27:39.984375,-1.09
18:27:40,-0.90
18:27:40.015625,-0.75
18:27:40.031250,-0.66
18:27:40.046875,-0.65
18:27:40.062500,-0.74
18:27:40.078125,-0.93
18:27:40.093750,-1.18
18:27:40.109375,-1.45
18:27:40.125000,-1.69
18:27:40.140625,-1.83
18:27:40.156250,-1.85
18:27:40.171875,-1.70
18:27:40.187500,-1.37
18:27:40.203125,-0.90
18:27:40.218750,-0.36
18:27:40.234375,0.11
18:27:40.250000,0.37
18:27:40.265625,0.34
18:27:40.281250,0.03
18:27:40.296875,-0.43
18:27:40.312500,-0.84
18:27:40.328125,-1.04
18:27:40.343750,-0.96
18:27:40.359375,-0.63
18:27:40.375000,-0.17
18:27:40.390625,0.31
18:27:40.406250,0.74
18:27:40.421875,1.10
18:27:40.437500,1.39
18:27:40.453125,1.58
18:27:40.468750,1.61
18:27:40.484375,1.39
18:27:40.500000,0.91
18:27:40.515625,0.19
18:27:40.531250,-0.66
18:27:40.546875,-1.54
18:27:40.562500,-2.34
18:27:40.578125,-3.05
18:27:40.593750,-3.66
18:27:40.609375,-4.15
18:27:40.625000,-4.54
18:27:40.640625,-4.80
18:27:40.656250,-4.96
18:27:40.671875,-5.04
18:27:40.687500,-5.11
18:27:40.703125,-5.18
18:27:40.718750,-5.25
18:27:40.734375,-5.24
18:27:40.750000,-5.09
18:27:40.765625,-4.75
18:27:40.781250,-4.20
18:27:40.796875,-3.49
18:27:40.812500,-2.68
18:27:40.828125,-1.84
18:27:40.843750,-1.03
18:27:40.859375,-0.36
18:27:40.875000,0.13
18:27:40.890625,0.38
18:27:40.906250,0.38
18:27:40.921875,0.18
18:27:40.937500,-0.15
18:27:40.953125,-0.52
18:27:40.968750,-0.82
18:27:40.984375,-0.96
18:27:41,-0.91
18:27:41.015625,-0.65
18:27:41.031250,-0.27
18:27:41.046875,0.16
18:27:41.062500,0.52
18:27:41.078125,0.76
18:27:41.093750,0.88
18:27:41.109375,0.92
18:27:41.125000,0.92
18:27:41.140625,0.93
18:27:41.156250,0.97
18:27:41.171875,1.07
18:27:41.187500,1.25
18:27:41.203125,1.54
18:27:41.218750,1.90
18:27:41.234375,2.24
18:27:41.250000,2.44
18:27:41.265625,2.43
18:27:41.281250,2.21
18:27:41.296875,1.88
18:27:41.312500,1.57
18:27:41.328125,1.37
18:27:41.343750,1.30
18:27:41.359375,1.30
18:27:41.375000,1.30
18:27:41.390625,1.26
18:27:41.406250,1.18
18:27:41.421875,1.10
18:27:41.437500,1.05
18:27:41.453125,1.01
18:27:41.468750,0.98
18:27:41.484375,0.93
18:27:41.500000,0.91
18:27:41.515625,0.94
18:27:41.531250,1.03
18:27:41.546875,1.18
18:27:41.562500,1.37
18:27:41.578125,1.58
18:27:41.593750,1.82
18:27:41.609375,2.13
18:27:41.625000,2.57
18:27:41.640625,3.19
18:27:41.656250,4.02
18:27:41.671875,5.02
18:27:41.687500,6.11
18:27:41.703125,7.16
18:27:41.718750,8.04
18:27:41.734375,8.66
18:27:41.750000,9.00
18:27:41.765625,9.12
18:27:41.781250,9.12
18:27:41.796875,9.12
18:27:41.812500,9.15
18:27:41.828125,9.19
18:27:41.843750,9.13
18:27:41.859375,8.87
18:27:41.875000,8.37
18:27:41.890625,7.67
18:27:41.906250,6.91
18:27:41.921875,6.25
18:27:41.937500,5.80
18:27:41.953125,5.56
18:27:41.968750,5.43
18:27:41.984375,5.23
18:27:42,4.82
18:27:42.015625,4.12
18:27:42.031250,3.19
18:27:42.046875,2.16
18:27:42.062500,1.18
18:27:42.078125,0.32
18:27:42.093750,-0.37
18:27:42.109375,-0.92
18:27:42.125000,-1.36
18:27:42.140625,-1.73
18:27:42.156250,-2.02
18:27:42.171875,-2.29
18:27:42.187500,-2.59
18:27:42.203125,-2.99
18:27:42.218750,-3.51
18:27:42.234375,-4.12
18:27:42.250000,-4.69
18:27:42.265625,-5.06
18:27:42.281250,-5.09
18:27:42.296875,-4.74
18:27:42.312500,-4.11
18:27:42.328125,-3.36
18:27:42.343750,-2.73
18:27:42.359375,-2.38
18:27:42.375000,-2.35
18:27:42.390625,-2.57
18:27:42.406250,-2.83
18:27:42.421875,-2.93
18:27:42.437500,-2.72
18:27:42.453125,-2.20
18:27:42.468750,-1.49
18:27:42.484375,-0.76
18:27:42.500000,-0.17
18:27:42.515625,0.21
18:27:42.531250,0.42
18:27:42.546875,0.53
18:27:42.562500,0.58
18:27:42.578125,0.60
18:27:42.593750,0.61
18:27:42.609375,0.61
18:27:42.625000,0.66
18:27:42.640625,0.78
18:27:42.656250,0.97
18:27:42.671875,1.15
18:27:42.687500,1.20
18:27:42.703125,1.03
18:27:42.718750,0.64
18:27:42.734375,0.10
18:27:42.750000,-0.46
18:27:42.765625,-0.97
18:27:42.781250,-1.40
18:27:42.796875,-1.77
18:27:42.812500,-2.10
18:27:42.828125,-2.41
18:27:42.843750,-2.64
18:27:42.859375,-2.76
18:27:42.875000,-2.74
18:27:42.890625,-2.61
18:27:42.906250,-2.42
18:27:42.921875,-2.27
18:27:42.937500,-2.17
18:27:42.953125,-2.10
18:27:42.968750,-1.99
18:27:42.984375,-1.77
18:27:43,-1.45
18:27:43.015625,-1.11
18:27:43.031250,-0.86
18:27:43.046875,-0.77
18:27:43.062500,-0.82
18:27:43.078125,-0.91
18:27:43.093750,-0.88
18:27:43.109375,-0.69
18:27:43.125000,-0.37
18:27:43.140625,-0.09
18:27:43.156250,0.01
18:27:43.171875,-0.09
18:27:43.187500,-0.31
18:27:43.203125,-0.47
18:27:43.218750,-0.42
18:27:43.234375,-0.15
18:27:43.250000,0.22
18:27:43.265625,0.52
18:27:43.281250,0.60
18:27:43.296875,0.42
18:27:43.312500,0.04
18:27:43.328125,-0.41
18:27:43.343750,-0.83
18:27:43.359375,-1.18
18:27:43.375000,-1.49
18:27:43.390625,-1.86
18:27:43.406250,-2.36
18:27:43.421875,-3.00
18:27:43.437500,-3.75
18:27:43.453125,-4.50
18:27:43.468750,-5.16
18:27:43.484375,-5.70
18:27:43.500000,-6.12
18:27:43.515625,-6.46
18:27:43.531250,-6.70
18:27:43.546875,-6.80
18:27:43.562500,-6.65
18:27:43.578125,-6.22
18:27:43.593750,-5.54
18:27:43.609375,-4.70
18:27:43.625000,-3.83
18:27:43.640625,-3.02
18:27:43.656250,-2.28
18:27:43.671875,-1.62
18:27:43.687500,-1.00
18:27:43.703125,-0.42
18:27:43.718750,0.10
18:27:43.734375,0.59
18:27:43.750000,1.04
18:27:43.765625,1.48
18:27:43.781250,1.92
18:27:43.796875,2.33
18:27:43.812500,2.70
18:27:43.828125,2.98
18:27:43.843750,3.17
18:27:43.859375,3.32
18:27:43.875000,3.50
18:27:43.890625,3.76
18:27:43.906250,4.15
18:27:43.921875,4.61
18:27:43.937500,5.04
18:27:43.953125,5.30
18:27:43.968750,5.29
18:27:43.984375,4.96
18:27:44,4.37
18:27:44.015625,3.67
18:27:44.031250,3.01
18:27:44.046875,2.48
18:27:44.062500,2.08
18:27:44.078125,1.77
18:27:44.093750,1.48
18:27:44.109375,1.20
18:27:44.125000,0.98
18:27:44.140625,0.87
18:27:44.156250,0.92
18:27:44.171875,1.11
18:27:44.187500,1.39
18:27:44.203125,1.62
18:27:44.218750,1.70
18:27:44.234375,1.56
18:27:44.250000,1.23
18:27:44.265625,0.78
18:27:44.281250,0.34
18:27:44.296875,-0.02
18:27:44.312500,-0.26
18:27:44.328125,-0.45
18:27:44.343750,-0.64
18:27:44.359375,-0.88
18:27:44.375000,-1.14
18:27:44.390625,-1.34
18:27:44.406250,-1.37
18:27:44.421875,-1.19
18:27:44.437500,-0.87
18:27:44.453125,-0.54
18:27:44.468750,-0.34
18:27:44.484375,-0.33
18:27:44.500000,-0.46
18:27:44.515625,-0.63
18:27:44.531250,-0.68
18:27:44.546875,-0.52
18:27:44.562500,-0.17
18:27:44.578125,0.23
18:27:44.593750,0.53
18:27:44.609375,0.61
18:27:44.625000,0.44
18:27:44.640625,0.12
18:27:44.656250,-0.22
18:27:44.671875,-0.42
18:27:44.687500,-0.42
18:27:44.703125,-0.26
18:27:44.718750,-0.02
18:27:44.734375,0.18
18:27:44.750000,0.30
18:27:44.765625,0.32
18:27:44.781250,0.29
18:27:44.796875,0.27
18:27:44.812500,0.27
18:27:44.828125,0.25
18:27:44.843750,0.18
18:27:44.859375,0.03
18:27:44.875000,-0.21
18:27:44.890625,-0.48
18:27:44.906250,-0.74
18:27:44.921875,-0.91
18:27:44.937500,-0.93
18:27:44.953125,-0.79
18:27:44.968750,-0.52
18:27:44.984375,-0.21
18:27:45,0.07
18:27:45.015625,0.23
18:27:45.031250,0.23
18:27:45.046875,0.08
18:27:45.062500,-0.18
18:27:45.078125,-0.49
18:27:45.093750,-0.83
18:27:45.109375,-1.15
18:27:45.125000,-1.38
18:27:45.140625,-1.43
18:27:45.156250,-1.20
18:27:45.171875,-0.69
18:27:45.187500,-0.01
18:27:45.203125,0.64
18:27:45.218750,1.05
18:27:45.234375,1.11
18:27:45.250000,0.83
18:27:45.265625,0.36
18:27:45.281250,-0.13
18:27:45.296875,-0.53
18:27:45.312500,-0.80
18:27:45.328125,-0.98
18:27:45.343750,-1.09
18:27:45.359375,-1.11
18:27:45.375000,-0.98
18:27:45.390625,-0.67
18:27:45.406250,-0.24
18:27:45.421875,0.17
18:27:45.437500,0.41
18:27:45.453125,0.37
18:27:45.468750,0.06
18:27:45.484375,-0.39
18:27:45.500000,-0.79
18:27:45.515625,-1.02
18:27:45.531250,-1.01
18:27:45.546875,-0.82
18:27:45.562500,-0.57
18:27:45.578125,-0.39
18:27:45.593750,-0.36
18:27:45.609375,-0.50
18:27:45.625000,-0.75
18:27:45.640625,-1.01
18:27:45.656250,-1.19
18:27:45.671875,-1.22
18:27:45.687500,-1.11
18:27:45.703125,-0.91
18:27:45.718750,-0.70
18:27:45.734375,-0.55
18:27:45.750000,-0.46
18:27:45.765625,-0.42
18:27:45.781250,-0.38
18:27:45.796875,-0.33
18:27:45.812500,-0.28
18:27:45.828125,-0.25
18:27:45.843750,-0.29
18:27:45.859375,-0.40
18:27:45.875000,-0.60
18:27:45.890625,-0.83
18:27:45.906250,-1.03
18:27:45.921875,-1.17
18:27:45.937500,-1.22
18:27:45.953125,-1.18
18:27:45.968750,-1.08
18:27:45.984375,-0.95
18:27:46,-0.80
18:27:46.015625,-0.60
18:27:46.031250,-0.35
18:27:46.046875,-0.07
18:27:46.062500,0.18
18:27:46.078125,0.30
18:27:46.093750,0.23
18:27:46.109375,-0.01
18:27:46.125000,-0.30
18:27:46.140625,-0.51
18:27:46.156250,-0.55
18:27:46.171875,-0.41
18:27:46.187500,-0.20
18:27:46.203125,-0.04
18:27:46.218750,0.01
18:27:46.234375,-0.05
18:27:46.250000,-0.15
18:27:46.265625,-0.21
18:27:46.281250,-0.17
18:27:46.296875,-0.04
18:27:46.312500,0.17
18:27:46.328125,0.41
18:27:46.343750,0.63
18:27:46.359375,0.80
18:27:46.375000,0.87
18:27:46.390625,0.84
18:27:46.406250,0.73
18:27:46.421875,0.56
18:27:46.437500,0.40
18:27:46.453125,0.28
18:27:46.468750,0.23
18:27:46.484375,0.25
18:27:46.500000,0.36
18:27:46.515625,0.57
18:27:46.531250,0.86
18:27:46.546875,1.15
18:27:46.562500,1.36
18:27:46.578125,1.40
18:27:46.593750,1.23
18:27:46.609375,0.91
18:27:46.625000,0.51
18:27:46.640625,0.12
18:27:46.656250,-0.22
18:27:46.671875,-0.49
18:27:46.687500,-0.70
18:27:46.703125,-0.82
18:27:46.718750,-0.84
18:27:46.734375,-0.78
18:27:46.750000,-0.69
18:27:46.765625,-0.65
18:27:46.781250,-0.73
18:27:46.796875,-0.89
18:27:46.812500,-1.05
18:27:46.828125,-1.08
18:27:46.843750,-0.90
18:27:46.859375,-0.55
18:27:46.875000,-0.13
18:27:46.890625,0.22
18:27:46.906250,0.40
18:27:46.921875,0.41
18:27:46.937500,0.33
18:27:46.953125,0.23
18:27:46.968750,0.18
18:27:46.984375,0.15
18:27:47,0.15
18:27:47.015625,0.17
18:27:47.031250,0.25
18:27:47.046875,0.43
18:27:47.062500,0.71
18:27:47.078125,1.02
18:27:47.093750,1.25
18:27:47.109375,1.29
18:27:47.125000,1.13
18:27:47.140625,0.82
18:27:47.156250,0.48
18:27:47.171875,0.18
18:27:47.187500,-0.07
18:27:47.203125,-0.26
18:27:47.218750,-0.39
18:27:47.234375,-0.39
18:27:47.250000,-0.20
18:27:47.265625,0.25
18:27:47.281250,0.86
18:27:47.296875,1.47
18:27:47.312500,1.87
18:27:47.328125,1.94
18:27:47.343750,1.71
18:27:47.359375,1.32
18:27:47.375000,0.93
18:27:47.390625,0.62
18:27:47.406250,0.40
18:27:47.421875,0.25
18:27:47.437500,0.12
18:27:47.453125,0.06
18:27:47.468750,0.09
18:27:47.484375,0.23
18:27:47.500000,0.44
18:27:47.515625,0.59
18:27:47.531250,0.59
18:27:47.546875,0.39
18:27:47.562500,0.05
18:27:47.578125,-0.31
18:27:47.593750,-0.57
18:27:47.609375,-0.69
18:27:47.625000,-0.72
18:27:47.640625,-0.79
18:27:47.656250,-0.99
18:27:47.671875,-1.34
18:27:47.687500,-1.74
18:27:47.703125,-2.03
18:27:47.718750,-2.07
18:27:47.734375,-1.80
18:27:47.750000,-1.31
18:27:47.765625,-0.81
18:27:47.781250,-0.49
18:27:47.796875,-0.46
18:27:47.812500,-0.66
18:27:47.828125,-0.93
18:27:47.843750,-1.06
18:27:47.859375,-0.95
18:27:47.875000,-0.63
18:27:47.890625,-0.22
18:27:47.906250,0.05
18:27:47.921875,0.05
18:27:47.937500,-0.21
18:27:47.953125,-0.60
18:27:47.968750,-0.91
18:27:47.984375,-0.98
18:27:48,-0.77
18:27:48.015625,-0.38
18:27:48.031250,0.01
18:27:48.046875,0.21
18:27:48.062500,0.16
18:27:48.078125,-0.08
18:27:48.093750,-0.32
18:27:48.109375,-0.40
18:27:48.125000,-0.24
18:27:48.140625,0.10
18:27:48.156250,0.46
18:27:48.171875,0.72
18:27:48.187500,0.82
18:27:48.203125,0.82
18:27:48.218750,0.83
18:27:48.234375,0.93
18:27:48.250000,1.15
18:27:48.265625,1.39
18:27:48.281250,1.56
18:27:48.296875,1.58
18:27:48.312500,1.45
18:27:48.328125,1.22
18:27:48.343750,0.95
18:27:48.359375,0.68
18:27:48.375000,0.40
18:27:48.390625,0.14
18:27:48.406250,-0.09
18:27:48.421875,-0.22
18:27:48.437500,-0.20
18:27:48.453125,-0.02
18:27:48.468750,0.23
18:27:48.484375,0.43
18:27:48.500000,0.44
18:27:48.515625,0.21
18:27:48.531250,-0.19
18:27:48.546875,-0.62
18:27:48.562500,-0.92
18:27:48.578125,-1.01
18:27:48.593750,-0.88
18:27:48.609375,-0.62
18:27:48.625000,-0.36
18:27:48.640625,-0.19
18:27:48.656250,-0.18
18:27:48.671875,-0.33
18:27:48.687500,-0.59
18:27:48.703125,-0.86
18:27:48.718750,-1.06
18:27:48.734375,-1.14
18:27:48.750000,-1.08
18:27:48.765625,-0.94
18:27:48.781250,-0.77
18:27:48.796875,-0.61
18:27:48.812500,-0.48
18:27:48.828125,-0.37
18:27:48.843750,-0.24
18:27:48.859375,-0.14
18:27:48.875000,-0.09
18:27:48.890625,-0.14
18:27:48.906250,-0.26
18:27:48.921875,-0.40
18:27:48.937500,-0.46
18:27:48.953125,-0.37
18:27:48.968750,-0.10
18:27:48.984375,0.28
18:27:49,0.68
18:27:49.015625,1.02
18:27:49.031250,1.23
18:27:49.046875,1.31
18:27:49.062500,1.29
18:27:49.078125,1.22
18:27:49.093750,1.14
18:27:49.109375,1.07
18:27:49.125000,1.01
18:27:49.140625,0.94
18:27:49.156250,0.81
18:27:49.171875,0.63
18:27:49.187500,0.46
18:27:49.203125,0.36
18:27:49.218750,0.39
18:27:49.234375,0.51
18:27:49.250000,0.63
18:27:49.265625,0.63
18:27:49.281250,0.45
18:27:49.296875,0.13
18:27:49.312500,-0.22
18:27:49.328125,-0.44
18:27:49.343750,-0.43
18:27:49.359375,-0.17
18:27:49.375000,0.22
18:27:49.390625,0.60
18:27:49.406250,0.83
18:27:49.421875,0.85
18:27:49.437500,0.66
18:27:49.453125,0.31
18:27:49.468750,-0.15
18:27:49.484375,-0.62
18:27:49.500000,-1.05
18:27:49.515625,-1.35
18:27:49.531250,-1.47
18:27:49.546875,-1.38
18:27:49.562500,-1.12
18:27:49.578125,-0.76
18:27:49.593750,-0.43
18:27:49.609375,-0.24
18:27:49.625000,-0.31
18:27:49.640625,-0.64
18:27:49.656250,-1.15
18:27:49.671875,-1.69
18:27:49.687500,-2.03
18:27:49.703125,-2.05
18:27:49.718750,-1.71
18:27:49.734375,-1.13
18:27:49.750000,-0.48
18:27:49.765625,0.09
18:27:49.781250,0.50
18:27:49.796875,0.80
18:27:49.812500,1.06
18:27:49.828125,1.30
18:27:49.843750,1.51
18:27:49.859375,1.62
18:27:49.875000,1.57
18:27:49.890625,1.38
18:27:49.906250,1.12
18:27:49.921875,0.87
18:27:49.937500,0.73
18:27:49.953125,0.72
18:27:49.968750,0.82
18:27:49.984375,0.98
18:27:50,1.13
18:27:50.015625,1.19
18:27:50.031250,1.10
18:27:50.046875,0.83
18:27:50.062500,0.46
18:27:50.078125,0.08
18:27:50.093750,-0.17
18:27:50.109375,-0.24
18:27:50.125000,-0.15
18:27:50.140625,-0.00
18:27:50.156250,0.11
18:27:50.171875,0.14
18:27:50.187500,0.15
18:27:50.203125,0.21
18:27:50.218750,0.33
18:27:50.234375,0.45
18:27:50.250000,0.45
18:27:50.265625,0.27
18:27:50.281250,-0.05
18:27:50.296875,-0.37
18:27:50.312500,-0.56
18:27:50.328125,-0.53
18:27:50.343750,-0.35
18:27:50.359375,-0.17
18:27:50.375000,-0.13
18:27:50.390625,-0.29
18:27:50.406250,-0.60
18:27:50.421875,-0.94
18:27:50.437500,-1.18
18:27:50.453125,-1.25
18:27:50.468750,-1.18
18:27:50.484375,-1.02
18:27:50.500000,-0.82
18:27:50.515625,-0.63
18:27:50.531250,-0.47
18:27:50.546875,-0.37
18:27:50.562500,-0.33
18:27:50.578125,-0.34
18:27:50.593750,-0.37
18:27:50.609375,-0.40
18:27:50.625000,-0.43
18:27:50.640625,-0.52
18:27:50.656250,-0.70
18:27:50.671875,-0.99
18:27:50.687500,-1.32
18:27:50.703125,-1.55
18:27:50.718750,-1.58
18:27:50.734375,-1.36
18:27:50.750000,-0.92
18:27:50.765625,-0.38
18:27:50.781250,0.11
18:27:50.796875,0.50
18:27:50.812500,0.77
18:27:50.828125,0.98
18:27:50.843750,1.16
18:27:50.859375,1.32
18:27:50.875000,1.43
18:27:50.890625,1.47
18:27:50.906250,1.44
18:27:50.921875,1.38
18:27:50.937500,1.31
18:27:50.953125,1.25
18:27:50.968750,1.18
18:27:50.984375,1.11
18:27:51,1.05
18:27:51.015625,1.02
18:27:51.031250,1.01
18:27:51.046875,0.99
18:27:51.062500,0.92
18:27:51.078125,0.76
18:27:51.093750,0.52
18:27:51.109375,0.24
18:27:51.125000,-0.01
18:27:51.140625,-0.18
18:27:51.156250,-0.26
18:27:51.171875,-0.27
18:27:51.187500,-0.24
18:27:51.203125,-0.20
18:27:51.218750,-0.14
18:27:51.234375,-0.04
18:27:51.250000,0.09
18:27:51.265625,0.25
18:27:51.281250,0.39
18:27:51.296875,0.49
18:27:51.312500,0.55
18:27:51.328125,0.56
18:27:51.343750,0.53
18:27:51.359375,0.45
18:27:51.375000,0.32
18:27:51.390625,0.14
18:27:51.406250,-0.06
18:27:51.421875,-0.27
18:27:51.437500,-0.44
18:27:51.453125,-0.54
18:27:51.468750,-0.53
18:27:51.484375,-0.40
18:27:51.500000,-0.14
18:27:51.515625,0.19
18:27:51.531250,0.49
18:27:51.546875,0.65
18:27:51.562500,0.60
18:27:51.578125,0.36
18:27:51.593750,-0.01
18:27:51.609375,-0.39
18:27:51.625000,-0.70
18:27:51.640625,-0.88
18:27:51.656250,-0.95
18:27:51.671875,-0.93
18:27:51.687500,-0.85
18:27:51.703125,-0.71
18:27:51.718750,-0.54
18:27:51.734375,-0.35
18:27:51.750000,-0.17
18:27:51.765625,-0.00
18:27:51.781250,0.13
18:27:51.796875,0.24
18:27:51.812500,0.33
18:27:51.828125,0.44
18:27:51.843750,0.54
18:27:51.859375,0.62
18:27:51.875000,0.66
18:27:51.890625,0.60
18:27:51.906250,0.45
18:27:51.921875,0.24
18:27:51.937500,0.07
18:27:51.953125,0.02
18:27:51.968750,0.12
18:27:51.984375,0.28
18:27:52,0.39
18:27:52.015625,0.32
18:27:52.031250,0.03
18:27:52.046875,-0.38
18:27:52.062500,-0.75
18:27:52.078125,-0.92
18:27:52.093750,-0.81
18:27:52.109375,-0.46
18:27:52.125000,0.01
18:27:52.140625,0.45
18:27:52.156250,0.74
18:27:52.171875,0.82
18:27:52.187500,0.73
18:27:52.203125,0.52
18:27:52.218750,0.24
18:27:52.234375,-0.06
18:27:52.250000,-0.40
18:27:52.265625,-0.76
18:27:52.281250,-1.12
18:27:52.296875,-1.41
18:27:52.312500,-1.54
18:27:52.328125,-1.42
18:27:52.343750,-1.08
18:27:52.359375,-0.63
18:27:52.375000,-0.26
18:27:52.390625,-0.11
18:27:52.406250,-0.26
18:27:52.421875,-0.65
18:27:52.437500,-1.13
18:27:52.453125,-1.58
18:27:52.468750,-1.90
18:27:52.484375,-2.10
18:27:52.500000,-2.20
18:27:52.515625,-2.25
18:27:52.531250,-2.30
18:27:52.546875,-2.35
18:27:52.562500,-2.44
18:27:52.578125,-2.59
18:27:52.593750,-2.81
18:27:52.609375,-3.10
18:27:52.625000,-3.40
18:27:52.640625,-3.60
18:27:52.656250,-3.57
18:27:52.671875,-3.22
18:27:52.687500,-2.57
18:27:52.703125,-1.77
18:27:52.718750,-1.05
18:27:52.734375,-0.61
18:27:52.750000,-0.56
18:27:52.765625,-0.82
18:27:52.781250,-1.22
18:27:52.796875,-1.53
18:27:52.812500,-1.61
18:27:52.828125,-1.43
18:27:52.843750,-1.06
18:27:52.859375,-0.60
18:27:52.875000,-0.13
18:27:52.890625,0.35
18:27:52.906250,0.85
18:27:52.921875,1.39
18:27:52.937500,1.94
18:27:52.953125,2.44
18:27:52.968750,2.88
18:27:52.984375,3.24
18:27:53,3.58
18:27:53.015625,3.93
18:27:53.031250,4.30
18:27:53.046875,4.68
18:27:53.062500,5.03
18:27:53.078125,5.27
18:27:53.093750,5.33
18:27:53.109375,5.16
18:27:53.125000,4.76
18:27:53.140625,4.13
18:27:53.156250,3.40
18:27:53.171875,2.67
18:27:53.187500,2.08
18:27:53.203125,1.71
18:27:53.218750,1.56
18:27:53.234375,1.58
18:27:53.250000,1.66
18:27:53.265625,1.69
18:27:53.281250,1.64
18:27:53.296875,1.50
18:27:53.312500,1.33
18:27:53.328125,1.18
18:27:53.343750,1.07
18:27:53.359375,0.99
18:27:53.375000,0.87
18:27:53.390625,0.66
18:27:53.406250,0.35
18:27:53.421875,-0.02
18:27:53.437500,-0.36
18:27:53.453125,-0.59
18:27:53.468750,-0.64
18:27:53.484375,-0.51
18:27:53.500000,-0.24
18:27:53.515625,0.11
18:27:53.531250,0.49
18:27:53.546875,0.89
18:27:53.562500,1.29
18:27:53.578125,1.66
18:27:53.593750,1.95
18:27:53.609375,2.07
18:27:53.625000,1.94
18:27:53.640625,1.54
18:27:53.656250,0.93
18:27:53.671875,0.21
18:27:53.687500,-0.44
18:27:53.703125,-0.90
18:27:53.718750,-1.09
18:27:53.734375,-1.03
18:27:53.750000,-0.81
18:27:53.765625,-0.54
18:27:53.781250,-0.31
18:27:53.796875,-0.20
18:27:53.812500,-0.22
18:27:53.828125,-0.35
18:27:53.843750,-0.57
18:27:53.859375,-0.78
18:27:53.875000,-0.89
18:27:53.890625,-0.84
18:27:53.906250,-0.61
18:27:53.921875,-0.30
18:27:53.937500,-0.02
18:27:53.953125,0.12
18:27:53.968750,0.07
18:27:53.984375,-0.11
18:27:54,-0.33
18:27:54.015625,-0.51
18:27:54.031250,-0.63
18:27:54.046875,-0.72
18:27:54.062500,-0.83
18:27:54.078125,-0.99
18:27:54.093750,-1.17
18:27:54.109375,-1.33
18:27:54.125000,-1.43
18:27:54.140625,-1.46
18:27:54.156250,-1.44
18:27:54.171875,-1.41
18:27:54.187500,-1.36
18:27:54.203125,-1.26
18:27:54.218750,-1.08
18:27:54.234375,-0.81
18:27:54.250000,-0.48
18:27:54.265625,-0.16
18:27:54.281250,0.08
18:27:54.296875,0.23
18:27:54.312500,0.32
18:27:54.328125,0.40
18:27:54.343750,0.50
18:27:54.359375,0.62
18:27:54.375000,0.70
18:27:54.390625,0.69
18:27:54.406250,0.59
18:27:54.421875,0.43
18:27:54.437500,0.28
18:27:54.453125,0.16
18:27:54.468750,0.09
18:27:54.484375,0.06
18:27:54.500000,0.03
18:27:54.515625,0.01
18:27:54.531250,0.02
18:27:54.546875,0.04
18:27:54.562500,0.06
18:27:54.578125,0.06
18:27:54.593750,0.02
18:27:54.609375,-0.04
18:27:54.625000,-0.10
18:27:54.640625,-0.16
18:27:54.656250,-0.25
18:27:54.671875,-0.39
18:27:54.687500,-0.58
18:27:54.703125,-0.77
18:27:54.718750,-0.85
18:27:54.734375,-0.76
18:27:54.750000,-0.49
18:27:54.765625,-0.15
18:27:54.781250,0.11
18:27:54.796875,0.16
18:27:54.812500,-0.03
18:27:54.828125,-0.38
18:27:54.843750,-0.74
18:27:54.859375,-0.98
18:27:54.875000,-1.07
18:27:54.890625,-1.09
18:27:54.906250,-1.14
18:27:54.921875,-1.27
18:27:54.937500,-1.45
18:27:54.953125,-1.59
18:27:54.968750,-1.60
18:27:54.984375,-1.48
18:27:55,-1.31
18:27:55.015625,-1.22
18:27:55.031250,-1.28
18:27:55.046875,-1.49
18:27:55.062500,-1.77
18:27:55.078125,-1.98
18:27:55.093750,-2.03
18:27:55.109375,-1.84
18:27:55.125000,-1.42
18:27:55.140625,-0.79
18:27:55.156250,-0.05
18:27:55.171875,0.69
18:27:55.187500,1.32
18:27:55.203125,1.74
18:27:55.218750,1.92
18:27:55.234375,1.89
18:27:55.250000,1.78
18:27:55.265625,1.69
18:27:55.281250,1.70
18:27:55.296875,1.80
18:27:55.312500,1.95
18:27:55.328125,2.04
18:27:55.343750,2.00
18:27:55.359375,1.85
18:27:55.375000,1.61
18:27:55.390625,1.38
18:27:55.406250,1.22
18:27:55.421875,1.13
18:27:55.437500,1.10
18:27:55.453125,1.06
18:27:55.468750,0.99
18:27:55.484375,0.86
18:27:55.500000,0.67
18:27:55.515625,0.43
18:27:55.531250,0.15
18:27:55.546875,-0.14
18:27:55.562500,-0.42
18:27:55.578125,-0.66
18:27:55.593750,-0.82
18:27:55.609375,-0.83
18:27:55.625000,-0.72
18:27:55.640625,-0.50
18:27:55.656250,-0.23
18:27:55.671875,-0.00
18:27:55.687500,0.14
18:27:55.703125,0.21
18:27:55.718750,0.22
18:27:55.734375,0.21
18:27:55.750000,0.24
18:27:55.765625,0.30
18:27:55.781250,0.37
18:27:55.796875,0.39
18:27:55.812500,0.33
18:27:55.828125,0.15
18:27:55.843750,-0.12
18:27:55.859375,-0.39
18:27:55.875000,-0.58
18:27:55.890625,-0.62
18:27:55.906250,-0.49
18:27:55.921875,-0.23
18:27:55.937500,0.06
18:27:55.953125,0.29
18:27:55.968750,0.40
18:27:55.984375,0.43
18:27:56,0.40
18:27:56.015625,0.36
18:27:56.031250,0.37
18:27:56.046875,0.41
18:27:56.062500,0.47
18:27:56.078125,0.52
18:27:56.093750,0.52
18:27:56.109375,0.48
18:27:56.125000,0.41
18:27:56.140625,0.33
18:27:56.156250,0.28
18:27:56.171875,0.28
18:27:56.187500,0.35
18:27:56.203125,0.49
18:27:56.218750,0.66
18:27:56.234375,0.80
18:27:56.250000,0.87
18:27:56.265625,0.82
18:27:56.281250,0.65
18:27:56.296875,0.36
18:27:56.312500,-0.01
18:27:56.328125,-0.40
18:27:56.343750,-0.74
18:27:56.359375,-0.95
18:27:56.375000,-0.96
18:27:56.390625,-0.78
18:27:56.406250,-0.48
18:27:56.421875,-0.17
18:27:56.437500,0.02
18:27:56.453125,0.00
18:27:56.468750,-0.25
18:27:56.484375,-0.68
18:27:56.500000,-1.15
18:27:56.515625,-1.54
18:27:56.531250,-1.72
18:27:56.546875,-1.63
18:27:56.562500,-1.30
18:27:56.578125,-0.81
18:27:56.593750,-0.32
18:27:56.609375,0.07
18:27:56.625000,0.30
18:27:56.640625,0.37
18:27:56.656250,0.31
18:27:56.671875,0.19
18:27:56.687500,0.05
18:27:56.703125,-0.06
18:27:56.718750,-0.09
18:27:56.734375,-0.02
18:27:56.750000,0.13
18:27:56.765625,0.29
18:27:56.781250,0.36
18:27:56.796875,0.30
18:27:56.812500,0.11
18:27:56.828125,-0.14
18:27:56.843750,-0.34
18:27:56.859375,-0.40
18:27:56.875000,-0.32
18:27:56.890625,-0.15
18:27:56.906250,0.05
18:27:56.921875,0.27
18:27:56.937500,0.49
18:27:56.953125,0.75
18:27:56.968750,0.99
18:27:56.984375,1.16
18:27:57,1.18
18:27:57.015625,0.99
18:27:57.031250,0.61
18:27:57.046875,0.09
18:27:57.062500,-0.48
18:27:57.078125,-1.01
18:27:57.093750,-1.40
18:27:57.109375,-1.59
18:27:57.125000,-1.54
18:27:57.140625,-1.29
18:27:57.156250,-0.93
18:27:57.171875,-0.59
18:27:57.187500,-0.39
18:27:57.203125,-0.33
18:27:57.218750,-0.40
18:27:57.234375,-0.51
18:27:57.250000,-0.62
18:27:57.265625,-0.72
18:27:57.281250,-0.81
18:27:57.296875,-0.90
18:27:57.312500,-0.95
18:27:57.328125,-0.93
18:27:57.343750,-0.88
18:27:57.359375,-0.88
18:27:57.375000,-0.98
18:27:57.390625,-1.19
18:27:57.406250,-1.44
18:27:57.421875,-1.58
18:27:57.437500,-1.49
18:27:57.453125,-1.15
18:27:57.468750,-0.62
18:27:57.484375,-0.04
18:27:57.500000,0.45
18:27:57.515625,0.74
18:27:57.531250,0.80
18:27:57.546875,0.65
18:27:57.562500,0.40
18:27:57.578125,0.18
18:27:57.593750,0.11
18:27:57.609375,0.25
18:27:57.625000,0.57
18:27:57.640625,0.95
18:27:57.656250,1.25
18:27:57.671875,1.37
18:27:57.687500,1.29
18:27:57.703125,1.07
18:27:57.718750,0.76
18:27:57.734375,0.43
18:27:57.750000,0.13
18:27:57.765625,-0.10
18:27:57.781250,-0.19
18:27:57.796875,-0.10
18:27:57.812500,0.15
18:27:57.828125,0.46
18:27:57.843750,0.71
18:27:57.859375,0.76
18:27:57.875000,0.57
18:27:57.890625,0.20
18:27:57.906250,-0.24
18:27:57.921875,-0.63
18:27:57.937500,-0.88
18:27:57.953125,-0.92
18:27:57.968750,-0.76
18:27:57.984375,-0.44
18:27:58,-0.04
18:27:58.015625,0.33
18:27:58.031250,0.56
18:27:58.046875,0.60
18:27:58.062500,0.49
18:27:58.078125,0.32
18:27:58.093750,0.22
18:27:58.109375,0.23
18:27:58.125000,0.32
18:27:58.140625,0.41
18:27:58.156250,0.43
18:27:58.171875,0.33
18:27:58.187500,0.13
18:27:58.203125,-0.11
18:27:58.218750,-0.37
18:27:58.234375,-0.65
18:27:58.250000,-0.95
18:27:58.265625,-1.28
18:27:58.281250,-1.60
18:27:58.296875,-1.85
18:27:58.312500,-1.93
18:27:58.328125,-1.78
18:27:58.343750,-1.36
18:27:58.359375,-0.72
18:27:58.375000,0.05
18:27:58.390625,0.81
18:27:58.406250,1.42
18:27:58.421875,1.72
18:27:58.437500,1.65
18:27:58.453125,1.22
18:27:58.468750,0.58
18:27:58.484375,-0.05
18:27:58.500000,-0.48
18:27:58.515625,-0.59
18:27:58.531250,-0.42
18:27:58.546875,-0.13
18:27:58.562500,0.13
18:27:58.578125,0.24
18:27:58.593750,0.17
18:27:58.609375,-0.02
18:27:58.625000,-0.26
18:27:58.640625,-0.49
18:27:58.656250,-0.72
18:27:58.671875,-0.92
18:27:58.687500,-1.06
18:27:58.703125,-1.08
18:27:58.718750,-0.92
18:27:58.734375,-0.61
18:27:58.750000,-0.20
18:27:58.765625,0.19
18:27:58.781250,0.49
18:27:58.796875,0.68
18:27:58.812500,0.76
18:27:58.828125,0.74
18:27:58.843750,0.63
18:27:58.859375,0.44
18:27:58.875000,0.22
18:27:58.890625,0.03
18:27:58.906250,-0.07
18:27:58.921875,-0.08
18:27:58.937500,-0.05
18:27:58.953125,-0.05
18:27:58.968750,-0.10
18:27:58.984375,-0.18
18:27:59,-0.21
18:27:59.015625,-0.14
18:27:59.031250,0.04
18:27:59.046875,0.27
18:27:59.062500,0.45
18:27:59.078125,0.55
18:27:59.093750,0.54
18:27:59.109375,0.49
18:27:59.125000,0.38
18:27:59.140625,0.22
18:27:59.156250,-0.02
18:27:59.171875,-0.35
18:27:59.187500,-0.71
18:27:59.203125,-1.00
18:27:59.218750,-1.15
18:27:59.234375,-1.13
18:27:59.250000,-1.00
18:27:59.265625,-0.88
18:27:59.281250,-0.84
18:27:59.296875,-0.85
18:27:59.312500,-0.83
18:27:59.328125,-0.69
18:27:59.343750,-0.38
18:27:59.359375,0.06
18:27:59.375000,0.47
18:27:59.390625,0.73
18:27:59.406250,0.79
18:27:59.421875,0.69
18:27:59.437500,0.51
18:27:59.453125,0.33
18:27:59.468750,0.20
18:27:59.484375,0.07
18:27:59.500000,-0.06
18:27:59.515625,-0.21
18:27:59.531250,-0.32
18:27:59.546875,-0.28
18:27:59.562500,-0.05
18:27:59.578125,0.35
18:27:59.593750,0.80
18:27:59.609375,1.16
18:27:59.625000,1.32
18:27:59.640625,1.25
18:27:59.656250,0.99
18:27:59.671875,0.62
18:27:59.687500,0.26
18:27:59.703125,0.04
18:27:59.718750,0.05
18:27:59.734375,0.30
18:27:59.750000,0.68
18:27:59.765625,1.02
18:27:59.781250,1.10
18:27:59.796875,0.84
18:27:59.812500,0.26
18:27:59.828125,-0.41
18:27:59.843750,-0.94
18:27:59.859375,-1.13
18:27:59.875000,-0.96
18:27:59.890625,-0.58
18:27:59.906250,-0.20
18:27:59.921875,0.01
18:27:59.937500,0.01
18:27:59.953125,-0.13
18:27:59.968750,-0.28
18:27:59.984375,-0.32
18:28:00,-0.21
18:28:00.015625,0.01
18:28:00.031250,0.27
18:28:00.046875,0.50
18:28:00.062500,0.68
18:28:00.078125,0.80
18:28:00.093750,0.89
18:28:00.109375,0.94
18:28:00.125000,0.95
18:28:00.140625,0.86
18:28:00.156250,0.64
18:28:00.171875,0.27
18:28:00.187500,-0.22
18:28:00.203125,-0.74
18:28:00.218750,-1.17
18:28:00.234375,-1.43
18:28:00.250000,-1.51
18:28:00.265625,-1.43
18:28:00.281250,-1.29
18:28:00.296875,-1.19
18:28:00.312500,-1.17
18:28:00.328125,-1.18
18:28:00.343750,-1.16
18:28:00.359375,-1.04
18:28:00.375000,-0.81
18:28:00.390625,-0.53
18:28:00.406250,-0.29
18:28:00.421875,-0.17
18:28:00.437500,-0.15
18:28:00.453125,-0.18
18:28:00.468750,-0.19
18:28:00.484375,-0.12
18:28:00.500000,0.02
18:28:00.515625,0.21
18:28:00.531250,0.41
18:28:00.546875,0.57
18:28:00.562500,0.62
18:28:00.578125,0.52
18:28:00.593750,0.27
18:28:00.609375,-0.07
18:28:00.625000,-0.38
18:28:00.640625,-0.55
18:28:00.656250,-0.52
18:28:00.671875,-0.32
18:28:00.687500,-0.01
18:28:00.703125,0.31
18:28:00.718750,0.61
18:28:00.734375,0.87
18:28:00.750000,1.07
18:28:00.765625,1.18
18:28:00.781250,1.13
18:28:00.796875,0.92
18:28:00.812500,0.58
18:28:00.828125,0.19
18:28:00.843750,-0.16
18:28:00.859375,-0.42
18:28:00.875000,-0.57
18:28:00.890625,-0.68
18:28:00.906250,-0.77
18:28:00.921875,-0.88
18:28:00.937500,-1.01
18:28:00.953125,-1.17
18:28:00.968750,-1.36
18:28:00.984375,-1.60
18:28:01,-1.87
18:28:01.015625,-2.14
18:28:01.031250,-2.32
18:28:01.046875,-2.35
18:28:01.062500,-2.26
18:28:01.078125,-2.11
18:28:01.093750,-2.02
18:28:01.109375,-2.08
18:28:01.125000,-2.29
18:28:01.140625,-2.57
18:28:01.156250,-2.78
18:28:01.171875,-2.88
18:28:01.187500,-2.88
18:28:01.203125,-2.86
18:28:01.218750,-2.89
18:28:01.234375,-2.97
18:28:01.250000,-3.01
18:28:01.265625,-2.89
18:28:01.281250,-2.53
18:28:01.296875,-1.96
18:28:01.312500,-1.28
18:28:01.328125,-0.59
18:28:01.343750,0.03
18:28:01.359375,0.58
18:28:01.375000,1.06
18:28:01.390625,1.45
18:28:01.406250,1.71
18:28:01.421875,1.81
18:28:01.437500,1.76
18:28:01.453125,1.60
18:28:01.468750,1.43
18:28:01.484375,1.30
18:28:01.500000,1.23
18:28:01.515625,1.20
18:28:01.531250,1.14
18:28:01.546875,1.03
18:28:01.562500,0.84
18:28:01.578125,0.62
18:28:01.593750,0.46
18:28:01.609375,0.42
18:28:01.625000,0.54
18:28:01.640625,0.80
18:28:01.656250,1.11
18:28:01.671875,1.40
18:28:01.687500,1.64
18:28:01.703125,1.80
18:28:01.718750,1.89
18:28:01.734375,1.90
18:28:01.750000,1.80
18:28:01.765625,1.58
18:28:01.781250,1.30
18:28:01.796875,1.09
18:28:01.812500,1.07
18:28:01.828125,1.28
18:28:01.843750,1.61
18:28:01.859375,1.91
18:28:01.875000,1.98
18:28:01.890625,1.80
18:28:01.906250,1.46
18:28:01.921875,1.14
18:28:01.937500,0.99
18:28:01.953125,1.03
18:28:01.968750,1.16
18:28:01.984375,1.29
18:28:02,1.33
18:28:02.015625,1.33
18:28:02.031250,1.33
18:28:02.046875,1.38
18:28:02.062500,1.46
18:28:02.078125,1.48
18:28:02.093750,1.37
18:28:02.109375,1.12
18:28:02.125000,0.78
18:28:02.140625,0.45
18:28:02.156250,0.24
18:28:02.171875,0.22
18:28:02.187500,0.40
18:28:02.203125,0.72
18:28:02.218750,1.13
18:28:02.234375,1.59
18:28:02.250000,2.08
18:28:02.265625,2.63
18:28:02.281250,3.23
18:28:02.296875,3.84
18:28:02.312500,4.37
18:28:02.328125,4.71
18:28:02.343750,4.76
18:28:02.359375,4.53
18:28:02.375000,4.09
18:28:02.390625,3.55
18:28:02.406250,3.03
18:28:02.421875,2.63
18:28:02.437500,2.36
18:28:02.453125,2.23
18:28:02.468750,2.29
18:28:02.484375,2.57
18:28:02.500000,3.12
18:28:02.515625,3.91
18:28:02.531250,4.80
18:28:02.546875,5.57
18:28:02.562500,6.01
18:28:02.578125,5.95
18:28:02.593750,5.37
18:28:02.609375,4.36
18:28:02.625000,3.04
18:28:02.640625,1.56
18:28:02.656250,0.05
18:28:02.671875,-1.40
18:28:02.687500,-2.68
18:28:02.703125,-3.74
18:28:02.718750,-4.53
18:28:02.734375,-5.13
18:28:02.750000,-5.64
18:28:02.765625,-6.19
18:28:02.781250,-6.78
18:28:02.796875,-7.31
18:28:02.812500,-7.64
18:28:02.828125,-7.63
18:28:02.843750,-7.26
18:28:02.859375,-6.61
18:28:02.875000,-5.81
18:28:02.890625,-5.01
18:28:02.906250,-4.27
18:28:02.921875,-3.61
18:28:02.937500,-3.06
18:28:02.953125,-2.64
18:28:02.968750,-2.43
18:28:02.984375,-2.50
18:28:03,-2.88
18:28:03.015625,-3.50
18:28:03.031250,-4.15
18:28:03.046875,-4.61
18:28:03.062500,-4.63
18:28:03.078125,-4.12
18:28:03.093750,-3.14
18:28:03.109375,-1.91
18:28:03.125000,-0.74
18:28:03.140625,0.12
18:28:03.156250,0.59
18:28:03.171875,0.74
18:28:03.187500,0.75
18:28:03.203125,0.80
18:28:03.218750,1.00
18:28:03.234375,1.32
18:28:03.250000,1.68
18:28:03.265625,2.00
18:28:03.281250,2.17
18:28:03.296875,2.20
18:28:03.312500,2.15
18:28:03.328125,2.10
18:28:03.343750,2.17
18:28:03.359375,2.40
18:28:03.375000,2.74
18:28:03.390625,3.06
18:28:03.406250,3.19
18:28:03.421875,3.04
18:28:03.437500,2.63
18:28:03.453125,2.08
18:28:03.468750,1.57
18:28:03.484375,1.19
18:28:03.500000,0.96
18:28:03.515625,0.82
18:28:03.531250,0.66
18:28:03.546875,0.46
18:28:03.562500,0.22
18:28:03.578125,-0.01
18:28:03.593750,-0.18
18:28:03.609375,-0.27
18:28:03.625000,-0.28
18:28:03.640625,-0.22
18:28:03.656250,-0.11
18:28:03.671875,0.03
18:28:03.687500,0.14
18:28:03.703125,0.17
18:28:03.718750,0.11
18:28:03.734375,-0.04
18:28:03.750000,-0.24
18:28:03.765625,-0.45
18:28:03.781250,-0.68
18:28:03.796875,-0.93
18:28:03.812500,-1.18
18:28:03.828125,-1.39
18:28:03.843750,-1.47
18:28:03.859375,-1.41
18:28:03.875000,-1.24
18:28:03.890625,-1.06
18:28:03.906250,-0.96
18:28:03.921875,-1.01
18:28:03.937500,-1.18
18:28:03.953125,-1.36
18:28:03.968750,-1.47
18:28:03.984375,-1.42
18:28:04,-1.19
18:28:04.015625,-0.79
18:28:04.031250,-0.27
18:28:04.046875,0.30
18:28:04.062500,0.84
18:28:04.078125,1.28
18:28:04.093750,1.56
18:28:04.109375,1.68
18:28:04.125000,1.65
18:28:04.140625,1.53
18:28:04.156250,1.38
18:28:04.171875,1.23
18:28:04.187500,1.12
18:28:04.203125,1.07
18:28:04.218750,1.09
18:28:04.234375,1.16
18:28:04.250000,1.21
18:28:04.265625,1.20
18:28:04.281250,1.10
18:28:04.296875,0.93
18:28:04.312500,0.79
18:28:04.328125,0.73
18:28:04.343750,0.78
18:28:04.359375,0.91
18:28:04.375000,1.05
18:28:04.390625,1.09
18:28:04.406250,1.01
18:28:04.421875,0.80
18:28:04.437500,0.50
18:28:04.453125,0.14
18:28:04.468750,-0.25
18:28:04.484375,-0.66
18:28:04.500000,-1.08
18:28:04.515625,-1.47
18:28:04.531250,-1.81
18:28:04.546875,-2.04
18:28:04.562500,-2.13
18:28:04.578125,-2.08
18:28:04.593750,-1.88
18:28:04.609375,-1.61
18:28:04.625000,-1.33
18:28:04.640625,-1.13
18:28:04.656250,-1.05
18:28:04.671875,-1.06
18:28:04.687500,-1.07
18:28:04.703125,-0.98
18:28:04.718750,-0.77
18:28:04.734375,-0.52
18:28:04.750000,-0.36
18:28:04.765625,-0.39
18:28:04.781250,-0.60
18:28:04.796875,-0.88
18:28:04.812500,-1.10
18:28:04.828125,-1.18
18:28:04.843750,-1.17
18:28:04.859375,-1.13
18:28:04.875000,-1.06
18:28:04.890625,-0.90
18:28:04.906250,-0.53
18:28:04.921875,0.08
18:28:04.937500,0.82
18:28:04.953125,1.44
18:28:04.968750,1.71
18:28:04.984375,1.53
18:28:05,1.00
18:28:05.015625,0.39
18:28:05.031250,-0.02
18:28:05.046875,-0.10
18:28:05.062500,0.13
18:28:05.078125,0.49
18:28:05.093750,0.78
18:28:05.109375,0.90
18:28:05.125000,0.84
18:28:05.140625,0.71
18:28:05.156250,0.59
18:28:05.171875,0.56
18:28:05.187500,0.63
18:28:05.203125,0.75
18:28:05.218750,0.88
18:28:05.234375,0.96
18:28:05.250000,0.97
18:28:05.265625,0.91
18:28:05.281250,0.80
18:28:05.296875,0.65
18:28:05.312500,0.49
18:28:05.328125,0.34
18:28:05.343750,0.22
18:28:05.359375,0.14
18:28:05.375000,0.11
