16:15:40,-0.00
16:15:40.015625,-0.00
16:15:40.031250,-0.00
16:15:40.046875,-0.00
16:15:40.062500,-0.00
16:15:40.078125,-0.00
16:15:40.093750,-0.00
16:15:40.109375,-0.00
16:15:40.125000,-0.00
16:15:40.140625,-0.01
16:15:40.156250,-0.00
16:15:40.171875,0.00
16:15:40.187500,0.01
16:15:40.203125,0.01
16:15:40.218750,-0.00
16:15:40.234375,-0.03
16:15:40.250000,-0.05
16:15:40.265625,-0.05
16:15:40.281250,-0.00
16:15:40.296875,0.13
16:15:40.312500,0.36
16:15:40.328125,0.66
16:15:40.343750,1.01
16:15:40.359375,1.37
16:15:40.375000,1.72
16:15:40.390625,2.06
16:15:40.406250,2.40
16:15:40.421875,2.77
16:15:40.437500,3.24
16:15:40.453125,3.80
16:15:40.468750,4.42
16:15:40.484375,5.06
16:15:40.500000,5.66
16:15:40.515625,6.20
16:15:40.531250,6.68
16:15:40.546875,7.15
16:15:40.562500,7.64
16:15:40.578125,8.31
16:15:40.593750,9.14
16:15:40.609375,10.09
16:15:40.625000,11.04
16:15:40.640625,11.88
16:15:40.656250,12.56
16:15:40.671875,13.14
16:15:40.687500,13.76
16:15:40.703125,14.58
16:15:40.718750,15.96
16:15:40.734375,17.91
16:15:40.750000,20.32
16:15:40.765625,22.90
16:15:40.781250,25.38
16:15:40.796875,27.58
16:15:40.812500,29.57
16:15:40.828125,31.68
16:15:40.843750,34.20
16:15:40.859375,37.81
16:15:40.875000,42.54
16:15:40.890625,48.15
16:15:40.906250,54.10
16:15:40.921875,59.83
16:15:40.937500,64.97
16:15:40.953125,69.58
16:15:40.968750,74.14
16:15:40.984375,79.19
16:15:41,85.71
16:15:41.015625,93.76
16:15:41.031250,103.00
16:15:41.046875,112.62
16:15:41.062500,121.73
16:15:41.078125,129.77
16:15:41.093750,136.75
16:15:41.109375,144.29
16:15:41.125000,150.58
16:15:41.140625,157.77
16:15:41.156250,166.64
16:15:41.171875,177.95
16:15:41.187500,191.79
16:15:41.203125,206.97
16:15:41.218750,220.57
16:15:41.234375,228.25
16:15:41.250000,225.36
16:15:41.265625,208.37
16:15:41.281250,176.87
16:15:41.296875,132.76
16:15:41.312500,80.05
16:15:41.328125,23.07
16:15:41.343750,-34.94
16:15:41.359375,-92.44
16:15:41.375000,-149.16
16:15:41.390625,-205.23
16:15:41.406250,-260.49
16:15:41.421875,-313.74
16:15:41.437500,-363.87
16:15:41.453125,-409.83
16:15:41.468750,-450.91
16:15:41.484375,-486.50
16:15:41.500000,-515.74
16:15:41.515625,-537.23
16:15:41.531250,-549.22
16:15:41.546875,-550.04
16:15:41.562500,-538.37
16:15:41.578125,-514.20
16:15:41.593750,-478.67
16:15:41.609375,-433.88
16:15:41.625000,-382.45
16:15:41.640625,-327.02
16:15:41.656250,-269.84
16:15:41.671875,-212.63
16:15:41.687500,-156.70
16:15:41.703125,-102.95
16:15:41.718750,-52.37
16:15:41.734375,-5.90
16:15:41.750000,35.58
16:15:41.765625,71.43
16:15:41.781250,101.35
16:15:41.796875,125.50
16:15:41.812500,144.38
16:15:41.828125,158.68
16:15:41.843750,169.15
16:15:41.859375,176.37
16:15:41.875000,180.75
16:15:41.890625,182.57
16:15:41.906250,182.07
16:15:41.921875,179.51
16:15:41.937500,175.23
16:15:41.953125,169.65
16:15:41.968750,163.18
16:15:41.984375,156.15
16:15:42,148.81
16:15:42.015625,141.30
16:15:42.031250,133.69
16:15:42.046875,126.02
16:15:42.062500,118.33
16:15:42.078125,110.69
16:15:42.093750,103.16
16:15:42.109375,95.80
16:15:42.125000,88.68
16:15:42.140625,81.83
16:15:42.156250,75.25
16:15:42.171875,68.95
16:15:42.187500,62.95
16:15:42.203125,57.25
16:15:42.218750,51.86
16:15:42.234375,46.78
16:15:42.250000,42.03
16:15:42.265625,37.59
16:15:42.281250,33.45
16:15:42.296875,29.61
16:15:42.312500,26.07
16:15:42.328125,22.81
16:15:42.343750,19.83
16:15:42.359375,17.12
16:15:42.375000,14.67
16:15:42.390625,12.48
16:15:42.406250,10.53
16:15:42.421875,8.83
16:15:42.437500,7.35
16:15:42.453125,6.08
16:15:42.468750,5.01
16:15:42.484375,4.09
16:15:42.500000,3.29
16:15:42.515625,2.59
16:15:42.531250,1.96
16:15:42.546875,1.42
16:15:42.562500,0.98
16:15:42.578125,0.65
16:15:42.593750,0.43
16:15:42.609375,0.29
16:15:42.625000,0.19
16:15:42.640625,0.08
16:15:42.656250,-0.08
16:15:42.671875,-0.26
16:15:42.687500,-0.45
16:15:42.703125,-0.59
16:15:42.718750,-0.66
16:15:42.734375,-0.64
16:15:42.750000,-0.57
16:15:42.765625,-0.51
16:15:42.781250,-0.52
16:15:42.796875,-0.64
16:15:42.812500,-0.86
16:15:42.828125,-1.12
16:15:42.843750,-1.32
16:15:42.859375,-1.37
16:15:42.875000,-1.26
16:15:42.890625,-1.06
16:15:42.906250,-0.91
16:15:42.921875,-0.99
16:15:42.937500,-1.37
16:15:42.953125,-2.03
16:15:42.968750,-2.79
16:15:42.984375,-3.39
16:15:43,-3.60
16:15:43.015625,-3.39
16:15:43.031250,-2.91
16:15:43.046875,-2.52
16:15:43.062500,-2.58
16:15:43.078125,-3.33
16:15:43.093750,-4.66
16:15:43.109375,-6.21
16:15:43.125000,-7.47
16:15:43.140625,-8.00
16:15:43.156250,-7.71
16:15:43.171875,-6.90
16:15:43.187500,-6.21
16:15:43.203125,-6.26
16:15:43.218750,-7.38
16:15:43.234375,-9.43
16:15:43.250000,-11.78
16:15:43.265625,-13.64
16:15:43.281250,-14.45
16:15:43.296875,-14.12
16:15:43.312500,-13.07
16:15:43.328125,-12.05
16:15:43.343750,-11.71
16:15:43.359375,-12.37
16:15:43.375000,-14.05
16:15:43.390625,-16.69
16:15:43.406250,-20.14
16:15:43.421875,-23.89
16:15:43.437500,-26.69
16:15:43.453125,-26.61
16:15:43.468750,-21.66
16:15:43.484375,-11.01
16:15:43.500000,4.08
16:15:43.515625,20.34
16:15:43.531250,33.73
16:15:43.546875,41.35
16:15:43.562500,42.82
16:15:43.578125,40.42
16:15:43.593750,37.61
16:15:43.609375,37.06
16:15:43.625000,39.41
16:15:43.640625,43.30
16:15:43.656250,46.58
16:15:43.671875,47.86
16:15:43.687500,47.10
16:15:43.703125,45.24
16:15:43.718750,43.15
16:15:43.734375,40.72
16:15:43.750000,37.12
16:15:43.765625,31.11
16:15:43.781250,22.43
16:15:43.796875,12.15
16:15:43.812500,2.39
16:15:43.828125,-4.71
16:15:43.843750,-7.94
16:15:43.859375,-7.58
16:15:43.875000,-5.07
16:15:43.890625,-2.28
16:15:43.906250,-0.60
16:15:43.921875,-0.52
16:15:43.937500,-1.73
16:15:43.953125,-3.74
16:15:43.968750,-6.37
16:15:43.984375,-9.98
16:15:44,-15.07
16:15:44.015625,-21.71
16:15:44.031250,-29.14
16:15:44.046875,-35.74
16:15:44.062500,-39.66
16:15:44.078125,-39.54
16:15:44.093750,-35.13
16:15:44.109375,-27.49
16:15:44.125000,-18.45
16:15:44.140625,-10.04
16:15:44.156250,-3.81
16:15:44.171875,-0.38
16:15:44.187500,0.59
16:15:44.203125,0.15
16:15:44.218750,-0.31
16:15:44.234375,0.55
16:15:44.250000,3.47
16:15:44.265625,8.41
16:15:44.281250,14.52
16:15:44.296875,20.51
16:15:44.312500,25.18
16:15:44.328125,27.92
16:15:44.343750,28.76
16:15:44.359375,28.46
16:15:44.375000,28.02
16:15:44.390625,28.21
16:15:44.406250,29.20
16:15:44.421875,30.48
16:15:44.437500,31.08
16:15:44.453125,29.97
16:15:44.468750,26.53
16:15:44.484375,20.70
16:15:44.500000,13.32
16:15:44.515625,6.14
16:15:44.531250,1.31
16:15:44.546875,0.79
16:15:44.562500,5.49
16:15:44.578125,14.76
16:15:44.593750,26.30
16:15:44.609375,36.74
16:15:44.625000,42.41
16:15:44.640625,40.89
16:15:44.656250,31.80
16:15:44.671875,16.68
16:15:44.687500,-1.75
16:15:44.703125,-20.94
16:15:44.718750,-39.44
16:15:44.734375,-57.35
16:15:44.750000,-73.84
16:15:44.765625,-88.56
16:15:44.781250,-100.86
16:15:44.796875,-109.61
16:15:44.812500,-113.62
16:15:44.828125,-112.38
16:15:44.843750,-106.52
16:15:44.859375,-97.67
16:15:44.875000,-87.80
16:15:44.890625,-78.48
16:15:44.906250,-70.77
16:15:44.921875,-65.03
16:15:44.937500,-61.41
16:15:44.953125,-60.16
16:15:44.968750,-61.54
16:15:44.984375,-65.30
16:15:45,-70.15
16:15:45.015625,-73.68
16:15:45.031250,-72.96
16:15:45.046875,-65.90
16:15:45.062500,-51.99
16:15:45.078125,-32.62
16:15:45.093750,-10.50
16:15:45.109375,11.46
16:15:45.125000,31.26
16:15:45.140625,48.18
16:15:45.156250,62.58
16:15:45.171875,74.99
16:15:45.187500,85.23
16:15:45.203125,92.35
16:15:45.218750,95.05
16:15:45.234375,92.46
16:15:45.250000,84.94
16:15:45.265625,74.21
16:15:45.281250,62.96
16:15:45.296875,54.03
16:15:45.312500,49.37
16:15:45.328125,49.52
16:15:45.343750,53.64
16:15:45.359375,60.15
16:15:45.375000,67.46
16:15:45.390625,74.58
16:15:45.406250,81.03
16:15:45.421875,86.52
16:15:45.437500,90.37
16:15:45.453125,91.24
16:15:45.468750,87.46
16:15:45.484375,77.74
16:15:45.500000,62.08
16:15:45.515625,42.14
16:15:45.531250,21.04
16:15:45.546875,2.42
16:15:45.562500,-10.66
16:15:45.578125,-16.63
16:15:45.593750,-15.76
16:15:45.609375,-9.82
16:15:45.625000,-1.36
16:15:45.640625,6.97
16:15:45.656250,12.96
16:15:45.671875,14.82
16:15:45.687500,11.22
16:15:45.703125,1.38
16:15:45.718750,-14.50
16:15:45.734375,-34.74
16:15:45.750000,-55.91
16:15:45.765625,-73.41
16:15:45.781250,-82.61
16:15:45.796875,-80.35
16:15:45.812500,-65.98
16:15:45.828125,-41.50
16:15:45.843750,-10.58
16:15:45.859375,22.93
16:15:45.875000,56.15
16:15:45.890625,87.38
16:15:45.906250,115.39
16:15:45.921875,138.28
16:15:45.937500,152.84
16:15:45.953125,155.07
16:15:45.968750,141.81
16:15:45.984375,112.73
16:15:46,71.54
16:15:46.015625,25.49
16:15:46.031250,-16.75
16:15:46.046875,-47.96
16:15:46.062500,-64.48
16:15:46.078125,-66.79
16:15:46.093750,-58.28
16:15:46.109375,-43.13
16:15:46.125000,-24.70
16:15:46.140625,-5.01
16:15:46.156250,14.43
16:15:46.171875,31.50
16:15:46.187500,43.03
16:15:46.203125,45.58
16:15:46.218750,37.01
16:15:46.234375,18.02
16:15:46.250000,-7.45
16:15:46.265625,-33.33
16:15:46.281250,-53.58
16:15:46.296875,-64.30
16:15:46.312500,-64.78
16:15:46.328125,-57.23
16:15:46.343750,-45.35
16:15:46.359375,-32.59
16:15:46.375000,-21.03
16:15:46.390625,-11.41
16:15:46.406250,-3.82
16:15:46.421875,1.41
16:15:46.437500,3.27
16:15:46.453125,0.52
16:15:46.468750,-7.64
16:15:46.484375,-20.90
16:15:46.500000,-37.71
16:15:46.515625,-55.65
16:15:46.531250,-71.98
16:15:46.546875,-84.11
16:15:46.562500,-89.83
16:15:46.578125,-87.65
16:15:46.593750,-77.19
16:15:46.609375,-59.69
16:15:46.625000,-38.10
16:15:46.640625,-16.70
16:15:46.656250,0.25
16:15:46.671875,9.87
16:15:46.687500,11.77
16:15:46.703125,7.97
16:15:46.718750,1.82
16:15:46.734375,-3.53
16:15:46.750000,-6.40
16:15:46.765625,-6.91
16:15:46.781250,-6.40
16:15:46.796875,-6.32
16:15:46.812500,-7.45
16:15:46.828125,-9.57
16:15:46.843750,-11.86
16:15:46.859375,-13.49
16:15:46.875000,-14.15
16:15:46.890625,-14.08
16:15:46.906250,-13.83
16:15:46.921875,-13.82
16:15:46.937500,-14.13
16:15:46.953125,-14.48
16:15:46.968750,-14.45
16:15:46.984375,-13.81
16:15:47,-12.68
16:15:47.015625,-11.60
16:15:47.031250,-11.27
16:15:47.046875,-12.31
16:15:47.062500,-15.05
16:15:47.078125,-19.37
16:15:47.093750,-24.83
16:15:47.109375,-30.84
16:15:47.125000,-36.91
16:15:47.140625,-42.71
16:15:47.156250,-48.11
16:15:47.171875,-52.96
16:15:47.187500,-57.06
16:15:47.203125,-60.06
16:15:47.218750,-61.66
16:15:47.234375,-61.81
16:15:47.250000,-60.96
16:15:47.265625,-60.06
16:15:47.281250,-60.21
16:15:47.296875,-62.08
16:15:47.312500,-65.31
16:15:47.328125,-68.21
16:15:47.343750,-68.22
16:15:47.359375,-62.90
16:15:47.375000,-51.08
16:15:47.390625,-33.63
16:15:47.406250,-13.39
16:15:47.421875,5.77
16:15:47.437500,20.22
16:15:47.453125,27.76
16:15:47.468750,28.06
16:15:47.484375,22.40
16:15:47.500000,13.00
16:15:47.515625,2.25
16:15:47.531250,-7.87
16:15:47.546875,-15.97
16:15:47.562500,-21.38
16:15:47.578125,-24.00
16:15:47.593750,-24.21
16:15:47.609375,-22.69
16:15:47.625000,-20.13
16:15:47.640625,-17.03
16:15:47.656250,-13.63
16:15:47.671875,-9.88
16:15:47.687500,-5.60
16:15:47.703125,-0.60
16:15:47.718750,5.20
16:15:47.734375,11.71
16:15:47.750000,18.69
16:15:47.765625,25.70
16:15:47.781250,32.23
16:15:47.796875,37.81
16:15:47.812500,42.11
16:15:47.828125,45.07
16:15:47.843750,46.78
16:15:47.859375,47.42
16:15:47.875000,47.00
16:15:47.890625,45.35
16:15:47.906250,42.14
16:15:47.921875,37.15
16:15:47.937500,30.49
16:15:47.953125,22.74
16:15:47.968750,14.83
16:15:47.984375,7.78
16:15:48,2.24
16:15:48.015625,-1.68
16:15:48.031250,-4.49
16:15:48.046875,-7.02
16:15:48.062500,-10.23
16:15:48.078125,-14.84
16:15:48.093750,-21.21
16:15:48.109375,-29.18
16:15:48.125000,-37.86
16:15:48.140625,-45.70
16:15:48.156250,-50.71
16:15:48.171875,-50.98
16:15:48.187500,-45.45
16:15:48.203125,-34.44
16:15:48.218750,-19.68
16:15:48.234375,-3.77
16:15:48.250000,10.74
16:15:48.265625,22.24
16:15:48.281250,30.43
16:15:48.296875,36.01
16:15:48.312500,40.08
16:15:48.328125,43.42
16:15:48.343750,46.15
16:15:48.359375,47.87
16:15:48.375000,48.06
16:15:48.390625,46.48
16:15:48.406250,43.37
16:15:48.421875,39.38
16:15:48.437500,35.30
16:15:48.453125,31.83
16:15:48.468750,29.37
16:15:48.484375,28.10
16:15:48.500000,27.99
16:15:48.515625,28.99
16:15:48.531250,30.93
16:15:48.546875,33.55
16:15:48.562500,36.31
16:15:48.578125,38.49
16:15:48.593750,39.25
16:15:48.609375,37.99
16:15:48.625000,34.51
16:15:48.640625,29.22
16:15:48.656250,22.99
16:15:48.671875,16.94
16:15:48.687500,12.06
16:15:48.703125,8.84
16:15:48.718750,7.20
16:15:48.734375,6.51
16:15:48.750000,5.94
16:15:48.765625,4.78
16:15:48.781250,2.76
16:15:48.796875,0.01
16:15:48.812500,-2.98
16:15:48.828125,-5.73
16:15:48.843750,-8.00
16:15:48.859375,-9.91
16:15:48.875000,-12.04
16:15:48.890625,-15.15
16:15:48.906250,-19.97
16:15:48.921875,-26.82
16:15:48.937500,-35.17
16:15:48.953125,-43.52
16:15:48.968750,-49.60
16:15:48.984375,-50.95
16:15:49,-45.82
16:15:49.015625,-33.93
16:15:49.031250,-16.73
16:15:49.046875,3.05
16:15:49.062500,22.25
16:15:49.078125,38.38
16:15:49.093750,50.22
16:15:49.109375,57.89
16:15:49.125000,62.36
16:15:49.140625,64.84
16:15:49.156250,66.23
16:15:49.171875,66.96
16:15:49.187500,67.16
16:15:49.203125,66.92
16:15:49.218750,66.48
16:15:49.234375,66.19
16:15:49.250000,66.36
16:15:49.265625,67.12
16:15:49.281250,68.30
16:15:49.296875,69.54
16:15:49.312500,70.45
16:15:49.328125,70.70
16:15:49.343750,70.18
16:15:49.359375,68.93
16:15:49.375000,67.03
16:15:49.390625,64.56
16:15:49.406250,61.48
16:15:49.421875,57.72
16:15:49.437500,53.34
16:15:49.453125,48.45
16:15:49.468750,43.30
16:15:49.484375,38.05
16:15:49.500000,32.75
16:15:49.515625,27.28
16:15:49.531250,21.47
16:15:49.546875,15.29
16:15:49.562500,8.92
16:15:49.578125,2.78
16:15:49.593750,-2.73
16:15:49.609375,-7.42
16:15:49.625000,-11.41
16:15:49.640625,-15.19
16:15:49.656250,-19.35
16:15:49.671875,-24.44
16:15:49.687500,-30.67
16:15:49.703125,-37.84
16:15:49.718750,-45.21
16:15:49.734375,-51.46
16:15:49.750000,-54.88
16:15:49.765625,-53.66
16:15:49.781250,-46.51
16:15:49.796875,-33.16
16:15:49.812500,-14.77
16:15:49.828125,6.36
16:15:49.843750,27.32
16:15:49.859375,45.46
16:15:49.875000,59.04
16:15:49.890625,67.47
16:15:49.906250,71.01
16:15:49.921875,70.33
16:15:49.937500,66.02
16:15:49.953125,58.46
16:15:49.968750,47.94
16:15:49.984375,34.95
16:15:50,20.38
16:15:50.015625,5.40
16:15:50.031250,-8.66
16:15:50.046875,-20.65
16:15:50.062500,-29.84
16:15:50.078125,-35.92
16:15:50.093750,-38.98
16:15:50.109375,-39.31
16:15:50.125000,-37.32
16:15:50.140625,-33.50
16:15:50.156250,-28.47
16:15:50.171875,-23.03
16:15:50.187500,-18.14
16:15:50.203125,-14.76
16:15:50.218750,-13.60
16:15:50.234375,-14.86
16:15:50.250000,-18.16
16:15:50.265625,-22.63
16:15:50.281250,-27.29
16:15:50.296875,-31.37
16:15:50.312500,-34.55
16:15:50.328125,-36.96
16:15:50.343750,-38.95
16:15:50.359375,-40.76
16:15:50.375000,-42.42
16:15:50.390625,-43.65
16:15:50.406250,-44.21
16:15:50.421875,-44.04
16:15:50.437500,-43.44
16:15:50.453125,-43.10
16:15:50.468750,-43.93
16:15:50.484375,-46.88
16:15:50.500000,-52.70
16:15:50.515625,-61.55
16:15:50.531250,-72.70
16:15:50.546875,-84.39
16:15:50.562500,-93.93
16:15:50.578125,-98.50
16:15:50.593750,-96.02
16:15:50.609375,-86.04
16:15:50.625000,-70.06
16:15:50.640625,-50.98
16:15:50.656250,-32.09
16:15:50.671875,-15.94
16:15:50.687500,-3.70
16:15:50.703125,4.85
16:15:50.718750,10.72
16:15:50.734375,15.01
16:15:50.750000,18.48
16:15:50.765625,21.42
16:15:50.781250,23.88
16:15:50.796875,25.96
16:15:50.812500,27.80
16:15:50.828125,29.61
16:15:50.843750,31.47
16:15:50.859375,33.26
16:15:50.875000,34.64
16:15:50.890625,35.26
16:15:50.906250,34.85
16:15:50.921875,33.45
16:15:50.937500,31.32
16:15:50.953125,28.91
16:15:50.968750,26.62
16:15:50.984375,24.69
16:15:51,23.08
16:15:51.015625,21.57
16:15:51.031250,19.91
16:15:51.046875,17.96
16:15:51.062500,15.81
16:15:51.078125,13.68
16:15:51.093750,11.90
16:15:51.109375,10.60
16:15:51.125000,9.64
16:15:51.140625,8.54
16:15:51.156250,6.66
16:15:51.171875,3.43
16:15:51.187500,-1.33
16:15:51.203125,-7.23
16:15:51.218750,-13.42
16:15:51.234375,-18.90
16:15:51.250000,-23.02
16:15:51.265625,-25.72
16:15:51.281250,-27.66
16:15:51.296875,-29.97
16:15:51.312500,-33.87
16:15:51.328125,-40.30
16:15:51.343750,-49.51
16:15:51.359375,-60.93
16:15:51.375000,-73.01
16:15:51.390625,-83.45
16:15:51.406250,-89.74
16:15:51.421875,-89.82
16:15:51.437500,-82.91
16:15:51.453125,-69.82
16:15:51.468750,-52.78
16:15:51.484375,-34.69
16:15:51.500000,-18.17
16:15:51.515625,-4.80
16:15:51.531250,5.10
16:15:51.546875,12.13
16:15:51.562500,17.22
16:15:51.578125,21.11
16:15:51.593750,24.10
16:15:51.609375,26.24
16:15:51.625000,27.52
16:15:51.640625,28.18
16:15:51.656250,28.67
16:15:51.671875,29.51
16:15:51.687500,31.03
16:15:51.703125,33.19
16:15:51.718750,35.65
16:15:51.734375,37.94
16:15:51.750000,39.69
16:15:51.765625,40.81
16:15:51.781250,41.46
16:15:51.796875,41.89
16:15:51.812500,42.16
16:15:51.828125,42.05
16:15:51.843750,41.09
16:15:51.859375,38.79
16:15:51.875000,34.90
16:15:51.890625,29.59
16:15:51.906250,23.38
16:15:51.921875,17.00
16:15:51.937500,11.10
16:15:51.953125,6.04
16:15:51.968750,1.77
16:15:51.984375,-2.08
16:15:52,-6.00
16:15:52.015625,-10.31
16:15:52.031250,-15.01
16:15:52.046875,-19.67
16:15:52.062500,-23.67
16:15:52.078125,-26.41
16:15:52.093750,-27.69
16:15:52.109375,-27.80
16:15:52.125000,-27.51
16:15:52.140625,-27.79
16:15:52.156250,-29.59
16:15:52.171875,-33.48
16:15:52.187500,-39.52
16:15:52.203125,-47.08
16:15:52.218750,-54.83
16:15:52.234375,-60.91
16:15:52.250000,-63.29
16:15:52.265625,-60.42
16:15:52.281250,-51.73
16:15:52.296875,-37.97
16:15:52.312500,-21.04
16:15:52.328125,-3.42
16:15:52.343750,12.64
16:15:52.359375,25.71
16:15:52.375000,35.32
16:15:52.390625,41.79
16:15:52.406250,45.71
16:15:52.421875,47.51
16:15:52.437500,47.42
16:15:52.453125,45.61
16:15:52.468750,42.49
16:15:52.484375,38.84
16:15:52.500000,35.61
16:15:52.515625,33.59
16:15:52.531250,32.97
16:15:52.546875,33.26
16:15:52.562500,33.44
16:15:52.578125,32.47
16:15:52.593750,29.83
16:15:52.609375,25.75
16:15:52.625000,21.02
16:15:52.640625,16.66
16:15:52.656250,13.36
16:15:52.671875,11.26
16:15:52.687500,10.11
16:15:52.703125,9.56
16:15:52.718750,9.53
16:15:52.734375,10.20
16:15:52.750000,11.84
16:15:52.765625,14.39
16:15:52.781250,17.32
16:15:52.796875,19.54
16:15:52.812500,19.80
16:15:52.828125,17.12
16:15:52.843750,11.11
16:15:52.859375,2.20
16:15:52.875000,-8.53
16:15:52.890625,-19.60
16:15:52.906250,-29.56
16:15:52.921875,-37.32
16:15:52.937500,-42.40
16:15:52.953125,-45.00
16:15:52.968750,-45.92
16:15:52.984375,-46.25
16:15:53,-46.96
16:15:53.015625,-48.46
16:15:53.031250,-50.37
16:15:53.046875,-51.54
16:15:53.062500,-50.45
16:15:53.078125,-45.83
16:15:53.093750,-37.23
16:15:53.109375,-25.30
16:15:53.125000,-11.55
16:15:53.140625,2.17
16:15:53.156250,14.36
16:15:53.171875,24.26
16:15:53.187500,31.98
16:15:53.203125,38.08
16:15:53.218750,43.12
16:15:53.234375,47.28
16:15:53.250000,50.24
16:15:53.265625,51.48
16:15:53.281250,50.51
16:15:53.296875,47.30
16:15:53.312500,42.32
16:15:53.328125,36.45
16:15:53.343750,30.67
16:15:53.359375,25.76
16:15:53.375000,22.08
16:15:53.390625,19.55
16:15:53.406250,17.94
16:15:53.421875,16.98
16:15:53.437500,16.57
16:15:53.453125,16.64
16:15:53.468750,17.05
16:15:53.484375,17.31
16:15:53.500000,16.71
16:15:53.515625,14.41
16:15:53.531250,9.84
16:15:53.546875,2.81
16:15:53.562500,-6.44
16:15:53.578125,-17.40
16:15:53.593750,-29.61
16:15:53.609375,-42.72
16:15:53.625000,-56.47
16:15:53.640625,-70.52
16:15:53.656250,-84.32
16:15:53.671875,-97.13
16:15:53.687500,-108.15
16:15:53.703125,-116.87
16:15:53.718750,-123.20
16:15:53.734375,-127.53
16:15:53.750000,-130.66
16:15:53.765625,-133.56
16:15:53.781250,-137.09
16:15:53.796875,-141.69
16:15:53.812500,-147.03
16:15:53.828125,-151.85
16:15:53.843750,-154.05
16:15:53.859375,-151.22
16:15:53.875000,-141.42
16:15:53.890625,-123.99
16:15:53.906250,-99.92
16:15:53.921875,-71.60
16:15:53.937500,-42.00
16:15:53.953125,-13.79
16:15:53.968750,11.42
16:15:53.984375,33.18
16:15:54,51.87
16:15:54.015625,68.19
16:15:54.031250,82.64
16:15:54.046875,95.45
16:15:54.062500,106.62
16:15:54.078125,116.17
16:15:54.093750,124.13
16:15:54.109375,130.60
16:15:54.125000,135.59
16:15:54.140625,138.98
16:15:54.156250,140.59
16:15:54.171875,140.32
16:15:54.187500,138.33
16:15:54.203125,135.10
16:15:54.218750,131.33
16:15:54.234375,127.69
16:15:54.250000,124.56
16:15:54.265625,121.89
16:15:54.281250,119.22
16:15:54.296875,116.00
16:15:54.312500,111.88
16:15:54.328125,106.91
16:15:54.343750,101.53
16:15:54.359375,96.29
16:15:54.375000,91.62
16:15:54.390625,87.60
16:15:54.406250,83.97
16:15:54.421875,80.27
16:15:54.437500,75.93
16:15:54.453125,70.41
16:15:54.468750,63.27
16:15:54.484375,54.14
16:15:54.500000,42.75
16:15:54.515625,28.96
16:15:54.531250,12.71
16:15:54.546875,-6.04
16:15:54.562500,-27.26
16:15:54.578125,-50.70
16:15:54.593750,-75.52
16:15:54.609375,-100.07
16:15:54.625000,-121.92
16:15:54.640625,-138.45
16:15:54.656250,-147.66
16:15:54.671875,-149.00
16:15:54.687500,-143.62
16:15:54.703125,-133.94
16:15:54.718750,-122.59
16:15:54.734375,-111.42
16:15:54.750000,-100.85
16:15:54.765625,-90.02
16:15:54.781250,-77.60
16:15:54.796875,-62.57
16:15:54.812500,-44.86
16:15:54.828125,-25.27
16:15:54.843750,-5.04
16:15:54.859375,14.70
16:15:54.875000,33.22
16:15:54.890625,50.15
16:15:54.906250,65.26
16:15:54.921875,78.20
16:15:54.937500,88.44
16:15:54.953125,95.46
16:15:54.968750,98.94
16:15:54.984375,98.86
16:15:55,95.45
16:15:55.015625,88.99
16:15:55.031250,79.69
16:15:55.046875,67.67
16:15:55.062500,53.13
16:15:55.078125,36.50
16:15:55.093750,18.47
16:15:55.109375,-0.11
16:15:55.125000,-18.39
16:15:55.140625,-35.64
16:15:55.156250,-51.17
16:15:55.171875,-64.26
16:15:55.187500,-74.09
16:15:55.203125,-79.90
16:15:55.218750,-81.23
16:15:55.234375,-78.29
16:15:55.250000,-71.98
16:15:55.265625,-63.91
16:15:55.281250,-56.11
16:15:55.296875,-50.76
16:15:55.312500,-49.92
16:15:55.328125,-55.10
16:15:55.343750,-66.84
16:15:55.359375,-84.24
16:15:55.375000,-104.76
16:15:55.390625,-124.45
16:15:55.406250,-138.84
16:15:55.421875,-144.05
16:15:55.437500,-138.05
16:15:55.453125,-121.24
16:15:55.468750,-96.42
16:15:55.484375,-67.86
16:15:55.500000,-40.07
16:15:55.515625,-16.70
16:15:55.531250,0.29
16:15:55.546875,10.71
16:15:55.562500,15.84
16:15:55.578125,17.76
16:15:55.593750,18.61
16:15:55.609375,20.08
16:15:55.625000,23.12
16:15:55.640625,28.01
16:15:55.656250,34.52
16:15:55.671875,42.11
16:15:55.687500,50.07
16:15:55.703125,57.56
16:15:55.718750,63.72
16:15:55.734375,67.86
16:15:55.750000,69.68
16:15:55.765625,69.51
16:15:55.781250,68.16
16:15:55.796875,66.58
16:15:55.812500,65.33
16:15:55.828125,64.23
16:15:55.843750,62.44
16:15:55.859375,58.92
16:15:55.875000,53.04
16:15:55.890625,44.99
16:15:55.906250,35.66
16:15:55.921875,26.11
16:15:55.937500,17.01
16:15:55.953125,8.35
16:15:55.968750,-0.38
16:15:55.984375,-9.63
16:15:56,-19.21
16:15:56.015625,-28.25
16:15:56.031250,-35.51
16:15:56.046875,-40.04
16:15:56.062500,-41.68
16:15:56.078125,-41.17
16:15:56.093750,-39.75
16:15:56.109375,-38.66
16:15:56.125000,-38.67
16:15:56.140625,-39.99
16:15:56.156250,-42.40
16:15:56.171875,-45.42
16:15:56.187500,-48.36
16:15:56.203125,-50.31
16:15:56.218750,-50.15
16:15:56.234375,-46.91
16:15:56.250000,-40.10
16:15:56.265625,-30.15
16:15:56.281250,-18.46
16:15:56.296875,-7.00
16:15:56.312500,2.39
16:15:56.328125,8.68
16:15:56.343750,12.01
16:15:56.359375,13.53
16:15:56.375000,14.88
16:15:56.390625,17.53
16:15:56.406250,22.38
16:15:56.421875,29.56
16:15:56.437500,38.46
16:15:56.453125,47.98
16:15:56.468750,56.68
16:15:56.484375,63.08
16:15:56.500000,65.94
16:15:56.515625,64.59
16:15:56.531250,59.31
16:15:56.546875,51.45
16:15:56.562500,43.22
16:15:56.578125,37.13
16:15:56.593750,35.16
16:15:56.609375,38.07
16:15:56.625000,45.00
16:15:56.640625,53.67
16:15:56.656250,61.04
16:15:56.671875,64.28
16:15:56.687500,61.65
16:15:56.703125,52.99
16:15:56.718750,39.78
16:15:56.734375,24.57
16:15:56.750000,10.12
16:15:56.765625,-1.45
16:15:56.781250,-9.24
16:15:56.796875,-13.72
16:15:56.812500,-16.28
16:15:56.828125,-18.64
16:15:56.843750,-22.16
16:15:56.859375,-27.49
16:15:56.875000,-34.50
16:15:56.890625,-42.61
16:15:56.906250,-51.11
16:15:56.921875,-59.37
16:15:56.937500,-66.93
16:15:56.953125,-73.28
16:15:56.968750,-77.60
16:15:56.984375,-78.79
16:15:57,-75.63
16:15:57.015625,-67.33
16:15:57.031250,-54.01
16:15:57.046875,-36.97
16:15:57.062500,-18.42
16:15:57.078125,-0.80
16:15:57.093750,14.06
16:15:57.109375,25.48
16:15:57.125000,34.04
16:15:57.140625,41.03
16:15:57.156250,47.64
16:15:57.171875,54.32
16:15:57.187500,60.64
16:15:57.203125,65.59
16:15:57.218750,68.24
16:15:57.234375,68.22
16:15:57.250000,65.88
16:15:57.265625,62.09
16:15:57.281250,57.78
16:15:57.296875,53.67
16:15:57.312500,50.06
16:15:57.328125,46.93
16:15:57.343750,44.17
16:15:57.359375,41.70
16:15:57.375000,39.53
16:15:57.390625,37.69
16:15:57.406250,36.16
16:15:57.421875,34.82
16:15:57.437500,33.47
16:15:57.453125,31.88
16:15:57.468750,29.86
16:15:57.484375,27.24
16:15:57.500000,23.86
16:15:57.515625,19.63
16:15:57.531250,14.48
16:15:57.546875,8.52
16:15:57.562500,1.97
16:15:57.578125,-4.80
16:15:57.593750,-11.36
16:15:57.609375,-17.39
16:15:57.625000,-22.65
16:15:57.640625,-27.16
16:15:57.656250,-31.08
16:15:57.671875,-34.80
16:15:57.687500,-38.85
16:15:57.703125,-43.82
16:15:57.718750,-50.17
16:15:57.734375,-57.85
16:15:57.750000,-66.02
16:15:57.765625,-73.00
16:15:57.781250,-76.61
16:15:57.796875,-74.87
16:15:57.812500,-66.85
16:15:57.828125,-53.12
16:15:57.843750,-35.78
16:15:57.859375,-17.66
16:15:57.875000,-1.34
16:15:57.890625,11.63
16:15:57.906250,21.10
16:15:57.921875,27.89
16:15:57.937500,33.18
16:15:57.953125,37.81
16:15:57.968750,41.95
16:15:57.984375,45.24
16:15:58,47.17
16:15:58.015625,47.45
16:15:58.031250,46.25
16:15:58.046875,44.14
16:15:58.062500,41.82
16:15:58.078125,39.86
16:15:58.093750,38.46
16:15:58.109375,37.43
16:15:58.125000,36.34
16:15:58.140625,34.80
16:15:58.156250,32.61
16:15:58.171875,29.89
16:15:58.187500,26.97
16:15:58.203125,24.14
16:15:58.218750,21.50
16:15:58.234375,18.78
16:15:58.250000,15.54
16:15:58.265625,11.30
16:15:58.281250,5.89
16:15:58.296875,-0.44
16:15:58.312500,-7.10
16:15:58.328125,-13.34
16:15:58.343750,-18.56
16:15:58.359375,-22.53
16:15:58.375000,-25.43
16:15:58.390625,-27.78
16:15:58.406250,-30.28
16:15:58.421875,-33.61
16:15:58.437500,-38.38
16:15:58.453125,-45.06
16:15:58.468750,-53.80
16:15:58.484375,-64.27
16:15:58.500000,-75.35
16:15:58.515625,-85.12
16:15:58.531250,-91.15
16:15:58.546875,-91.18
16:15:58.562500,-84.04
16:15:58.578125,-70.16
16:15:58.593750,-51.59
16:15:58.609375,-31.38
16:15:58.625000,-12.50
16:15:58.640625,3.03
16:15:58.656250,14.57
16:15:58.671875,22.65
16:15:58.687500,28.39
16:15:58.703125,32.77
16:15:58.718750,36.25
16:15:58.734375,38.81
16:15:58.750000,40.23
16:15:58.765625,40.45
16:15:58.781250,39.76
16:15:58.796875,38.72
16:15:58.812500,37.95
16:15:58.828125,37.78
16:15:58.843750,38.13
16:15:58.859375,38.53
16:15:58.875000,38.36
16:15:58.890625,37.16
16:15:58.906250,34.83
16:15:58.921875,31.74
16:15:58.937500,28.46
16:15:58.953125,25.55
16:15:58.968750,23.16
16:15:58.984375,20.99
16:15:59,18.35
16:15:59.015625,14.56
16:15:59.031250,9.28
16:15:59.046875,2.75
16:15:59.062500,-4.32
16:15:59.078125,-10.95
16:15:59.093750,-16.43
16:15:59.109375,-20.58
16:15:59.125000,-23.83
16:15:59.140625,-27.05
16:15:59.156250,-31.14
16:15:59.171875,-36.74
16:15:59.187500,-44.07
16:15:59.203125,-52.92
16:15:59.218750,-62.67
16:15:59.234375,-72.24
16:15:59.250000,-80.06
16:15:59.265625,-84.28
16:15:59.281250,-83.13
16:15:59.296875,-75.69
16:15:59.312500,-62.30
16:15:59.328125,-44.73
16:15:59.343750,-25.68
16:15:59.359375,-7.94
16:15:59.375000,6.50
16:15:59.390625,16.93
16:15:59.406250,23.86
16:15:59.421875,28.45
16:15:59.437500,31.86
16:15:59.453125,34.75
16:15:59.468750,37.20
16:15:59.484375,39.03
16:15:59.500000,40.05
16:15:59.515625,40.39
16:15:59.531250,40.45
16:15:59.546875,40.76
16:15:59.562500,41.68
16:15:59.578125,43.28
16:15:59.593750,45.23
16:15:59.609375,47.00
16:15:59.625000,48.03
16:15:59.640625,47.95
16:15:59.656250,46.68
16:15:59.671875,44.42
16:15:59.687500,41.51
16:15:59.703125,38.32
16:15:59.718750,35.08
16:15:59.734375,31.83
16:15:59.750000,28.41
16:15:59.765625,24.55
16:15:59.781250,19.98
16:15:59.796875,14.66
16:15:59.812500,8.74
16:15:59.828125,2.59
16:15:59.843750,-3.36
16:15:59.859375,-8.81
16:15:59.875000,-13.72
16:15:59.890625,-18.31
16:15:59.906250,-22.91
16:15:59.921875,-27.88
16:15:59.937500,-33.50
16:15:59.953125,-40.00
16:15:59.968750,-47.47
16:15:59.984375,-55.81
16:16:00,-64.40
16:16:00.015625,-72.03
16:16:00.031250,-76.93
16:16:00.046875,-77.29
16:16:00.062500,-71.92
16:16:00.078125,-60.87
16:16:00.093750,-45.62
16:16:00.109375,-28.59
16:16:00.125000,-12.37
16:16:00.140625,1.20
16:16:00.156250,11.46
16:16:00.171875,18.86
16:16:00.187500,24.42
16:16:00.203125,29.05
16:16:00.218750,33.20
16:16:00.234375,36.72
16:16:00.250000,39.25
16:16:00.265625,40.44
16:16:00.281250,40.28
16:16:00.296875,39.09
16:16:00.312500,37.45
16:16:00.328125,35.95
16:16:00.343750,35.01
16:16:00.359375,34.84
16:16:00.375000,35.33
16:16:00.390625,36.24
16:16:00.406250,37.22
16:16:00.421875,37.96
16:16:00.437500,38.17
16:16:00.453125,37.64
16:16:00.468750,36.18
16:16:00.484375,33.74
16:16:00.500000,30.42
16:16:00.515625,26.50
16:16:00.531250,22.37
16:16:00.546875,18.38
16:16:00.562500,14.69
16:16:00.578125,11.20
16:16:00.593750,7.58
16:16:00.609375,3.50
16:16:00.625000,-1.25
16:16:00.640625,-6.61
16:16:00.656250,-12.34
16:16:00.671875,-18.14
16:16:00.687500,-23.81
16:16:00.703125,-29.38
16:16:00.718750,-35.10
16:16:00.734375,-41.35
16:16:00.750000,-48.49
16:16:00.765625,-56.61
16:16:00.781250,-65.24
16:16:00.796875,-73.17
16:16:00.812500,-78.56
16:16:00.828125,-79.36
16:16:00.843750,-74.02
16:16:00.859375,-62.19
16:16:00.875000,-45.09
16:16:00.890625,-25.26
16:16:00.906250,-5.81
16:16:00.921875,10.51
16:16:00.937500,22.07
16:16:00.953125,28.71
16:16:00.968750,31.46
16:16:00.984375,31.97
16:16:01,31.86
16:16:01.015625,32.26
16:16:01.031250,33.66
16:16:01.046875,36.02
16:16:01.062500,39.09
16:16:01.078125,42.56
16:16:01.093750,46.28
16:16:01.109375,50.08
16:16:01.125000,53.70
16:16:01.140625,56.54
16:16:01.156250,57.77
16:16:01.171875,56.49
16:16:01.187500,52.18
16:16:01.203125,45.04
16:16:01.218750,36.02
16:16:01.234375,26.62
16:16:01.250000,18.32
16:16:01.265625,12.09
16:16:01.281250,8.07
16:16:01.296875,5.70
16:16:01.312500,4.01
16:16:01.328125,2.11
16:16:01.343750,-0.50
16:16:01.359375,-3.95
16:16:01.375000,-8.19
16:16:01.390625,-13.18
16:16:01.406250,-19.05
16:16:01.421875,-26.01
16:16:01.437500,-34.14
16:16:01.453125,-43.25
16:16:01.468750,-52.84
16:16:01.484375,-62.33
16:16:01.500000,-71.29
16:16:01.515625,-79.58
16:16:01.531250,-87.13
16:16:01.546875,-93.71
16:16:01.562500,-98.57
16:16:01.578125,-100.47
16:16:01.593750,-98.10
16:16:01.609375,-90.69
16:16:01.625000,-78.56
16:16:01.640625,-63.32
16:16:01.656250,-47.40
16:16:01.671875,-33.30
16:16:01.687500,-22.73
16:16:01.703125,-16.14
16:16:01.718750,-12.80
16:16:01.734375,-11.35
16:16:01.750000,-10.49
16:16:01.765625,-9.45
16:16:01.781250,-8.08
16:16:01.796875,-6.59
16:16:01.812500,-5.15
16:16:01.828125,-3.70
16:16:01.843750,-1.87
16:16:01.859375,0.71
16:16:01.875000,4.16
16:16:01.890625,8.18
16:16:01.906250,12.04
16:16:01.921875,14.94
16:16:01.937500,16.28
16:16:01.953125,15.89
16:16:01.968750,14.13
16:16:01.984375,11.62
16:16:02,9.12
16:16:02.015625,7.18
16:16:02.031250,5.97
16:16:02.046875,5.30
16:16:02.062500,4.71
16:16:02.078125,3.67
16:16:02.093750,1.84
16:16:02.109375,-0.83
16:16:02.125000,-4.09
16:16:02.140625,-7.56
16:16:02.156250,-10.90
16:16:02.171875,-14.03
16:16:02.187500,-17.13
16:16:02.203125,-20.53
16:16:02.218750,-24.63
16:16:02.234375,-29.75
16:16:02.250000,-36.16
16:16:02.265625,-44.03
16:16:02.281250,-53.35
16:16:02.296875,-63.64
16:16:02.312500,-73.69
16:16:02.328125,-81.51
16:16:02.343750,-84.78
16:16:02.359375,-81.63
16:16:02.375000,-71.42
16:16:02.390625,-55.28
16:16:02.406250,-35.80
16:16:02.421875,-16.20
16:16:02.437500,0.80
16:16:02.453125,13.81
16:16:02.468750,22.98
16:16:02.484375,29.45
16:16:02.500000,34.59
16:16:02.515625,39.23
16:16:02.531250,43.43
16:16:02.546875,46.79
16:16:02.562500,48.86
16:16:02.578125,49.64
16:16:02.593750,49.61
16:16:02.609375,49.51
16:16:02.625000,49.95
16:16:02.640625,51.06
16:16:02.656250,52.47
16:16:02.671875,53.56
16:16:02.687500,53.72
16:16:02.703125,52.76
16:16:02.718750,50.84
16:16:02.734375,48.45
16:16:02.750000,46.07
16:16:02.765625,43.91
16:16:02.781250,41.80
16:16:02.796875,39.23
16:16:02.812500,35.55
16:16:02.828125,30.31
16:16:02.843750,23.48
16:16:02.859375,15.51
16:16:02.875000,7.19
16:16:02.890625,-0.67
16:16:02.906250,-7.56
16:16:02.921875,-13.41
16:16:02.937500,-18.62
16:16:02.953125,-23.82
16:16:02.968750,-29.66
16:16:02.984375,-36.68
16:16:03,-45.17
16:16:03.015625,-55.10
16:16:03.031250,-65.95
16:16:03.046875,-76.52
16:16:03.062500,-84.96
16:16:03.078125,-89.09
16:16:03.093750,-87.03
16:16:03.109375,-77.95
16:16:03.125000,-62.61
16:16:03.140625,-43.18
16:16:03.156250,-22.68
16:16:03.171875,-3.98
16:16:03.187500,11.08
16:16:03.203125,22.08
16:16:03.218750,29.74
16:16:03.234375,35.35
16:16:03.250000,39.91
16:16:03.265625,43.76
16:16:03.281250,46.65
16:16:03.296875,48.14
16:16:03.312500,48.08
16:16:03.328125,46.90
16:16:03.343750,45.48
16:16:03.359375,44.72
16:16:03.375000,45.12
16:16:03.390625,46.52
16:16:03.406250,48.16
16:16:03.421875,49.08
16:16:03.437500,48.58
16:16:03.453125,46.49
16:16:03.468750,43.17
16:16:03.484375,39.28
16:16:03.500000,35.47
16:16:03.515625,32.04
16:16:03.531250,28.84
16:16:03.546875,25.38
16:16:03.562500,21.05
16:16:03.578125,15.46
16:16:03.593750,8.64
16:16:03.609375,1.07
16:16:03.625000,-6.53
16:16:03.640625,-13.50
16:16:03.656250,-19.56
16:16:03.671875,-24.97
16:16:03.687500,-30.40
16:16:03.703125,-36.64
16:16:03.718750,-44.30
16:16:03.734375,-53.59
16:16:03.750000,-64.32
16:16:03.765625,-76.06
16:16:03.781250,-88.05
16:16:03.796875,-99.14
16:16:03.812500,-107.63
16:16:03.828125,-111.48
16:16:03.843750,-108.84
16:16:03.859375,-98.84
16:16:03.875000,-82.24
16:16:03.890625,-61.38
16:16:03.906250,-39.53
16:16:03.921875,-19.73
16:16:03.937500,-3.81
16:16:03.953125,8.07
16:16:03.968750,16.93
16:16:03.984375,24.13
16:16:04,30.50
16:16:04.015625,36.04
16:16:04.031250,40.15
16:16:04.046875,42.23
16:16:04.062500,42.20
16:16:04.078125,40.60
16:16:04.093750,38.37
16:16:04.109375,36.40
16:16:04.125000,35.30
16:16:04.140625,35.26
16:16:04.156250,36.21
16:16:04.171875,37.97
16:16:04.187500,40.39
16:16:04.203125,43.33
16:16:04.218750,46.57
16:16:04.234375,49.74
16:16:04.250000,52.36
16:16:04.265625,53.96
16:16:04.281250,54.29
16:16:04.296875,53.44
16:16:04.312500,51.74
16:16:04.328125,49.51
16:16:04.343750,46.81
16:16:04.359375,43.24
16:16:04.375000,38.09
16:16:04.390625,30.63
16:16:04.406250,20.60
16:16:04.421875,8.41
16:16:04.437500,-4.87
16:16:04.453125,-17.84
16:16:04.468750,-29.33
16:16:04.484375,-38.79
16:16:04.500000,-46.41
16:16:04.515625,-53.05
16:16:04.531250,-59.92
16:16:04.546875,-68.22
16:16:04.562500,-78.63
16:16:04.578125,-90.91
16:16:04.593750,-103.67
16:16:04.609375,-114.43
16:16:04.625000,-120.19
16:16:04.640625,-118.36
16:16:04.656250,-107.78
16:16:04.671875,-89.18
16:16:04.687500,-65.10
16:16:04.703125,-39.03
16:16:04.718750,-14.22
16:16:04.734375,7.14
16:16:04.750000,24.32
16:16:04.765625,37.68
16:16:04.781250,48.04
16:16:04.796875,56.04
16:16:04.812500,61.94
16:16:04.828125,65.73
16:16:04.843750,67.48
16:16:04.859375,67.57
16:16:04.875000,66.65
16:16:04.890625,65.40
16:16:04.906250,64.23
16:16:04.921875,63.08
16:16:04.937500,61.63
16:16:04.953125,59.52
16:16:04.968750,56.76
16:16:04.984375,53.82
16:16:05,51.45
16:16:05.015625,50.27
16:16:05.031250,50.33
16:16:05.046875,50.93
16:16:05.062500,50.77
16:16:05.078125,48.50
16:16:05.093750,43.24
16:16:05.109375,35.00
16:16:05.125000,24.74
16:16:05.140625,13.94
16:16:05.156250,4.05
16:16:05.171875,-4.04
16:16:05.187500,-10.32
16:16:05.203125,-15.49
16:16:05.218750,-20.56
16:16:05.234375,-26.35
16:16:05.250000,-33.05
16:16:05.265625,-40.18
16:16:05.281250,-46.88
16:16:05.296875,-52.33
16:16:05.312500,-56.22
16:16:05.328125,-58.88
16:16:05.343750,-61.22
16:16:05.359375,-64.39
16:16:05.375000,-69.40
16:16:05.390625,-76.71
16:16:05.406250,-85.99
16:16:05.421875,-95.94
16:16:05.437500,-104.47
16:16:05.453125,-109.10
16:16:05.468750,-107.75
16:16:05.484375,-99.36
16:16:05.500000,-84.43
16:16:05.515625,-64.85
16:16:05.531250,-43.28
16:16:05.546875,-22.24
16:16:05.562500,-3.32
16:16:05.578125,13.16
16:16:05.593750,27.77
16:16:05.609375,41.29
16:16:05.625000,54.09
16:16:05.640625,65.88
16:16:05.656250,75.85
16:16:05.671875,83.29
16:16:05.687500,88.01
16:16:05.703125,90.54
16:16:05.718750,91.90
16:16:05.734375,93.11
16:16:05.750000,94.73
16:16:05.765625,96.62
16:16:05.781250,98.18
16:16:05.796875,98.73
16:16:05.812500,98.01
16:16:05.828125,96.32
16:16:05.843750,94.39
16:16:05.859375,92.91
16:16:05.875000,92.14
16:16:05.890625,91.67
16:16:05.906250,90.63
16:16:05.921875,88.09
16:16:05.937500,83.49
16:16:05.953125,76.95
16:16:05.968750,69.14
16:16:05.984375,60.97
16:16:06,53.11
16:16:06.015625,45.71
16:16:06.031250,38.36
16:16:06.046875,30.32
16:16:06.062500,20.93
16:16:06.078125,10.04
16:16:06.093750,-1.91
16:16:06.109375,-13.97
16:16:06.125000,-25.08
16:16:06.140625,-34.46
16:16:06.156250,-42.01
16:16:06.171875,-48.29
16:16:06.187500,-54.34
16:16:06.203125,-61.31
16:16:06.218750,-70.03
16:16:06.234375,-80.78
16:16:06.250000,-93.11
16:16:06.265625,-105.73
16:16:06.281250,-116.63
16:16:06.296875,-123.27
16:16:06.312500,-123.19
16:16:06.328125,-114.76
16:16:06.343750,-97.86
16:16:06.359375,-74.25
16:16:06.375000,-47.18
16:16:06.390625,-20.41
16:16:06.406250,2.98
16:16:06.421875,21.46
16:16:06.437500,35.22
16:16:06.453125,45.64
16:16:06.468750,54.30
16:16:06.484375,62.20
16:16:06.500000,69.52
16:16:06.515625,75.76
16:16:06.531250,80.37
16:16:06.546875,83.11
16:16:06.562500,84.21
16:16:06.578125,84.16
16:16:06.593750,83.37
16:16:06.609375,82.01
16:16:06.625000,79.94
16:16:06.640625,76.96
16:16:06.656250,73.01
16:16:06.671875,68.32
16:16:06.687500,63.36
16:16:06.703125,58.60
16:16:06.718750,54.25
16:16:06.734375,50.23
16:16:06.750000,46.08
16:16:06.765625,41.26
16:16:06.781250,35.34
16:16:06.796875,28.26
16:16:06.812500,20.25
16:16:06.828125,11.86
16:16:06.843750,3.71
16:16:06.859375,-3.60
16:16:06.875000,-9.65
16:16:06.890625,-14.30
16:16:06.906250,-17.69
16:16:06.921875,-20.31
16:16:06.937500,-22.82
16:16:06.953125,-25.89
16:16:06.968750,-29.90
16:16:06.984375,-34.78
16:16:07,-39.98
16:16:07.015625,-44.75
16:16:07.031250,-48.48
16:16:07.046875,-51.00
16:16:07.062500,-52.74
16:16:07.078125,-54.59
16:16:07.093750,-57.62
16:16:07.109375,-62.75
16:16:07.125000,-70.48
16:16:07.140625,-80.70
16:16:07.156250,-92.49
16:16:07.171875,-104.05
16:16:07.187500,-112.81
16:16:07.203125,-115.94
16:16:07.218750,-111.15
16:16:07.234375,-97.64
16:16:07.250000,-76.56
16:16:07.265625,-50.83
16:16:07.281250,-24.26
16:16:07.296875,-0.34
16:16:07.312500,18.80
16:16:07.328125,32.75
16:16:07.343750,42.44
16:16:07.359375,49.37
16:16:07.375000,54.79
16:16:07.390625,59.41
16:16:07.406250,63.33
16:16:07.421875,66.42
16:16:07.437500,68.60
16:16:07.453125,69.96
16:16:07.468750,70.69
16:16:07.484375,71.00
16:16:07.500000,70.99
16:16:07.515625,70.65
16:16:07.531250,69.91
16:16:07.546875,68.70
16:16:07.562500,67.02
16:16:07.578125,64.91
16:16:07.593750,62.41
16:16:07.609375,59.53
16:16:07.625000,56.28
16:16:07.640625,52.64
16:16:07.656250,48.62
16:16:07.671875,44.26
16:16:07.687500,39.65
16:16:07.703125,34.89
16:16:07.718750,30.06
16:16:07.734375,25.24
16:16:07.750000,20.45
16:16:07.765625,15.68
16:16:07.781250,10.89
16:16:07.796875,6.01
16:16:07.812500,0.99
16:16:07.828125,-4.18
16:16:07.843750,-9.44
16:16:07.859375,-14.70
16:16:07.875000,-19.88
16:16:07.890625,-24.91
16:16:07.906250,-29.72
16:16:07.921875,-34.20
16:16:07.937500,-38.26
16:16:07.953125,-41.79
16:16:07.968750,-44.85
16:16:07.984375,-47.69
16:16:08,-50.78
16:16:08.015625,-54.72
16:16:08.031250,-60.12
16:16:08.046875,-67.42
16:16:08.062500,-76.68
16:16:08.078125,-87.36
16:16:08.093750,-98.11
16:16:08.109375,-106.80
16:16:08.125000,-110.88
16:16:08.140625,-108.16
16:16:08.156250,-97.68
16:16:08.171875,-80.23
16:16:08.187500,-58.33
16:16:08.203125,-35.42
16:16:08.218750,-14.72
16:16:08.234375,1.69
16:16:08.250000,13.35
16:16:08.265625,21.03
16:16:08.281250,26.07
16:16:08.296875,29.67
16:16:08.312500,32.51
16:16:08.328125,34.81
16:16:08.343750,36.57
16:16:08.359375,37.88
16:16:08.375000,38.92
16:16:08.390625,39.93
16:16:08.406250,41.07
16:16:08.421875,42.29
16:16:08.437500,43.39
16:16:08.453125,44.06
16:16:08.468750,44.02
16:16:08.484375,43.17
16:16:08.500000,41.57
16:16:08.515625,39.43
16:16:08.531250,37.04
16:16:08.546875,34.56
16:16:08.562500,32.01
16:16:08.578125,29.26
16:16:08.593750,26.12
16:16:08.609375,22.43
16:16:08.625000,18.20
16:16:08.640625,13.61
16:16:08.656250,9.00
16:16:08.671875,4.73
16:16:08.687500,1.09
16:16:08.703125,-1.81
16:16:08.718750,-4.02
16:16:08.734375,-5.79
16:16:08.750000,-7.46
16:16:08.765625,-9.39
16:16:08.781250,-11.92
16:16:08.796875,-15.27
16:16:08.812500,-19.51
16:16:08.828125,-24.46
16:16:08.843750,-29.73
16:16:08.859375,-34.79
16:16:08.875000,-39.14
16:16:08.890625,-42.51
16:16:08.906250,-45.00
16:16:08.921875,-47.05
16:16:08.937500,-49.33
16:16:08.953125,-52.53
16:16:08.968750,-57.13
16:16:08.984375,-63.11
16:16:09,-69.85
16:16:09.015625,-75.99
16:16:09.031250,-79.61
16:16:09.046875,-78.74
16:16:09.062500,-71.99
16:16:09.078125,-59.21
16:16:09.093750,-41.81
16:16:09.109375,-22.34
16:16:09.125000,-3.74
16:16:09.140625,11.62
16:16:09.156250,22.63
16:16:09.171875,29.50
16:16:09.187500,33.33
16:16:09.203125,35.39
16:16:09.218750,36.56
16:16:09.234375,37.22
16:16:09.250000,37.35
16:16:09.265625,36.93
16:16:09.281250,36.06
16:16:09.296875,35.07
16:16:09.312500,34.31
16:16:09.328125,34.01
16:16:09.343750,34.18
16:16:09.359375,34.57
16:16:09.375000,34.82
16:16:09.390625,34.62
16:16:09.406250,33.82
16:16:09.421875,32.48
16:16:09.437500,30.77
16:16:09.453125,28.88
16:16:09.468750,26.89
16:16:09.484375,24.66
16:16:09.500000,21.97
16:16:09.515625,18.63
16:16:09.531250,14.62
16:16:09.546875,10.16
16:16:09.562500,5.68
16:16:09.578125,1.59
16:16:09.593750,-1.81
16:16:09.609375,-4.46
16:16:09.625000,-6.49
16:16:09.640625,-8.07
16:16:09.656250,-9.36
16:16:09.671875,-10.45
16:16:09.687500,-11.46
16:16:09.703125,-12.49
16:16:09.718750,-13.70
16:16:09.734375,-15.16
16:16:09.750000,-16.84
16:16:09.765625,-18.55
16:16:09.781250,-20.15
16:16:09.796875,-21.58
16:16:09.812500,-23.05
16:16:09.828125,-25.00
16:16:09.843750,-27.97
16:16:09.859375,-32.51
16:16:09.875000,-38.95
16:16:09.890625,-47.24
16:16:09.906250,-56.73
16:16:09.921875,-66.09
16:16:09.937500,-73.35
16:16:09.953125,-76.38
16:16:09.968750,-73.51
16:16:09.984375,-64.30
16:16:10,-49.80
16:16:10.015625,-32.39
16:16:10.031250,-14.95
16:16:10.046875,0.04
16:16:10.062500,11.24
16:16:10.078125,18.62
16:16:10.093750,23.10
16:16:10.109375,25.86
16:16:10.125000,27.86
16:16:10.140625,29.50
16:16:10.156250,30.79
16:16:10.171875,31.57
16:16:10.187500,31.80
16:16:10.203125,31.61
16:16:10.218750,31.25
16:16:10.234375,30.93
16:16:10.250000,30.70
16:16:10.265625,30.38
16:16:10.281250,29.70
16:16:10.296875,28.46
16:16:10.312500,26.62
16:16:10.328125,24.43
16:16:10.343750,22.23
16:16:10.359375,20.37
16:16:10.375000,18.96
16:16:10.390625,17.83
16:16:10.406250,16.59
16:16:10.421875,14.85
16:16:10.437500,12.40
16:16:10.453125,9.35
16:16:10.468750,6.11
16:16:10.484375,3.18
16:16:10.500000,1.04
16:16:10.515625,-0.12
16:16:10.531250,-0.45
16:16:10.546875,-0.38
16:16:10.562500,-0.50
16:16:10.578125,-1.38
16:16:10.593750,-3.35
16:16:10.609375,-6.45
16:16:10.625000,-10.43
16:16:10.640625,-14.81
16:16:10.656250,-19.08
16:16:10.671875,-22.88
16:16:10.687500,-26.08
16:16:10.703125,-28.83
16:16:10.718750,-31.51
16:16:10.734375,-34.60
16:16:10.750000,-38.60
16:16:10.765625,-43.88
16:16:10.781250,-50.45
16:16:10.796875,-57.82
16:16:10.812500,-64.85
16:16:10.828125,-69.83
16:16:10.843750,-70.92
16:16:10.859375,-66.76
16:16:10.875000,-57.09
16:16:10.890625,-43.03
16:16:10.906250,-26.81
16:16:10.921875,-10.96
16:16:10.937500,2.46
16:16:10.953125,12.52
16:16:10.968750,19.40
16:16:10.984375,23.99
16:16:11,27.19
16:16:11.015625,29.52
16:16:11.031250,31.03
16:16:11.046875,31.55
16:16:11.062500,31.06
16:16:11.078125,29.88
16:16:11.093750,28.59
16:16:11.109375,27.77
16:16:11.125000,27.73
16:16:11.140625,28.32
16:16:11.156250,29.05
16:16:11.171875,29.37
16:16:11.187500,28.90
16:16:11.203125,27.65
16:16:11.218750,25.96
16:16:11.234375,24.35
16:16:11.250000,23.14
16:16:11.265625,22.36
16:16:11.281250,21.69
16:16:11.296875,20.61
16:16:11.312500,18.69
16:16:11.328125,15.82
16:16:11.343750,12.20
16:16:11.359375,8.31
16:16:11.375000,4.71
16:16:11.390625,1.80
16:16:11.406250,-0.31
16:16:11.421875,-1.88
16:16:11.437500,-3.37
16:16:11.453125,-5.39
16:16:11.468750,-8.34
16:16:11.484375,-12.32
16:16:11.500000,-17.06
16:16:11.515625,-21.98
16:16:11.531250,-26.51
16:16:11.546875,-30.31
16:16:11.562500,-33.42
16:16:11.578125,-36.25
16:16:11.593750,-39.38
16:16:11.609375,-43.38
16:16:11.625000,-48.62
16:16:11.640625,-55.17
16:16:11.656250,-62.70
16:16:11.671875,-70.40
16:16:11.687500,-76.91
16:16:11.703125,-80.52
16:16:11.718750,-79.62
16:16:11.734375,-73.28
16:16:11.750000,-61.80
16:16:11.765625,-46.75
16:16:11.781250,-30.60
16:16:11.796875,-15.81
16:16:11.812500,-4.07
16:16:11.828125,4.14
16:16:11.843750,9.38
16:16:11.859375,12.71
16:16:11.875000,14.99
16:16:11.890625,16.61
16:16:11.906250,17.49
16:16:11.921875,17.49
16:16:11.937500,16.76
16:16:11.953125,15.83
16:16:11.968750,15.56
16:16:11.984375,16.70
16:16:12,19.63
16:16:12.015625,24.21
16:16:12.031250,29.84
16:16:12.046875,35.78
16:16:12.062500,41.34
16:16:12.078125,46.19
16:16:12.093750,50.23
16:16:12.109375,53.54
16:16:12.125000,56.21
16:16:12.140625,58.19
16:16:12.156250,59.34
16:16:12.171875,59.54
16:16:12.187500,58.80
16:16:12.203125,57.30
16:16:12.218750,55.48
16:16:12.234375,53.78
16:16:12.250000,52.58
16:16:12.265625,51.92
16:16:12.281250,51.44
16:16:12.296875,50.44
16:16:12.312500,48.06
16:16:12.328125,43.62
16:16:12.343750,36.87
16:16:12.359375,28.17
16:16:12.375000,18.36
16:16:12.390625,8.47
16:16:12.406250,-0.71
16:16:12.421875,-8.90
16:16:12.437500,-16.40
16:16:12.453125,-23.92
16:16:12.468750,-32.23
16:16:12.484375,-41.82
16:16:12.500000,-52.68
16:16:12.515625,-64.17
16:16:12.531250,-74.99
16:16:12.546875,-83.28
16:16:12.562500,-86.92
16:16:12.578125,-84.03
16:16:12.593750,-73.60
16:16:12.609375,-56.00
16:16:12.625000,-33.13
16:16:12.640625,-8.05
16:16:12.656250,15.89
16:16:12.671875,35.96
16:16:12.687500,50.75
16:16:12.703125,60.37
16:16:12.718750,65.98
16:16:12.734375,69.11
16:16:12.750000,70.98
16:16:12.765625,72.08
16:16:12.781250,72.26
16:16:12.796875,71.04
16:16:12.812500,67.95
16:16:12.828125,62.81
16:16:12.843750,55.77
16:16:12.859375,47.18
16:16:12.875000,37.39
16:16:12.890625,26.71
16:16:12.906250,15.42
16:16:12.921875,3.93
16:16:12.937500,-7.14
16:16:12.953125,-16.93
16:16:12.968750,-24.57
16:16:12.984375,-29.31
16:16:13,-30.76
16:16:13.015625,-28.87
16:16:13.031250,-23.95
16:16:13.046875,-16.62
16:16:13.062500,-7.72
16:16:13.078125,1.70
16:16:13.093750,10.52
16:16:13.109375,17.68
16:16:13.125000,22.40
16:16:13.140625,24.30
16:16:13.156250,23.49
16:16:13.171875,20.32
16:16:13.187500,15.22
16:16:13.203125,8.42
16:16:13.218750,-0.04
16:16:13.234375,-10.34
16:16:13.250000,-22.65
16:16:13.265625,-36.93
16:16:13.281250,-52.86
16:16:13.296875,-69.57
16:16:13.312500,-85.64
16:16:13.328125,-99.09
16:16:13.343750,-107.69
16:16:13.359375,-109.61
16:16:13.375000,-104.16
16:16:13.390625,-92.36
16:16:13.406250,-76.96
16:16:13.421875,-61.71
16:16:13.437500,-50.17
16:16:13.453125,-44.38
16:16:13.468750,-44.24
16:16:13.484375,-47.64
16:16:13.500000,-51.43
16:16:13.515625,-52.61
16:16:13.531250,-49.42
16:16:13.546875,-41.61
16:16:13.562500,-30.21
16:16:13.578125,-16.85
16:16:13.593750,-3.08
16:16:13.609375,10.09
16:16:13.625000,22.24
16:16:13.640625,33.40
16:16:13.656250,43.79
16:16:13.671875,53.48
16:16:13.687500,62.25
16:16:13.703125,69.50
16:16:13.718750,74.34
16:16:13.734375,75.87
16:16:13.750000,73.46
16:16:13.765625,67.01
16:16:13.781250,57.12
16:16:13.796875,45.03
16:16:13.812500,32.36
16:16:13.828125,20.76
16:16:13.843750,11.48
16:16:13.859375,5.00
16:16:13.875000,0.85
16:16:13.890625,-2.31
16:16:13.906250,-6.49
16:16:13.921875,-13.74
16:16:13.937500,-25.55
16:16:13.953125,-42.10
16:16:13.968750,-61.98
16:16:13.984375,-82.38
16:16:14,-99.89
16:16:14.015625,-111.68
16:16:14.031250,-116.52
16:16:14.046875,-115.18
16:16:14.062500,-109.92
16:16:14.078125,-103.40
16:16:14.093750,-97.29
16:16:14.109375,-91.57
16:16:14.125000,-84.62
16:16:14.140625,-74.17
16:16:14.156250,-58.53
16:16:14.171875,-37.45
16:16:14.187500,-12.30
16:16:14.203125,14.52
16:16:14.218750,40.39
16:16:14.234375,63.20
16:16:14.250000,81.68
16:16:14.265625,95.25
16:16:14.281250,103.76
16:16:14.296875,107.36
16:16:14.312500,106.43
16:16:14.328125,101.83
16:16:14.343750,95.03
16:16:14.359375,87.97
16:16:14.375000,82.70
16:16:14.390625,80.86
16:16:14.406250,83.07
16:16:14.421875,88.76
16:16:14.437500,96.28
16:16:14.453125,103.45
16:16:14.468750,108.24
16:16:14.484375,109.40
16:16:14.500000,106.84
16:16:14.515625,101.55
16:16:14.531250,95.35
16:16:14.546875,90.25
16:16:14.562500,88.01
16:16:14.578125,89.82
16:16:14.593750,96.17
16:16:14.609375,106.93
16:16:14.625000,121.60
16:16:14.640625,139.49
16:16:14.656250,159.85
16:16:14.671875,181.98
16:16:14.687500,205.16
16:16:14.703125,228.70
16:16:14.718750,251.93
16:16:14.734375,274.21
16:16:14.750000,294.96
16:16:14.765625,313.56
16:16:14.781250,329.23
16:16:14.796875,340.89
16:16:14.812500,347.16
16:16:14.828125,346.66
16:16:14.843750,338.49
16:16:14.859375,322.71
16:16:14.875000,300.59
16:16:14.890625,274.37
16:16:14.906250,246.65
16:16:14.921875,219.55
16:16:14.937500,193.97
16:16:14.953125,169.51
16:16:14.968750,144.85
16:16:14.984375,118.53
16:16:15,89.78
16:16:15.015625,58.79
16:16:15.031250,26.54
16:16:15.046875,-5.73
16:16:15.062500,-37.14
16:16:15.078125,-67.51
16:16:15.093750,-97.34
16:16:15.109375,-127.73
16:16:15.125000,-160.32
16:16:15.140625,-197.13
16:16:15.156250,-239.97
16:16:15.171875,-289.16
16:16:15.187500,-341.99
16:16:15.203125,-391.88
16:16:15.218750,-429.20
16:16:15.234375,-444.00
16:16:15.250000,-429.67
16:16:15.265625,-385.61
16:16:15.281250,-317.80
16:16:15.296875,-236.81
16:16:15.312500,-154.48
16:16:15.328125,-80.80
16:16:15.343750,-22.32
16:16:15.359375,17.80
16:16:15.375000,39.02
16:16:15.390625,42.51
16:16:15.406250,30.96
16:16:15.421875,8.37
16:16:15.437500,-20.37
16:16:15.453125,-50.52
16:16:15.468750,-78.75
16:16:15.484375,-103.91
16:16:15.500000,-127.11
16:16:15.515625,-150.90
16:16:15.531250,-178.08
16:16:15.546875,-210.36
16:16:15.562500,-247.42
16:16:15.578125,-286.63
16:16:15.593750,-323.52
16:16:15.609375,-353.04
16:16:15.625000,-371.12
16:16:15.640625,-375.97
16:16:15.656250,-368.39
16:16:15.671875,-351.22
16:16:15.687500,-328.05
16:16:15.703125,-302.12
16:16:15.718750,-275.70
16:16:15.734375,-250.24
16:16:15.750000,-226.88
16:16:15.765625,-206.72
16:16:15.781250,-190.66
16:16:15.796875,-178.84
16:16:15.812500,-170.23
16:16:15.828125,-162.63
16:16:15.843750,-153.27
16:16:15.859375,-139.70
16:16:15.875000,-120.61
16:16:15.890625,-96.09
16:16:15.906250,-67.23
16:16:15.921875,-35.46
16:16:15.937500,-1.92
16:16:15.953125,32.73
16:16:15.968750,67.89
16:16:15.984375,102.47
16:16:16,134.43
16:16:16.015625,160.89
16:16:16.031250,178.85
16:16:16.046875,186.11
16:16:16.062500,182.13
16:16:16.078125,168.32
16:16:16.093750,147.80
16:16:16.109375,124.66
16:16:16.125000,102.90
16:16:16.140625,85.60
16:16:16.156250,74.36
16:16:16.171875,69.20
16:16:16.187500,68.85
16:16:16.203125,71.31
16:16:16.218750,74.48
16:16:16.234375,76.60
16:16:16.250000,76.49
16:16:16.265625,73.57
16:16:16.281250,67.93
16:16:16.296875,60.19
16:16:16.312500,51.49
16:16:16.328125,43.21
16:16:16.343750,36.63
16:16:16.359375,32.52
16:16:16.375000,30.78
16:16:16.390625,30.33
16:16:16.406250,29.54
16:16:16.421875,26.84
16:16:16.437500,21.64
16:16:16.453125,14.82
16:16:16.468750,8.83
16:16:16.484375,7.02
16:16:16.500000,12.47
16:16:16.515625,26.87
16:16:16.531250,49.70
16:16:16.546875,78.35
16:16:16.562500,108.93
16:16:16.578125,137.62
16:16:16.593750,161.83
16:16:16.609375,180.81
16:16:16.625000,195.70
16:16:16.640625,208.89
16:16:16.656250,223.14
16:16:16.671875,240.58
16:16:16.687500,261.63
16:16:16.703125,284.33
16:16:16.718750,304.45
16:16:16.734375,316.44
16:16:16.750000,315.18
16:16:16.765625,297.79
16:16:16.781250,264.75
16:16:16.796875,219.46
16:16:16.812500,166.95
16:16:16.828125,111.82
16:16:16.843750,56.81
16:16:16.859375,2.44
16:16:16.875000,-52.49
16:16:16.890625,-110.10
16:16:16.906250,-172.72
16:16:16.921875,-242.21
16:16:16.937500,-318.97
16:16:16.953125,-400.58
16:16:16.968750,-481.07
16:16:16.984375,-551.33
16:16:17,-601.23
16:16:17.015625,-622.81
16:16:17.031250,-613.05
16:16:17.046875,-575.06
16:16:17.062500,-517.11
16:16:17.078125,-450.04
16:16:17.093750,-384.28
16:16:17.109375,-327.70
16:16:17.125000,-284.68
16:16:17.140625,-256.23
16:16:17.156250,-240.70
16:16:17.171875,-234.53
16:16:17.187500,-233.16
16:16:17.203125,-231.83
16:16:17.218750,-226.47
16:16:17.234375,-214.18
16:16:17.250000,-193.59
16:16:17.265625,-164.67
16:16:17.281250,-128.60
16:16:17.296875,-87.79
16:16:17.312500,-45.53
16:16:17.328125,-5.42
16:16:17.343750,29.47
16:16:17.359375,57.63
16:16:17.375000,79.50
16:16:17.390625,97.10
16:16:17.406250,113.02
16:16:17.421875,129.10
16:16:17.437500,145.61
16:16:17.453125,161.28
16:16:17.468750,174.12
16:16:17.484375,182.53
16:16:17.500000,186.05
16:16:17.515625,185.58
16:16:17.531250,182.80
16:16:17.546875,179.43
16:16:17.562500,176.55
16:16:17.578125,174.35
16:16:17.593750,172.32
16:16:17.609375,169.63
16:16:17.625000,165.60
16:16:17.640625,159.88
16:16:17.656250,152.55
16:16:17.671875,143.98
16:16:17.687500,134.75
16:16:17.703125,125.49
16:16:17.718750,116.74
16:16:17.734375,109.00
16:16:17.750000,102.62
16:16:17.765625,97.76
16:16:17.781250,94.26
16:16:17.796875,91.57
16:16:17.812500,88.72
16:16:17.828125,84.65
16:16:17.843750,78.58
16:16:17.859375,70.40
16:16:17.875000,60.77
16:16:17.890625,50.89
16:16:17.906250,41.90
16:16:17.921875,34.35
16:16:17.937500,27.85
16:16:17.953125,21.12
16:16:17.968750,12.43
16:16:17.984375,0.19
16:16:18,-16.30
16:16:18.015625,-36.35
16:16:18.031250,-57.78
16:16:18.046875,-77.43
16:16:18.062500,-92.14
16:16:18.078125,-99.96
16:16:18.093750,-100.94
16:16:18.109375,-97.16
16:16:18.125000,-91.76
16:16:18.140625,-87.23
16:16:18.156250,-83.88
16:16:18.171875,-79.10
16:16:18.187500,-67.89
16:16:18.203125,-44.64
16:16:18.218750,-5.51
16:16:18.234375,49.79
16:16:18.250000,117.10
16:16:18.265625,188.52
16:16:18.281250,254.20
16:16:18.296875,304.76
16:16:18.312500,333.18
16:16:18.328125,336.16
16:16:18.343750,314.96
16:16:18.359375,275.69
16:16:18.375000,228.97
16:16:18.390625,187.90
16:16:18.406250,164.49
16:16:18.421875,165.49
16:16:18.437500,189.27
16:16:18.453125,225.89
16:16:18.468750,260.58
16:16:18.484375,279.29
16:16:18.500000,273.40
16:16:18.515625,241.90
16:16:18.531250,190.14
16:16:18.546875,126.88
16:16:18.562500,61.37
16:16:18.578125,1.58
16:16:18.593750,-46.36
16:16:18.609375,-78.75
16:16:18.625000,-94.93
16:16:18.640625,-97.83
16:16:18.656250,-93.42
16:16:18.671875,-88.58
16:16:18.687500,-88.37
16:16:18.703125,-94.15
16:16:18.718750,-103.83
16:16:18.734375,-113.70
16:16:18.750000,-120.69
16:16:18.765625,-123.68
16:16:18.781250,-123.42
16:16:18.796875,-121.38
16:16:18.812500,-118.78
16:16:18.828125,-116.37
16:16:18.843750,-114.90
16:16:18.859375,-115.57
16:16:18.875000,-119.59
16:16:18.890625,-127.45
16:16:18.906250,-138.11
16:16:18.921875,-148.71
16:16:18.937500,-155.40
16:16:18.953125,-154.81
16:16:18.968750,-145.52
16:16:18.984375,-128.68
16:16:19,-107.51
16:16:19.015625,-85.93
16:16:19.031250,-66.97
16:16:19.046875,-51.75
16:16:19.062500,-39.48
16:16:19.078125,-28.32
16:16:19.093750,-16.50
16:16:19.109375,-3.32
16:16:19.125000,10.72
16:16:19.140625,24.19
16:16:19.156250,35.61
16:16:19.171875,43.99
16:16:19.187500,49.28
16:16:19.203125,52.25
16:16:19.218750,54.06
16:16:19.234375,55.74
16:16:19.250000,57.74
16:16:19.265625,59.85
16:16:19.281250,61.45
16:16:19.296875,61.90
16:16:19.312500,60.99
16:16:19.328125,59.00
16:16:19.343750,56.62
16:16:19.359375,54.49
16:16:19.375000,52.94
16:16:19.390625,51.75
16:16:19.406250,50.35
16:16:19.421875,48.10
16:16:19.437500,44.59
16:16:19.453125,39.88
16:16:19.468750,34.39
16:16:19.484375,28.75
16:16:19.500000,23.49
16:16:19.515625,18.79
16:16:19.531250,14.49
16:16:19.546875,10.13
16:16:19.562500,5.17
16:16:19.578125,-0.72
16:16:19.593750,-7.51
16:16:19.609375,-14.80
16:16:19.625000,-21.97
16:16:19.640625,-28.48
16:16:19.656250,-34.09
16:16:19.671875,-38.91
16:16:19.687500,-43.41
16:16:19.703125,-48.26
16:16:19.718750,-54.20
16:16:19.734375,-61.86
16:16:19.750000,-71.49
16:16:19.765625,-82.68
16:16:19.781250,-94.20
16:16:19.796875,-104.05
16:16:19.812500,-109.97
16:16:19.828125,-110.07
16:16:19.843750,-103.51
16:16:19.859375,-90.83
16:16:19.875000,-73.74
16:16:19.890625,-54.51
16:16:19.906250,-35.29
16:16:19.921875,-17.58
16:16:19.937500,-2.13
16:16:19.953125,10.88
16:16:19.968750,21.64
16:16:19.984375,30.41
16:16:20,37.53
16:16:20.015625,43.36
16:16:20.031250,48.31
16:16:20.046875,52.66
16:16:20.062500,56.59
16:16:20.078125,60.07
16:16:20.093750,62.93
16:16:20.109375,64.99
16:16:20.125000,66.14
16:16:20.140625,66.43
16:16:20.156250,66.04
16:16:20.171875,65.24
16:16:20.187500,64.30
16:16:20.203125,63.43
16:16:20.218750,62.63
16:16:20.234375,61.81
16:16:20.250000,60.70
16:16:20.265625,58.99
16:16:20.281250,56.41
16:16:20.296875,52.85
16:16:20.312500,48.43
16:16:20.328125,43.49
16:16:20.343750,38.51
16:16:20.359375,33.97
16:16:20.375000,30.15
16:16:20.390625,27.03
16:16:20.406250,24.34
16:16:20.421875,21.61
16:16:20.437500,18.39
16:16:20.453125,14.36
16:16:20.468750,9.40
16:16:20.484375,3.65
16:16:20.500000,-2.62
16:16:20.515625,-8.99
16:16:20.531250,-15.08
16:16:20.546875,-20.56
16:16:20.562500,-25.30
16:16:20.578125,-29.36
16:16:20.593750,-32.99
16:16:20.609375,-36.56
16:16:20.625000,-40.58
16:16:20.640625,-45.65
16:16:20.656250,-52.44
16:16:20.671875,-61.30
16:16:20.687500,-71.91
16:16:20.703125,-82.98
16:16:20.718750,-92.31
16:16:20.734375,-97.46
16:16:20.750000,-96.61
16:16:20.765625,-89.37
16:16:20.781250,-76.99
16:16:20.796875,-61.89
16:16:20.812500,-46.59
16:16:20.828125,-32.84
16:16:20.843750,-21.20
16:16:20.859375,-11.25
16:16:20.875000,-2.33
16:16:20.890625,5.91
16:16:20.906250,13.30
16:16:20.921875,19.32
16:16:20.937500,23.64
16:16:20.953125,26.38
16:16:20.968750,28.18
16:16:20.984375,29.84
16:16:21,31.92
16:16:21.015625,34.50
16:16:21.031250,37.13
16:16:21.046875,39.14
16:16:21.062500,39.99
16:16:21.078125,39.62
16:16:21.093750,38.46
16:16:21.109375,37.19
16:16:21.125000,36.43
16:16:21.140625,36.31
16:16:21.156250,36.52
16:16:21.171875,36.41
16:16:21.187500,35.44
16:16:21.203125,33.44
16:16:21.218750,30.70
16:16:21.234375,27.76
16:16:21.250000,25.11
16:16:21.265625,22.91
16:16:21.281250,20.89
16:16:21.296875,18.53
16:16:21.312500,15.37
16:16:21.328125,11.31
16:16:21.343750,6.74
16:16:21.359375,2.33
16:16:21.375000,-1.29
16:16:21.390625,-3.84
16:16:21.406250,-5.65
16:16:21.421875,-7.46
16:16:21.437500,-10.04
16:16:21.453125,-13.86
16:16:21.468750,-18.74
16:16:21.484375,-24.05
16:16:21.500000,-28.98
16:16:21.515625,-32.97
16:16:21.531250,-35.97
16:16:21.546875,-38.35
16:16:21.562500,-40.75
16:16:21.578125,-43.79
16:16:21.593750,-48.03
16:16:21.609375,-53.91
16:16:21.625000,-61.57
16:16:21.640625,-70.62
16:16:21.656250,-79.88
16:16:21.671875,-87.48
16:16:21.687500,-91.28
16:16:21.703125,-89.69
16:16:21.718750,-82.28
16:16:21.734375,-70.05
16:16:21.750000,-55.04
16:16:21.765625,-39.49
16:16:21.781250,-25.09
16:16:21.796875,-12.58
16:16:21.812500,-1.84
16:16:21.828125,7.54
16:16:21.843750,15.81
16:16:21.859375,22.92
16:16:21.875000,28.60
16:16:21.890625,32.70
16:16:21.906250,35.40
16:16:21.921875,37.16
16:16:21.937500,38.53
16:16:21.953125,39.90
16:16:21.968750,41.33
16:16:21.984375,42.64
16:16:22,43.55
16:16:22.015625,43.90
16:16:22.031250,43.73
16:16:22.046875,43.24
16:16:22.062500,42.71
16:16:22.078125,42.30
16:16:22.093750,42.00
16:16:22.109375,41.64
16:16:22.125000,40.94
16:16:22.140625,39.60
16:16:22.156250,37.46
16:16:22.171875,34.58
16:16:22.187500,31.26
16:16:22.203125,27.99
16:16:22.218750,25.19
16:16:22.234375,22.99
16:16:22.250000,21.12
16:16:22.265625,19.01
16:16:22.281250,16.09
16:16:22.296875,12.18
16:16:22.312500,7.55
16:16:22.328125,2.89
16:16:22.343750,-1.11
16:16:22.359375,-4.03
16:16:22.375000,-5.96
16:16:22.390625,-7.37
16:16:22.406250,-8.92
16:16:22.421875,-11.09
16:16:22.437500,-14.08
16:16:22.453125,-17.81
16:16:22.468750,-21.95
16:16:22.484375,-26.17
16:16:22.500000,-30.10
16:16:22.515625,-33.45
16:16:22.531250,-36.07
16:16:22.546875,-38.07
16:16:22.562500,-40.02
16:16:22.578125,-42.87
16:16:22.593750,-47.69
16:16:22.609375,-55.08
16:16:22.625000,-64.60
16:16:22.640625,-74.54
16:16:22.656250,-82.35
16:16:22.671875,-85.51
16:16:22.687500,-82.58
16:16:22.703125,-73.81
16:16:22.718750,-61.03
16:16:22.734375,-46.80
16:16:22.750000,-33.38
16:16:22.765625,-21.97
16:16:22.781250,-12.63
16:16:22.796875,-4.72
16:16:22.812500,2.37
16:16:22.828125,8.84
16:16:22.843750,14.41
16:16:22.859375,18.69
16:16:22.875000,21.57
16:16:22.890625,23.34
16:16:22.906250,24.57
16:16:22.921875,25.82
16:16:22.937500,27.37
16:16:22.953125,29.10
16:16:22.968750,30.74
16:16:22.984375,32.03
16:16:23,32.95
16:16:23.015625,33.68
16:16:23.031250,34.48
16:16:23.046875,35.40
16:16:23.062500,36.29
16:16:23.078125,36.80
16:16:23.093750,36.61
16:16:23.109375,35.56
16:16:23.125000,33.77
16:16:23.140625,31.56
16:16:23.156250,29.28
16:16:23.171875,27.23
16:16:23.187500,25.55
16:16:23.203125,24.23
16:16:23.218750,23.15
16:16:23.234375,22.11
16:16:23.250000,20.80
16:16:23.265625,18.98
16:16:23.281250,16.46
16:16:23.296875,13.24
16:16:23.312500,9.52
16:16:23.328125,5.70
16:16:23.343750,2.19
16:16:23.359375,-0.73
16:16:23.375000,-3.10
16:16:23.390625,-5.28
16:16:23.406250,-7.86
16:16:23.421875,-11.39
16:16:23.437500,-16.04
16:16:23.453125,-21.55
16:16:23.468750,-27.23
16:16:23.484375,-32.32
16:16:23.500000,-36.30
16:16:23.515625,-39.19
16:16:23.531250,-41.58
16:16:23.546875,-44.50
16:16:23.562500,-49.13
16:16:23.578125,-56.21
16:16:23.593750,-65.70
16:16:23.609375,-76.37
16:16:23.625000,-86.08
16:16:23.640625,-92.25
16:16:23.656250,-92.76
16:16:23.671875,-86.75
16:16:23.687500,-74.99
16:16:23.703125,-59.57
16:16:23.718750,-43.12
16:16:23.734375,-27.86
16:16:23.750000,-14.94
16:16:23.765625,-4.47
16:16:23.781250,4.08
16:16:23.796875,11.28
16:16:23.812500,17.34
16:16:23.828125,22.16
16:16:23.843750,25.56
16:16:23.859375,27.58
16:16:23.875000,28.56
16:16:23.890625,29.06
16:16:23.906250,29.60
16:16:23.921875,30.43
16:16:23.937500,31.47
16:16:23.953125,32.39
16:16:23.968750,32.85
16:16:23.984375,32.68
16:16:24,32.01
16:16:24.015625,31.23
16:16:24.031250,30.80
16:16:24.046875,30.99
16:16:24.062500,31.72
16:16:24.078125,32.61
16:16:24.093750,33.04
16:16:24.109375,32.55
16:16:24.125000,30.99
16:16:24.140625,28.63
16:16:24.156250,25.97
16:16:24.171875,23.49
16:16:24.187500,21.37
16:16:24.203125,19.47
16:16:24.218750,17.39
16:16:24.234375,14.75
16:16:24.250000,11.42
16:16:24.265625,7.64
16:16:24.281250,3.94
16:16:24.296875,0.84
16:16:24.312500,-1.36
16:16:24.328125,-2.79
16:16:24.343750,-3.95
16:16:24.359375,-5.47
16:16:24.375000,-7.85
16:16:24.390625,-11.22
16:16:24.406250,-15.30
16:16:24.421875,-19.55
16:16:24.437500,-23.40
16:16:24.453125,-26.51
16:16:24.468750,-28.88
16:16:24.484375,-30.83
16:16:24.500000,-33.04
16:16:24.515625,-36.32
16:16:24.531250,-41.55
16:16:24.546875,-49.25
16:16:24.562500,-59.26
16:16:24.578125,-70.39
16:16:24.593750,-80.52
16:16:24.609375,-87.07
16:16:24.625000,-87.90
16:16:24.640625,-82.09
16:16:24.656250,-70.31
16:16:24.671875,-54.53
16:16:24.687500,-37.27
16:16:24.703125,-20.72
16:16:24.718750,-6.22
16:16:24.734375,5.79
16:16:24.750000,15.47
16:16:24.765625,23.13
16:16:24.781250,29.02
16:16:24.796875,33.27
16:16:24.812500,36.09
16:16:24.828125,37.84
16:16:24.843750,38.95
16:16:24.859375,39.87
16:16:24.875000,40.89
16:16:24.890625,42.08
16:16:24.906250,43.35
16:16:24.921875,44.55
16:16:24.937500,45.58
16:16:24.953125,46.48
16:16:24.968750,47.32
16:16:24.984375,48.20
16:16:25,49.08
16:16:25.015625,49.81
16:16:25.031250,50.13
16:16:25.046875,49.73
16:16:25.062500,48.39
16:16:25.078125,46.05
16:16:25.093750,42.85
16:16:25.109375,39.05
16:16:25.125000,35.05
16:16:25.140625,31.22
16:16:25.156250,27.81
16:16:25.171875,24.89
16:16:25.187500,22.28
16:16:25.203125,19.63
16:16:25.218750,16.58
16:16:25.234375,12.93
16:16:25.250000,8.78
16:16:25.265625,4.45
16:16:25.281250,0.33
16:16:25.296875,-3.33
16:16:25.312500,-6.63
16:16:25.328125,-9.94
16:16:25.343750,-13.74
16:16:25.359375,-18.34
16:16:25.375000,-23.73
16:16:25.390625,-29.55
16:16:25.406250,-35.24
16:16:25.421875,-40.31
16:16:25.437500,-44.51
16:16:25.453125,-47.90
16:16:25.468750,-50.80
16:16:25.484375,-53.72
16:16:25.500000,-57.33
16:16:25.515625,-62.39
16:16:25.531250,-69.50
16:16:25.546875,-78.73
16:16:25.562500,-89.19
16:16:25.578125,-98.89
16:16:25.593750,-105.13
16:16:25.609375,-105.43
16:16:25.625000,-98.44
16:16:25.640625,-84.62
16:16:25.656250,-66.11
16:16:25.671875,-45.95
16:16:25.687500,-26.91
16:16:25.703125,-10.68
16:16:25.718750,2.44
16:16:25.734375,13.04
16:16:25.750000,21.95
16:16:25.765625,29.64
16:16:25.781250,36.05
16:16:25.796875,40.98
16:16:25.812500,44.34
16:16:25.828125,46.48
16:16:25.843750,48.03
16:16:25.859375,49.58
16:16:25.875000,51.40
16:16:25.890625,53.27
16:16:25.906250,54.74
16:16:25.921875,55.37
16:16:25.937500,55.04
16:16:25.953125,53.93
16:16:25.968750,52.46
16:16:25.984375,50.95
16:16:26,49.45
16:16:26.015625,47.80
16:16:26.031250,45.68
16:16:26.046875,42.87
16:16:26.062500,39.31
16:16:26.078125,35.20
16:16:26.093750,30.84
16:16:26.109375,26.58
16:16:26.125000,22.68
16:16:26.140625,19.23
16:16:26.156250,16.14
16:16:26.171875,13.15
16:16:26.187500,10.04
16:16:26.203125,6.71
16:16:26.218750,3.30
16:16:26.234375,0.08
16:16:26.250000,-2.69
16:16:26.265625,-4.97
16:16:26.281250,-7.07
16:16:26.296875,-9.52
16:16:26.312500,-12.88
16:16:26.328125,-17.43
16:16:26.343750,-23.04
16:16:26.359375,-29.22
16:16:26.375000,-35.27
16:16:26.390625,-40.64
16:16:26.406250,-45.06
16:16:26.421875,-48.67
16:16:26.437500,-51.98
16:16:26.453125,-55.81
16:16:26.468750,-61.13
16:16:26.484375,-68.83
16:16:26.500000,-79.22
16:16:26.515625,-91.56
16:16:26.531250,-103.76
16:16:26.546875,-112.75
16:16:26.562500,-115.38
16:16:26.578125,-109.65
16:16:26.593750,-95.63
16:16:26.609375,-75.54
16:16:26.625000,-52.85
16:16:26.640625,-30.91
16:16:26.656250,-11.80
16:16:26.671875,4.06
16:16:26.687500,17.34
16:16:26.703125,28.91
16:16:26.718750,39.03
16:16:26.734375,47.30
16:16:26.750000,53.13
16:16:26.765625,56.35
16:16:26.781250,57.51
16:16:26.796875,57.67
16:16:26.812500,57.88
16:16:26.828125,58.76
16:16:26.843750,60.26
16:16:26.859375,61.94
16:16:26.875000,63.28
16:16:26.890625,64.02
16:16:26.906250,64.23
16:16:26.921875,64.14
16:16:26.937500,64.02
16:16:26.953125,63.90
16:16:26.968750,63.60
16:16:26.984375,62.83
16:16:27,61.31
16:16:27.015625,58.94
16:16:27.031250,55.81
16:16:27.046875,52.14
16:16:27.062500,48.19
16:16:27.078125,44.16
16:16:27.093750,40.02
16:16:27.109375,35.68
16:16:27.125000,30.95
16:16:27.140625,25.79
16:16:27.156250,20.30
16:16:27.171875,14.79
16:16:27.187500,9.61
16:16:27.203125,5.02
16:16:27.218750,1.00
16:16:27.234375,-2.81
16:16:27.250000,-6.96
16:16:27.265625,-12.00
16:16:27.281250,-18.18
16:16:27.296875,-25.32
16:16:27.312500,-32.83
16:16:27.328125,-39.97
16:16:27.343750,-46.15
16:16:27.359375,-51.22
16:16:27.375000,-55.60
16:16:27.390625,-60.17
16:16:27.406250,-66.10
16:16:27.421875,-74.41
16:16:27.437500,-85.51
16:16:27.453125,-98.78
16:16:27.468750,-112.30
16:16:27.484375,-123.19
16:16:27.500000,-128.40
16:16:27.515625,-125.68
16:16:27.531250,-114.46
16:16:27.546875,-96.10
16:16:27.562500,-73.41
16:16:27.578125,-49.65
16:16:27.593750,-27.46
16:16:27.609375,-8.24
16:16:27.625000,7.79
16:16:27.640625,21.13
16:16:27.656250,32.33
16:16:27.671875,41.62
16:16:27.687500,48.92
16:16:27.703125,54.11
16:16:27.718750,57.39
16:16:27.734375,59.27
16:16:27.750000,60.52
16:16:27.765625,61.80
16:16:27.781250,63.40
16:16:27.796875,65.20
16:16:27.812500,66.81
16:16:27.828125,67.88
16:16:27.843750,68.28
16:16:27.859375,68.13
16:16:27.875000,67.67
16:16:27.890625,66.96
16:16:27.906250,65.86
16:16:27.921875,64.08
16:16:27.937500,61.47
16:16:27.953125,58.08
16:16:27.968750,54.29
16:16:27.984375,50.48
16:16:28,46.86
16:16:28.015625,43.33
16:16:28.031250,39.55
16:16:28.046875,35.27
16:16:28.062500,30.45
16:16:28.078125,25.40
16:16:28.093750,20.58
16:16:28.109375,16.39
16:16:28.125000,12.89
16:16:28.140625,9.76
16:16:28.156250,6.40
16:16:28.171875,2.22
16:16:28.187500,-3.03
16:16:28.203125,-9.10
16:16:28.218750,-15.34
16:16:28.234375,-20.98
16:16:28.250000,-25.57
16:16:28.265625,-29.21
16:16:28.281250,-32.57
16:16:28.296875,-36.59
16:16:28.312500,-42.10
16:16:28.328125,-49.55
16:16:28.343750,-58.82
16:16:28.359375,-69.18
16:16:28.375000,-79.31
16:16:28.390625,-87.40
16:16:28.406250,-91.47
16:16:28.421875,-89.81
16:16:28.437500,-81.60
16:16:28.453125,-67.38
16:16:28.468750,-48.97
16:16:28.484375,-29.02
16:16:28.500000,-10.12
16:16:28.515625,6.03
16:16:28.531250,18.88
16:16:28.546875,28.83
16:16:28.562500,36.62
16:16:28.578125,42.83
16:16:28.593750,47.64
16:16:28.609375,50.91
16:16:28.625000,52.63
16:16:28.640625,52.98
16:16:28.656250,52.46
16:16:28.671875,51.63
16:16:28.687500,50.92
16:16:28.703125,50.42
16:16:28.718750,49.96
16:16:28.734375,49.24
16:16:28.750000,48.11
16:16:28.765625,46.65
16:16:28.781250,45.19
16:16:28.796875,44.07
16:16:28.812500,43.45
16:16:28.828125,43.04
16:16:28.843750,42.25
16:16:28.859375,40.32
16:16:28.875000,36.76
16:16:28.890625,31.55
16:16:28.906250,25.21
16:16:28.921875,18.58
16:16:28.937500,12.39
16:16:28.953125,7.01
16:16:28.968750,2.22
16:16:28.984375,-2.54
16:16:29,-7.93
16:16:29.015625,-14.29
16:16:29.031250,-21.52
16:16:29.046875,-29.12
16:16:29.062500,-36.46
16:16:29.078125,-42.99
16:16:29.093750,-48.50
16:16:29.109375,-53.18
16:16:29.125000,-57.61
16:16:29.140625,-62.68
16:16:29.156250,-69.36
16:16:29.171875,-78.51
16:16:29.187500,-90.39
16:16:29.203125,-104.30
16:16:29.218750,-118.32
16:16:29.234375,-129.52
16:16:29.250000,-134.65
16:16:29.265625,-131.21
16:16:29.281250,-118.37
16:16:29.296875,-97.41
16:16:29.312500,-71.42
16:16:29.328125,-44.21
16:16:29.343750,-19.20
16:16:29.359375,1.55
16:16:29.375000,17.52
16:16:29.390625,29.34
16:16:29.406250,38.04
16:16:29.421875,44.43
16:16:29.437500,48.85
16:16:29.453125,51.41
16:16:29.468750,52.35
16:16:29.484375,52.22
16:16:29.500000,51.89
16:16:29.515625,52.17
16:16:29.531250,53.53
16:16:29.546875,55.82
16:16:29.562500,58.43
16:16:29.578125,60.52
16:16:29.593750,61.37
16:16:29.609375,60.63
16:16:29.625000,58.31
16:16:29.640625,54.67
16:16:29.656250,50.04
16:16:29.671875,44.75
16:16:29.687500,39.07
16:16:29.703125,33.33
16:16:29.718750,27.85
16:16:29.734375,22.91
16:16:29.750000,18.68
16:16:29.765625,15.04
16:16:29.781250,11.73
16:16:29.796875,8.29
16:16:29.812500,4.32
16:16:29.828125,-0.46
16:16:29.843750,-6.17
16:16:29.859375,-12.74
16:16:29.875000,-20.08
16:16:29.890625,-28.09
16:16:29.906250,-36.80
16:16:29.921875,-46.41
16:16:29.937500,-57.29
16:16:29.953125,-69.81
16:16:29.968750,-84.02
16:16:29.984375,-99.18
16:16:30,-113.63
16:16:30.015625,-124.93
16:16:30.031250,-130.44
16:16:30.046875,-128.25
16:16:30.062500,-117.87
16:16:30.078125,-100.46
16:16:30.093750,-78.45
16:16:30.109375,-54.65
16:16:30.125000,-31.38
16:16:30.140625,-9.94
16:16:30.156250,9.37
16:16:30.171875,26.73
16:16:30.187500,42.23
16:16:30.203125,55.57
16:16:30.218750,66.10
16:16:30.234375,73.20
16:16:30.250000,76.70
16:16:30.265625,77.10
16:16:30.281250,75.45
16:16:30.296875,73.03
16:16:30.312500,70.94
16:16:30.328125,69.84
16:16:30.343750,69.89
16:16:30.359375,70.88
16:16:30.375000,72.44
16:16:30.390625,74.21
16:16:30.406250,75.89
16:16:30.421875,77.18
16:16:30.437500,77.79
16:16:30.453125,77.44
16:16:30.468750,75.91
16:16:30.484375,73.17
16:16:30.500000,69.36
16:16:30.515625,64.79
16:16:30.531250,59.69
16:16:30.546875,54.10
16:16:30.562500,47.74
16:16:30.578125,40.16
16:16:30.593750,30.99
16:16:30.609375,20.26
16:16:30.625000,8.45
16:16:30.640625,-3.58
16:16:30.656250,-14.93
16:16:30.671875,-25.05
16:16:30.687500,-33.90
16:16:30.703125,-42.04
16:16:30.718750,-50.45
16:16:30.734375,-60.20
16:16:30.750000,-72.10
16:16:30.765625,-86.19
16:16:30.781250,-101.42
16:16:30.796875,-115.52
16:16:30.812500,-125.37
16:16:30.828125,-127.86
16:16:30.843750,-121.00
16:16:30.859375,-104.79
16:16:30.875000,-81.37
16:16:30.890625,-54.40
16:16:30.906250,-27.71
16:16:30.921875,-4.08
16:16:30.937500,15.50
16:16:30.953125,31.62
16:16:30.968750,45.56
16:16:30.984375,58.33
16:16:31,70.06
16:16:31.015625,80.06
16:16:31.031250,87.45
16:16:31.046875,91.79
16:16:31.062500,93.42
16:16:31.078125,93.24
16:16:31.093750,92.23
16:16:31.109375,91.02
16:16:31.125000,89.66
16:16:31.140625,87.85
16:16:31.156250,85.29
16:16:31.171875,81.97
16:16:31.187500,78.18
16:16:31.203125,74.45
16:16:31.218750,71.15
16:16:31.234375,68.37
16:16:31.250000,65.81
16:16:31.265625,62.90
16:16:31.281250,59.05
16:16:31.296875,53.85
16:16:31.312500,47.20
16:16:31.328125,39.41
16:16:31.343750,31.05
16:16:31.359375,22.81
16:16:31.375000,15.25
16:16:31.390625,8.60
16:16:31.406250,2.70
16:16:31.421875,-2.98
16:16:31.437500,-9.12
16:16:31.453125,-16.25
16:16:31.468750,-24.61
16:16:31.484375,-34.01
16:16:31.500000,-43.88
16:16:31.515625,-53.47
16:16:31.531250,-62.17
16:16:31.546875,-69.70
16:16:31.562500,-76.23
16:16:31.578125,-82.42
16:16:31.593750,-89.17
16:16:31.609375,-97.43
16:16:31.625000,-107.99
16:16:31.640625,-121.20
16:16:31.656250,-136.61
16:16:31.671875,-152.78
16:16:31.687500,-167.13
16:16:31.703125,-176.38
16:16:31.718750,-177.37
16:16:31.734375,-168.12
16:16:31.750000,-148.79
16:16:31.765625,-121.77
16:16:31.781250,-91.00
16:16:31.796875,-60.60
16:16:31.812500,-33.47
16:16:31.828125,-10.61
16:16:31.843750,8.70
16:16:31.859375,25.89
16:16:31.875000,41.99
16:16:31.890625,57.04
16:16:31.906250,70.18
16:16:31.921875,80.29
16:16:31.937500,86.81
16:16:31.953125,90.04
16:16:31.968750,90.94
16:16:31.984375,90.55
16:16:32,89.60
16:16:32.015625,88.35
16:16:32.031250,86.85
16:16:32.046875,85.33
16:16:32.062500,84.26
16:16:32.078125,84.22
16:16:32.093750,85.50
16:16:32.109375,87.79
16:16:32.125000,90.20
16:16:32.140625,91.55
16:16:32.156250,90.85
16:16:32.171875,87.78
16:16:32.187500,82.72
16:16:32.203125,76.57
16:16:32.218750,70.31
16:16:32.234375,64.59
16:16:32.250000,59.55
16:16:32.265625,54.89
16:16:32.281250,50.07
16:16:32.296875,44.62
16:16:32.312500,38.41
16:16:32.328125,31.65
16:16:32.343750,24.83
16:16:32.359375,18.45
16:16:32.375000,12.78
16:16:32.390625,7.73
16:16:32.406250,2.85
16:16:32.421875,-2.49
16:16:32.437500,-8.85
16:16:32.453125,-16.49
16:16:32.468750,-25.25
16:16:32.484375,-34.56
16:16:32.500000,-43.64
16:16:32.515625,-51.81
16:16:32.531250,-58.86
16:16:32.546875,-65.18
16:16:32.562500,-71.79
16:16:32.578125,-79.97
16:16:32.593750,-90.77
16:16:32.609375,-104.41
16:16:32.625000,-119.85
16:16:32.640625,-134.69
16:16:32.656250,-145.66
16:16:32.671875,-149.47
16:16:32.687500,-143.94
16:16:32.703125,-128.81
16:16:32.718750,-105.87
16:16:32.734375,-78.45
16:16:32.750000,-50.28
16:16:32.765625,-24.40
16:16:32.781250,-2.37
16:16:32.796875,15.72
16:16:32.812500,30.81
16:16:32.828125,44.01
16:16:32.843750,56.05
16:16:32.859375,67.01
16:16:32.875000,76.52
16:16:32.890625,84.17
16:16:32.906250,89.82
16:16:32.921875,93.66
16:16:32.937500,96.08
16:16:32.953125,97.33
16:16:32.968750,97.46
16:16:32.984375,96.27
16:16:33,93.63
16:16:33.015625,89.78
16:16:33.031250,85.37
16:16:33.046875,81.34
16:16:33.062500,78.47
16:16:33.078125,76.95
16:16:33.093750,76.27
16:16:33.109375,75.40
16:16:33.125000,73.28
16:16:33.140625,69.31
16:16:33.156250,63.66
16:16:33.171875,57.17
16:16:33.187500,51.07
16:16:33.203125,46.40
16:16:33.218750,43.69
16:16:33.234375,42.71
16:16:33.250000,42.57
16:16:33.265625,42.12
16:16:33.281250,40.40
16:16:33.296875,36.99
16:16:33.312500,32.13
16:16:33.328125,26.42
16:16:33.343750,20.50
16:16:33.359375,14.63
16:16:33.375000,8.51
16:16:33.390625,1.52
16:16:33.406250,-6.87
16:16:33.421875,-16.62
16:16:33.437500,-26.99
16:16:33.453125,-36.72
16:16:33.468750,-44.55
16:16:33.484375,-49.82
16:16:33.500000,-52.81
16:16:33.515625,-54.69
16:16:33.531250,-57.12
16:16:33.546875,-61.71
16:16:33.562500,-69.51
16:16:33.578125,-80.58
16:16:33.593750,-93.85
16:16:33.609375,-107.07
16:16:33.625000,-117.10
16:16:33.640625,-120.63
16:16:33.656250,-115.11
16:16:33.671875,-99.73
16:16:33.687500,-75.95
16:16:33.703125,-47.20
16:16:33.718750,-17.83
16:16:33.734375,8.30
16:16:33.750000,28.93
16:16:33.765625,43.71
16:16:33.781250,53.75
16:16:33.796875,60.68
16:16:33.812500,65.72
16:16:33.828125,69.48
16:16:33.843750,72.08
16:16:33.859375,73.57
16:16:33.875000,74.28
16:16:33.890625,74.74
16:16:33.906250,75.38
16:16:33.921875,76.31
16:16:33.937500,77.23
16:16:33.953125,77.65
16:16:33.968750,77.21
16:16:33.984375,75.92
16:16:34,74.14
16:16:34.015625,72.39
16:16:34.031250,71.09
16:16:34.046875,70.31
16:16:34.062500,69.79
16:16:34.078125,69.01
16:16:34.093750,67.37
16:16:34.109375,64.38
16:16:34.125000,59.75
16:16:34.140625,53.50
16:16:34.156250,45.94
16:16:34.171875,37.55
16:16:34.187500,28.81
16:16:34.203125,19.95
16:16:34.218750,10.92
16:16:34.234375,1.47
16:16:34.250000,-8.63
16:16:34.265625,-19.30
16:16:34.281250,-30.12
16:16:34.296875,-40.49
16:16:34.312500,-49.98
16:16:34.328125,-58.48
16:16:34.343750,-66.25
16:16:34.359375,-73.59
16:16:34.375000,-80.58
16:16:34.390625,-86.91
16:16:34.406250,-92.02
16:16:34.421875,-95.48
16:16:34.437500,-97.27
16:16:34.453125,-97.93
16:16:34.468750,-98.46
16:16:34.484375,-100.06
16:16:34.500000,-103.88
16:16:34.515625,-110.62
16:16:34.531250,-120.23
16:16:34.546875,-131.55
16:16:34.562500,-142.18
16:16:34.578125,-148.86
16:16:34.593750,-148.34
16:16:34.609375,-138.57
16:16:34.625000,-119.59
16:16:34.640625,-93.77
16:16:34.656250,-65.09
16:16:34.671875,-37.74
16:16:34.687500,-14.76
16:16:34.703125,2.77
16:16:34.718750,15.55
16:16:34.734375,25.21
16:16:34.750000,33.25
16:16:34.765625,40.36
16:16:34.781250,46.44
16:16:34.796875,51.07
16:16:34.812500,54.02
16:16:34.828125,55.65
16:16:34.843750,56.72
16:16:34.859375,58.06
16:16:34.875000,60.11
16:16:34.890625,62.75
16:16:34.906250,65.48
16:16:34.921875,67.73
16:16:34.937500,69.19
16:16:34.953125,69.89
16:16:34.968750,70.13
16:16:34.984375,70.14
16:16:35,69.91
16:16:35.015625,69.08
16:16:35.031250,67.18
16:16:35.046875,63.87
16:16:35.062500,59.26
16:16:35.078125,53.87
16:16:35.093750,48.45
16:16:35.109375,43.66
16:16:35.125000,39.65
16:16:35.140625,36.07
16:16:35.156250,32.27
16:16:35.171875,27.68
16:16:35.187500,22.07
16:16:35.203125,15.70
16:16:35.218750,9.07
16:16:35.234375,2.65
16:16:35.250000,-3.37
16:16:35.265625,-9.15
16:16:35.281250,-15.08
16:16:35.296875,-21.72
16:16:35.312500,-29.66
16:16:35.328125,-39.33
16:16:35.343750,-50.68
16:16:35.359375,-62.74
16:16:35.375000,-73.55
16:16:35.390625,-80.34
16:16:35.406250,-80.52
16:16:35.421875,-72.71
16:16:35.437500,-57.53
16:16:35.453125,-37.61
16:16:35.468750,-16.66
16:16:35.484375,1.90
16:16:35.500000,16.04
16:16:35.515625,25.56
16:16:35.531250,31.60
16:16:35.546875,35.66
16:16:35.562500,38.79
16:16:35.578125,41.23
16:16:35.593750,42.56
16:16:35.609375,42.36
16:16:35.625000,40.54
16:16:35.640625,37.49
16:16:35.656250,33.94
16:16:35.671875,30.51
16:16:35.687500,27.48
16:16:35.703125,24.70
16:16:35.718750,21.79
16:16:35.734375,18.43
16:16:35.750000,14.57
16:16:35.765625,10.52
16:16:35.781250,6.85
16:16:35.796875,4.07
16:16:35.812500,2.39
16:16:35.828125,1.60
16:16:35.843750,1.06
16:16:35.859375,0.06
16:16:35.875000,-1.93
16:16:35.890625,-4.98
16:16:35.906250,-8.64
16:16:35.921875,-12.16
16:16:35.937500,-14.76
16:16:35.953125,-16.06
16:16:35.968750,-16.25
16:16:35.984375,-16.05
16:16:36,-16.39
16:16:36.015625,-18.03
16:16:36.031250,-21.26
16:16:36.046875,-25.78
16:16:36.062500,-30.90
16:16:36.078125,-35.79
16:16:36.093750,-39.93
16:16:36.109375,-43.22
16:16:36.125000,-46.07
16:16:36.140625,-49.23
16:16:36.156250,-53.52
16:16:36.171875,-59.66
16:16:36.187500,-68.05
16:16:36.203125,-78.54
16:16:36.218750,-90.15
16:16:36.234375,-100.96
16:16:36.250000,-108.30
16:16:36.265625,-109.45
16:16:36.281250,-102.60
16:16:36.296875,-87.72
16:16:36.312500,-66.80
16:16:36.328125,-43.32
16:16:36.343750,-21.02
16:16:36.359375,-2.64
16:16:36.375000,10.87
16:16:36.390625,20.14
16:16:36.406250,26.69
16:16:36.421875,31.94
16:16:36.437500,36.61
16:16:36.453125,40.73
16:16:36.468750,43.96
16:16:36.484375,46.06
16:16:36.500000,47.16
16:16:36.515625,47.60
16:16:36.531250,47.74
16:16:36.546875,47.79
16:16:36.562500,47.67
16:16:36.578125,47.20
16:16:36.593750,46.21
16:16:36.609375,44.64
16:16:36.625000,42.64
16:16:36.640625,40.42
16:16:36.656250,38.24
16:16:36.671875,36.27
16:16:36.687500,34.53
16:16:36.703125,32.87
16:16:36.718750,31.05
16:16:36.734375,28.78
16:16:36.750000,25.85
16:16:36.765625,22.16
16:16:36.781250,17.73
16:16:36.796875,12.63
16:16:36.812500,7.00
16:16:36.828125,0.99
16:16:36.843750,-5.14
16:16:36.859375,-11.08
16:16:36.875000,-16.43
16:16:36.890625,-20.91
16:16:36.906250,-24.45
16:16:36.921875,-27.38
16:16:36.937500,-30.28
16:16:36.953125,-33.73
16:16:36.968750,-38.04
16:16:36.984375,-43.09
16:16:37,-48.31
16:16:37.015625,-53.04
16:16:37.031250,-56.92
16:16:37.046875,-60.00
16:16:37.062500,-62.81
16:16:37.078125,-66.13
16:16:37.093750,-70.86
16:16:37.109375,-77.65
16:16:37.125000,-86.70
16:16:37.140625,-97.36
16:16:37.156250,-107.96
16:16:37.171875,-115.77
16:16:37.187500,-117.68
16:16:37.203125,-111.26
16:16:37.218750,-95.89
16:16:37.234375,-73.29
16:16:37.250000,-47.10
16:16:37.265625,-21.66
16:16:37.281250,-0.44
16:16:37.296875,14.95
16:16:37.312500,24.85
16:16:37.328125,30.75
16:16:37.343750,34.27
16:16:37.359375,36.38
16:16:37.375000,37.40
16:16:37.390625,37.40
16:16:37.406250,36.77
16:16:37.421875,36.34
16:16:37.437500,37.03
16:16:37.453125,39.50
16:16:37.468750,43.61
16:16:37.484375,48.58
16:16:37.500000,53.24
16:16:37.515625,56.64
16:16:37.531250,58.33
16:16:37.546875,58.46
16:16:37.562500,57.55
16:16:37.578125,56.09
16:16:37.593750,54.27
16:16:37.609375,51.93
16:16:37.625000,48.78
16:16:37.640625,44.66
16:16:37.656250,39.78
16:16:37.671875,34.69
16:16:37.687500,30.08
16:16:37.703125,26.45
16:16:37.718750,23.81
16:16:37.734375,21.66
16:16:37.750000,19.18
16:16:37.765625,15.64
16:16:37.781250,10.72
16:16:37.796875,4.65
16:16:37.812500,-1.93
16:16:37.828125,-8.29
16:16:37.843750,-14.02
16:16:37.859375,-19.11
16:16:37.875000,-23.92
16:16:37.890625,-28.88
16:16:37.906250,-34.17
16:16:37.921875,-39.56
16:16:37.937500,-44.48
16:16:37.953125,-48.27
16:16:37.968750,-50.59
16:16:37.984375,-51.57
16:16:38,-51.90
16:16:38.015625,-52.65
16:16:38.031250,-55.07
16:16:38.046875,-60.35
16:16:38.062500,-69.24
16:16:38.078125,-81.61
16:16:38.093750,-96.05
16:16:38.109375,-109.77
16:16:38.125000,-119.04
16:16:38.140625,-120.32
16:16:38.156250,-111.48
16:16:38.171875,-92.86
16:16:38.187500,-67.19
16:16:38.203125,-38.78
16:16:38.218750,-11.92
16:16:38.234375,10.41
16:16:38.250000,27.18
16:16:38.265625,39.02
16:16:38.281250,47.26
16:16:38.296875,53.09
16:16:38.312500,57.09
16:16:38.328125,59.33
16:16:38.343750,59.78
16:16:38.359375,58.67
16:16:38.375000,56.51
16:16:38.390625,54.02
16:16:38.406250,51.74
16:16:38.421875,49.95
16:16:38.437500,48.59
16:16:38.453125,47.44
16:16:38.468750,46.30
16:16:38.484375,45.19
16:16:38.500000,44.31
16:16:38.515625,43.87
16:16:38.531250,43.96
16:16:38.546875,44.36
16:16:38.562500,44.62
16:16:38.578125,44.19
16:16:38.593750,42.70
16:16:38.609375,40.11
16:16:38.625000,36.70
16:16:38.640625,32.89
16:16:38.656250,29.02
16:16:38.671875,25.14
16:16:38.687500,21.06
16:16:38.703125,16.44
16:16:38.718750,11.06
16:16:38.734375,5.03
16:16:38.750000,-1.24
16:16:38.765625,-7.13
16:16:38.781250,-12.16
16:16:38.796875,-16.17
16:16:38.812500,-19.50
16:16:38.828125,-22.77
16:16:38.843750,-26.56
16:16:38.859375,-31.12
16:16:38.875000,-36.19
16:16:38.890625,-41.08
16:16:38.906250,-45.10
16:16:38.921875,-47.91
16:16:38.937500,-49.74
16:16:38.953125,-51.35
16:16:38.968750,-53.81
16:16:38.984375,-58.21
16:16:39,-65.26
16:16:39.015625,-75.01
16:16:39.031250,-86.49
16:16:39.046875,-97.63
16:16:39.062500,-105.52
16:16:39.078125,-107.12
16:16:39.093750,-100.35
16:16:39.109375,-84.96
16:16:39.125000,-62.85
16:16:39.140625,-37.53
16:16:39.156250,-12.98
16:16:39.171875,7.71
16:16:39.187500,23.04
16:16:39.203125,33.26
16:16:39.218750,39.52
16:16:39.234375,43.18
16:16:39.250000,45.14
16:16:39.265625,45.81
16:16:39.281250,45.40
16:16:39.296875,44.18
16:16:39.312500,42.66
16:16:39.328125,41.36
16:16:39.343750,40.68
16:16:39.359375,40.71
16:16:39.375000,41.22
16:16:39.390625,41.82
16:16:39.406250,42.13
16:16:39.421875,41.91
16:16:39.437500,41.17
16:16:39.453125,40.09
16:16:39.468750,38.94
16:16:39.484375,37.99
16:16:39.500000,37.23
16:16:39.515625,36.35
16:16:39.531250,34.79
16:16:39.546875,31.94
16:16:39.562500,27.44
16:16:39.578125,21.39
16:16:39.593750,14.45
16:16:39.609375,7.56
16:16:39.625000,1.64
16:16:39.640625,-2.84
16:16:39.656250,-5.99
16:16:39.671875,-8.47
16:16:39.687500,-11.17
16:16:39.703125,-14.85
16:16:39.718750,-19.80
16:16:39.734375,-25.74
16:16:39.750000,-31.98
16:16:39.765625,-37.73
16:16:39.781250,-42.41
16:16:39.796875,-45.89
16:16:39.812500,-48.46
16:16:39.828125,-50.76
16:16:39.843750,-53.62
16:16:39.859375,-57.89
16:16:39.875000,-64.30
16:16:39.890625,-73.17
16:16:39.906250,-84.08
16:16:39.921875,-95.54
16:16:39.937500,-105.00
16:16:39.953125,-109.38
16:16:39.968750,-106.02
16:16:39.984375,-93.73
16:16:40,-73.47
16:16:40.015625,-48.15
16:16:40.031250,-21.70
16:16:40.046875,2.22
16:16:40.062500,21.33
16:16:40.078125,35.12
16:16:40.093750,44.47
16:16:40.109375,50.81
16:16:40.125000,55.28
16:16:40.140625,58.39
16:16:40.156250,60.18
16:16:40.171875,60.65
16:16:40.187500,60.09
16:16:40.203125,59.11
16:16:40.218750,58.38
16:16:40.234375,58.28
16:16:40.250000,58.65
16:16:40.265625,59.00
16:16:40.281250,58.80
16:16:40.296875,57.87
16:16:40.312500,56.47
16:16:40.328125,55.04
16:16:40.343750,53.90
16:16:40.359375,52.91
16:16:40.375000,51.48
16:16:40.390625,48.84
16:16:40.406250,44.49
16:16:40.421875,38.52
16:16:40.437500,31.65
16:16:40.453125,24.86
16:16:40.468750,19.02
16:16:40.484375,14.38
16:16:40.500000,10.49
16:16:40.515625,6.44
16:16:40.531250,1.25
16:16:40.546875,-5.60
16:16:40.562500,-13.95
16:16:40.578125,-23.00
16:16:40.593750,-31.71
16:16:40.609375,-39.25
16:16:40.625000,-45.40
16:16:40.640625,-50.60
16:16:40.656250,-55.82
16:16:40.671875,-62.10
16:16:40.687500,-70.38
16:16:40.703125,-81.05
16:16:40.718750,-93.75
16:16:40.734375,-107.16
16:16:40.750000,-118.92
16:16:40.765625,-126.06
16:16:40.781250,-125.80
16:16:40.796875,-116.49
16:16:40.812500,-98.43
16:16:40.828125,-73.95
16:16:40.843750,-46.65
16:16:40.859375,-20.29
16:16:40.875000,2.44
16:16:40.890625,20.44
16:16:40.906250,34.05
16:16:40.921875,44.30
16:16:40.937500,52.18
16:16:40.953125,58.24
16:16:40.968750,62.64
16:16:40.984375,65.45
16:16:41,66.94
16:16:41.015625,67.56
16:16:41.031250,67.82
16:16:41.046875,68.02
16:16:41.062500,68.16
16:16:41.078125,68.05
16:16:41.093750,67.45
16:16:41.109375,66.30
16:16:41.125000,64.75
16:16:41.140625,63.15
16:16:41.156250,61.73
16:16:41.171875,60.46
16:16:41.187500,58.87
16:16:41.203125,56.19
16:16:41.218750,51.67
16:16:41.234375,45.00
16:16:41.250000,36.58
16:16:41.265625,27.47
16:16:41.281250,19.05
16:16:41.296875,12.32
16:16:41.312500,7.53
16:16:41.328125,3.95
16:16:41.343750,0.32
16:16:41.359375,-4.58
16:16:41.375000,-11.27
16:16:41.390625,-19.35
16:16:41.406250,-27.77
16:16:41.421875,-35.30
16:16:41.437500,-41.21
16:16:41.453125,-45.54
16:16:41.468750,-49.07
16:16:41.484375,-53.04
16:16:41.500000,-58.73
16:16:41.515625,-67.12
16:16:41.531250,-78.43
16:16:41.546875,-91.87
16:16:41.562500,-105.46
16:16:41.578125,-116.18
16:16:41.593750,-120.71
16:16:41.609375,-116.36
16:16:41.625000,-102.22
16:16:41.640625,-79.62
16:16:41.656250,-51.84
16:16:41.671875,-23.12
16:16:41.687500,2.82
16:16:41.703125,23.71
16:16:41.718750,39.08
16:16:41.734375,49.73
16:16:41.750000,56.82
16:16:41.765625,61.25
16:16:41.781250,63.45
16:16:41.796875,63.66
16:16:41.812500,62.40
16:16:41.828125,60.56
16:16:41.843750,59.23
16:16:41.859375,59.16
16:16:41.875000,60.43
16:16:41.890625,62.40
16:16:41.906250,64.02
16:16:41.921875,64.46
16:16:41.937500,63.43
16:16:41.953125,61.40
16:16:41.968750,59.23
16:16:41.984375,57.70
16:16:42,57.10
16:16:42.015625,57.03
16:16:42.031250,56.59
16:16:42.046875,54.79
16:16:42.062500,51.09
16:16:42.078125,45.61
16:16:42.093750,39.13
16:16:42.109375,32.70
16:16:42.125000,27.17
16:16:42.140625,22.74
16:16:42.156250,18.94
16:16:42.171875,14.82
16:16:42.187500,9.47
16:16:42.203125,2.54
16:16:42.218750,-5.64
16:16:42.234375,-14.12
16:16:42.250000,-21.86
16:16:42.265625,-28.16
16:16:42.281250,-33.07
16:16:42.296875,-37.32
16:16:42.312500,-42.12
16:16:42.328125,-48.78
16:16:42.343750,-58.31
16:16:42.359375,-71.05
16:16:42.375000,-86.35
16:16:42.390625,-102.35
16:16:42.406250,-116.10
16:16:42.421875,-124.19
16:16:42.437500,-123.67
16:16:42.453125,-113.17
16:16:42.468750,-93.59
16:16:42.484375,-67.97
16:16:42.500000,-40.57
16:16:42.515625,-15.37
16:16:42.531250,5.04
16:16:42.546875,20.04
16:16:42.562500,30.58
16:16:42.578125,38.19
16:16:42.593750,44.15
16:16:42.609375,48.99
16:16:42.625000,52.67
16:16:42.640625,55.02
16:16:42.656250,56.24
16:16:42.671875,56.99
16:16:42.687500,58.09
16:16:42.703125,60.13
16:16:42.718750,63.08
16:16:42.734375,66.33
16:16:42.750000,68.99
16:16:42.765625,70.41
16:16:42.781250,70.48
16:16:42.796875,69.68
16:16:42.812500,68.72
16:16:42.828125,68.08
16:16:42.843750,67.69
16:16:42.859375,66.84
16:16:42.875000,64.54
16:16:42.890625,60.02
16:16:42.906250,53.14
16:16:42.921875,44.56
16:16:42.937500,35.45
16:16:42.953125,27.02
16:16:42.968750,20.01
16:16:42.984375,14.39
16:16:43,9.45
16:16:43.015625,4.16
16:16:43.031250,-2.29
16:16:43.046875,-10.14
16:16:43.062500,-18.95
16:16:43.078125,-27.87
16:16:43.093750,-36.00
16:16:43.109375,-42.87
16:16:43.125000,-48.54
16:16:43.140625,-53.64
16:16:43.156250,-59.20
16:16:43.171875,-66.31
16:16:43.187500,-75.80
16:16:43.203125,-87.76
16:16:43.218750,-101.24
16:16:43.234375,-114.00
16:16:43.250000,-122.94
16:16:43.265625,-124.85
16:16:43.281250,-117.55
16:16:43.296875,-100.78
16:16:43.312500,-76.54
16:16:43.328125,-48.40
16:16:43.343750,-20.45
16:16:43.359375,4.08
16:16:43.375000,23.57
16:16:43.390625,38.07
16:16:43.406250,48.67
16:16:43.421875,56.64
16:16:43.437500,62.80
16:16:43.453125,67.41
16:16:43.468750,70.45
16:16:43.484375,71.99
16:16:43.500000,72.44
16:16:43.515625,72.48
16:16:43.531250,72.68
16:16:43.546875,73.26
16:16:43.562500,73.94
16:16:43.578125,74.17
16:16:43.593750,73.48
16:16:43.609375,71.72
16:16:43.625000,69.23
16:16:43.640625,66.59
16:16:43.656250,64.38
16:16:43.671875,62.82
16:16:43.687500,61.62
16:16:43.703125,60.07
16:16:43.718750,57.40
16:16:43.734375,53.16
16:16:43.750000,47.47
16:16:43.765625,41.04
16:16:43.781250,34.83
16:16:43.796875,29.58
16:16:43.812500,25.37
16:16:43.828125,21.61
16:16:43.843750,17.29
16:16:43.859375,11.61
16:16:43.875000,4.33
16:16:43.890625,-3.99
16:16:43.906250,-12.36
16:16:43.921875,-19.81
16:16:43.937500,-25.84
16:16:43.953125,-30.66
16:16:43.968750,-34.98
16:16:43.984375,-39.79
16:16:44,-46.09
16:16:44.015625,-54.69
16:16:44.031250,-65.95
16:16:44.046875,-79.43
16:16:44.062500,-93.66
16:16:44.078125,-106.04
16:16:44.093750,-113.32
16:16:44.109375,-112.66
16:16:44.125000,-102.71
16:16:44.140625,-84.37
16:16:44.156250,-60.64
16:16:44.171875,-35.61
16:16:44.187500,-13.10
16:16:44.203125,4.61
16:16:44.218750,17.16
16:16:44.234375,25.65
16:16:44.250000,31.70
16:16:44.265625,36.48
16:16:44.281250,40.37
16:16:44.296875,43.17
16:16:44.312500,44.69
16:16:44.328125,45.12
16:16:44.343750,45.12
16:16:44.359375,45.45
16:16:44.375000,46.48
16:16:44.390625,47.94
16:16:44.406250,49.11
16:16:44.421875,49.23
16:16:44.437500,48.02
16:16:44.453125,45.88
16:16:44.468750,43.66
16:16:44.484375,42.17
16:16:44.500000,41.68
16:16:44.515625,41.76
16:16:44.531250,41.45
16:16:44.546875,39.71
16:16:44.562500,35.89
16:16:44.578125,30.04
16:16:44.593750,22.95
16:16:44.609375,15.75
16:16:44.625000,9.50
16:16:44.640625,4.78
16:16:44.656250,1.38
16:16:44.671875,-1.57
16:16:44.687500,-5.16
16:16:44.703125,-10.26
16:16:44.718750,-16.99
16:16:44.734375,-24.72
16:16:44.750000,-32.37
16:16:44.765625,-38.91
16:16:44.781250,-43.84
16:16:44.796875,-47.38
16:16:44.812500,-50.41
16:16:44.828125,-54.12
16:16:44.843750,-59.66
16:16:44.859375,-67.75
16:16:44.875000,-78.32
16:16:44.890625,-90.26
16:16:44.906250,-101.32
16:16:44.921875,-108.52
16:16:44.937500,-108.97
16:16:44.953125,-100.92
16:16:44.968750,-84.57
16:16:44.984375,-62.18
16:16:45,-37.36
16:16:45.015625,-13.80
16:16:45.031250,5.86
16:16:45.046875,20.67
16:16:45.062500,31.14
16:16:45.078125,38.45
16:16:45.093750,43.71
16:16:45.109375,47.48
16:16:45.125000,49.82
16:16:45.140625,50.69
16:16:45.156250,50.36
16:16:45.171875,49.43
16:16:45.187500,48.65
16:16:45.203125,48.58
16:16:45.218750,49.39
16:16:45.234375,50.80
16:16:45.250000,52.31
16:16:45.265625,53.45
16:16:45.281250,54.05
16:16:45.296875,54.14
16:16:45.312500,53.83
16:16:45.328125,53.07
16:16:45.343750,51.59
16:16:45.359375,48.94
16:16:45.375000,44.78
16:16:45.390625,39.12
16:16:45.406250,32.43
16:16:45.421875,25.50
16:16:45.437500,19.13
16:16:45.453125,13.79
16:16:45.468750,9.34
16:16:45.484375,5.17
16:16:45.500000,0.38
16:16:45.515625,-5.68
16:16:45.531250,-13.13
16:16:45.546875,-21.46
16:16:45.562500,-29.77
16:16:45.578125,-37.20
16:16:45.593750,-43.32
16:16:45.609375,-48.31
16:16:45.625000,-52.95
16:16:45.640625,-58.32
16:16:45.656250,-65.49
16:16:45.671875,-75.19
16:16:45.687500,-87.39
16:16:45.703125,-101.04
16:16:45.718750,-113.89
16:16:45.734375,-122.83
16:16:45.750000,-124.70
16:16:45.765625,-117.43
16:16:45.781250,-100.99
16:16:45.796875,-77.68
16:16:45.812500,-51.38
16:16:45.828125,-26.18
16:16:45.843750,-4.97
16:16:45.859375,11.28
16:16:45.875000,23.25
16:16:45.890625,32.39
16:16:45.906250,39.89
16:16:45.921875,46.19
16:16:45.937500,51.04
16:16:45.953125,54.13
16:16:45.968750,55.54
16:16:45.984375,55.84
16:16:46,55.93
16:16:46.015625,56.56
16:16:46.031250,58.03
16:16:46.046875,60.08
16:16:46.062500,62.04
16:16:46.078125,63.18
16:16:46.093750,63.02
16:16:46.109375,61.58
16:16:46.125000,59.27
16:16:46.140625,56.78
16:16:46.156250,54.64
16:16:46.171875,53.02
16:16:46.187500,51.59
16:16:46.203125,49.75
16:16:46.218750,46.88
16:16:46.234375,42.62
16:16:46.250000,37.06
16:16:46.265625,30.64
16:16:46.281250,24.03
16:16:46.296875,17.84
16:16:46.312500,12.45
16:16:46.328125,7.88
16:16:46.343750,3.78
16:16:46.359375,-0.40
16:16:46.375000,-5.25
16:16:46.390625,-11.08
16:16:46.406250,-17.79
16:16:46.421875,-24.83
16:16:46.437500,-31.49
16:16:46.453125,-37.20
16:16:46.468750,-41.81
16:16:46.484375,-45.70
16:16:46.500000,-49.60
16:16:46.515625,-54.35
16:16:46.531250,-60.71
16:16:46.546875,-69.15
16:16:46.562500,-79.65
16:16:46.578125,-91.46
16:16:46.593750,-102.83
16:16:46.609375,-111.10
16:16:46.625000,-113.24
16:16:46.640625,-106.87
16:16:46.656250,-91.33
16:16:46.671875,-68.19
16:16:46.687500,-40.97
16:16:46.703125,-13.97
16:16:46.718750,9.16
16:16:46.734375,26.56
16:16:46.750000,38.34
16:16:46.765625,46.02
16:16:46.781250,51.47
16:16:46.796875,56.01
16:16:46.812500,60.04
16:16:46.828125,63.34
16:16:46.843750,65.58
16:16:46.859375,66.84
16:16:46.875000,67.58
16:16:46.890625,68.48
16:16:46.906250,69.96
16:16:46.921875,71.91
16:16:46.937500,73.75
16:16:46.953125,74.67
16:16:46.968750,74.11
16:16:46.984375,71.99
16:16:47,68.65
16:16:47.015625,64.63
16:16:47.031250,60.37
16:16:47.046875,56.06
16:16:47.062500,51.64
16:16:47.078125,47.06
16:16:47.093750,42.28
16:16:47.109375,37.37
16:16:47.125000,32.41
16:16:47.140625,27.39
16:16:47.156250,22.22
16:16:47.171875,16.83
16:16:47.187500,11.17
16:16:47.203125,5.40
16:16:47.218750,-0.30
16:16:47.234375,-5.69
16:16:47.250000,-10.65
16:16:47.265625,-15.23
16:16:47.281250,-19.62
16:16:47.296875,-24.04
16:16:47.312500,-28.66
16:16:47.328125,-33.45
16:16:47.343750,-38.19
16:16:47.359375,-42.53
16:16:47.375000,-46.24
16:16:47.390625,-49.31
16:16:47.406250,-52.01
16:16:47.421875,-54.89
16:16:47.437500,-58.63
16:16:47.453125,-63.89
16:16:47.468750,-71.11
16:16:47.484375,-80.26
16:16:47.500000,-90.44
16:16:47.515625,-99.78
16:16:47.531250,-105.57
16:16:47.546875,-104.99
16:16:47.562500,-96.20
16:16:47.578125,-79.24
16:16:47.593750,-56.37
16:16:47.609375,-31.40
16:16:47.625000,-8.40
16:16:47.640625,9.70
16:16:47.656250,21.91
16:16:47.671875,29.10
16:16:47.687500,33.09
16:16:47.703125,35.57
16:16:47.718750,37.44
16:16:47.734375,38.75
16:16:47.750000,39.16
16:16:47.765625,38.53
16:16:47.781250,37.23
16:16:47.796875,35.97
16:16:47.812500,35.43
16:16:47.828125,35.92
16:16:47.843750,37.18
16:16:47.859375,38.53
16:16:47.875000,39.25
16:16:47.890625,38.93
16:16:47.906250,37.60
16:16:47.921875,35.66
16:16:47.937500,33.66
16:16:47.953125,31.95
16:16:47.968750,30.65
16:16:47.984375,29.55
16:16:48,28.30
16:16:48.015625,26.60
16:16:48.031250,24.26
16:16:48.046875,21.28
16:16:48.062500,17.78
16:16:48.078125,14.04
16:16:48.093750,10.37
16:16:48.109375,7.07
16:16:48.125000,4.29
16:16:48.140625,2.00
16:16:48.156250,-0.05
16:16:48.171875,-2.31
16:16:48.187500,-5.19
16:16:48.203125,-8.96
16:16:48.218750,-13.54
16:16:48.234375,-18.56
16:16:48.250000,-23.58
16:16:48.265625,-28.21
16:16:48.281250,-32.37
16:16:48.296875,-36.29
16:16:48.312500,-40.37
16:16:48.328125,-45.12
16:16:48.343750,-50.98
16:16:48.359375,-58.24
16:16:48.375000,-66.95
16:16:48.390625,-76.66
16:16:48.406250,-86.16
16:16:48.421875,-93.45
16:16:48.437500,-96.14
16:16:48.453125,-92.10
16:16:48.468750,-80.45
16:16:48.484375,-62.11
16:16:48.500000,-39.71
16:16:48.515625,-16.76
16:16:48.531250,3.48
16:16:48.546875,19.03
16:16:48.562500,29.56
16:16:48.578125,36.01
16:16:48.593750,39.83
16:16:48.609375,42.20
16:16:48.625000,43.60
16:16:48.640625,44.02
16:16:48.656250,43.29
16:16:48.671875,41.53
16:16:48.687500,39.19
16:16:48.703125,36.91
16:16:48.718750,35.22
16:16:48.734375,34.22
16:16:48.750000,33.62
16:16:48.765625,32.86
16:16:48.781250,31.48
16:16:48.796875,29.35
16:16:48.812500,26.73
16:16:48.828125,24.15
16:16:48.843750,22.14
16:16:48.859375,20.94
16:16:48.875000,20.31
16:16:48.890625,19.65
16:16:48.906250,18.21
16:16:48.921875,15.39
16:16:48.937500,11.04
16:16:48.953125,5.53
16:16:48.968750,-0.34
16:16:48.984375,-5.66
16:16:49,-9.72
16:16:49.015625,-12.28
16:16:49.031250,-13.70
16:16:49.046875,-14.80
16:16:49.062500,-16.60
16:16:49.078125,-19.85
16:16:49.093750,-24.80
16:16:49.109375,-31.06
16:16:49.125000,-37.81
16:16:49.140625,-44.15
16:16:49.156250,-49.51
16:16:49.171875,-53.87
16:16:49.187500,-57.79
16:16:49.203125,-62.13
16:16:49.218750,-67.81
16:16:49.234375,-75.55
16:16:49.250000,-85.60
16:16:49.265625,-97.51
16:16:49.281250,-109.78
16:16:49.296875,-119.95
16:16:49.312500,-124.91
16:16:49.328125,-121.86
16:16:49.343750,-109.38
16:16:49.359375,-88.17
16:16:49.375000,-61.10
16:16:49.390625,-32.39
16:16:49.406250,-6.19
16:16:49.421875,14.69
16:16:49.437500,29.36
16:16:49.453125,38.66
16:16:49.468750,44.32
16:16:49.484375,47.97
16:16:49.500000,50.65
16:16:49.515625,52.68
16:16:49.531250,54.05
16:16:49.546875,54.74
16:16:49.562500,54.95
16:16:49.578125,54.97
16:16:49.593750,55.08
16:16:49.609375,55.26
16:16:49.625000,55.24
16:16:49.640625,54.57
16:16:49.656250,52.96
16:16:49.671875,50.34
16:16:49.687500,46.96
16:16:49.703125,43.21
16:16:49.718750,39.47
16:16:49.734375,35.93
16:16:49.750000,32.61
16:16:49.765625,29.40
16:16:49.781250,26.11
16:16:49.796875,22.58
16:16:49.812500,18.62
16:16:49.828125,14.12
16:16:49.843750,9.02
16:16:49.859375,3.45
16:16:49.875000,-2.22
16:16:49.890625,-7.47
16:16:49.906250,-11.77
16:16:49.921875,-14.77
16:16:49.937500,-16.54
16:16:49.953125,-17.47
16:16:49.968750,-18.22
16:16:49.984375,-19.44
16:16:50,-21.69
16:16:50.015625,-25.32
16:16:50.031250,-30.37
16:16:50.046875,-36.32
16:16:50.062500,-41.89
16:16:50.078125,-44.95
16:16:50.093750,-42.93
16:16:50.109375,-33.57
16:16:50.125000,-15.90
16:16:50.140625,9.16
16:16:50.156250,38.89
16:16:50.171875,69.69
16:16:50.187500,98.33
16:16:50.203125,122.94
16:16:50.218750,143.23
16:16:50.234375,159.99
16:16:50.250000,174.28
16:16:50.265625,186.65
16:16:50.281250,197.15
16:16:50.296875,205.72
16:16:50.312500,212.81
16:16:50.328125,219.73
16:16:50.343750,228.57
16:16:50.359375,241.63
16:16:50.375000,260.48
16:16:50.390625,284.96
16:16:50.406250,312.71
16:16:50.421875,339.38
16:16:50.437500,359.65
16:16:50.453125,368.97
16:16:50.468750,364.97
16:16:50.484375,348.33
16:16:50.500000,322.23
16:16:50.515625,291.09
16:16:50.531250,258.88
16:16:50.546875,228.00
16:16:50.562500,199.15
16:16:50.578125,171.80
16:16:50.593750,145.12
16:16:50.609375,118.53
16:16:50.625000,91.69
16:16:50.640625,64.37
16:16:50.656250,36.29
16:16:50.671875,7.31
16:16:50.687500,-22.04
16:16:50.703125,-50.57
16:16:50.718750,-76.73
16:16:50.734375,-99.39
16:16:50.750000,-118.57
16:16:50.765625,-135.70
16:16:50.781250,-153.05
16:16:50.796875,-172.72
16:16:50.812500,-195.79
16:16:50.828125,-221.82
16:16:50.843750,-249.29
16:16:50.859375,-276.43
16:16:50.875000,-302.06
16:16:50.890625,-326.19
16:16:50.906250,-350.21
16:16:50.921875,-376.70
16:16:50.937500,-408.77
16:16:50.953125,-448.76
16:16:50.968750,-496.54
16:16:50.984375,-548.13
16:16:51,-595.72
16:16:51.015625,-629.44
16:16:51.031250,-640.68
16:16:51.046875,-625.37
16:16:51.062500,-585.56
16:16:51.078125,-528.54
16:16:51.093750,-463.72
16:16:51.109375,-399.18
16:16:51.125000,-339.23
16:16:51.140625,-284.19
16:16:51.156250,-231.82
16:16:51.171875,-179.07
16:16:51.187500,-123.50
16:16:51.203125,-63.83
16:16:51.218750,-0.28
16:16:51.234375,65.17
16:16:51.250000,128.60
16:16:51.265625,184.61
16:16:51.281250,227.63
16:16:51.296875,253.83
16:16:51.312500,262.41
16:16:51.328125,255.96
16:16:51.343750,239.44
16:16:51.359375,218.32
16:16:51.375000,196.78
16:16:51.390625,176.57
16:16:51.406250,156.87
16:16:51.421875,135.04
16:16:51.437500,108.06
16:16:51.453125,74.19
16:16:51.468750,34.37
16:16:51.484375,-7.30
16:16:51.500000,-44.51
16:16:51.515625,-70.93
16:16:51.531250,-82.80
16:16:51.546875,-80.65
16:16:51.562500,-69.37
16:16:51.578125,-56.36
16:16:51.593750,-48.99
16:16:51.609375,-52.23
16:16:51.625000,-67.56
16:16:51.640625,-93.36
16:16:51.656250,-125.98
16:16:51.671875,-160.96
16:16:51.687500,-193.83
16:16:51.703125,-220.59
16:16:51.718750,-238.05
16:16:51.734375,-244.33
16:16:51.750000,-239.17
16:16:51.765625,-223.95
16:16:51.781250,-201.12
16:16:51.796875,-173.43
16:16:51.812500,-143.10
16:16:51.828125,-111.63
16:16:51.843750,-80.01
16:16:51.859375,-49.33
16:16:51.875000,-21.07
16:16:51.890625,3.01
16:16:51.906250,21.39
16:16:51.921875,33.45
16:16:51.937500,39.78
16:16:51.953125,41.89
16:16:51.968750,41.54
16:16:51.984375,40.07
16:16:52,38.12
16:16:52.015625,35.84
16:16:52.031250,33.36
16:16:52.046875,31.06
16:16:52.062500,29.52
16:16:52.078125,29.18
16:16:52.093750,30.04
16:16:52.109375,31.51
16:16:52.125000,32.68
16:16:52.140625,32.76
16:16:52.156250,31.46
16:16:52.171875,29.13
16:16:52.187500,26.59
16:16:52.203125,24.70
16:16:52.218750,23.93
16:16:52.234375,24.14
16:16:52.250000,24.61
16:16:52.265625,24.38
16:16:52.281250,22.56
16:16:52.296875,18.68
16:16:52.312500,12.82
16:16:52.328125,5.50
16:16:52.343750,-2.51
16:16:52.359375,-10.32
16:16:52.375000,-17.03
16:16:52.390625,-21.77
16:16:52.406250,-23.68
16:16:52.421875,-22.08
16:16:52.437500,-16.55
16:16:52.453125,-7.16
16:16:52.468750,5.43
16:16:52.484375,20.07
16:16:52.500000,35.37
16:16:52.515625,49.98
16:16:52.531250,62.88
16:16:52.546875,73.55
16:16:52.562500,81.85
16:16:52.578125,87.98
16:16:52.593750,92.24
16:16:52.609375,94.91
16:16:52.625000,96.28
16:16:52.640625,96.64
16:16:52.656250,96.32
16:16:52.671875,95.76
16:16:52.687500,95.43
16:16:52.703125,95.76
16:16:52.718750,96.98
16:16:52.734375,99.13
16:16:52.750000,101.98
16:16:52.765625,105.18
16:16:52.781250,108.31
16:16:52.796875,110.92
16:16:52.812500,112.66
16:16:52.828125,113.36
16:16:52.843750,113.02
16:16:52.859375,111.74
16:16:52.875000,109.62
16:16:52.890625,106.57
16:16:52.906250,102.30
16:16:52.921875,96.47
16:16:52.937500,88.86
16:16:52.953125,79.55
16:16:52.968750,69.00
16:16:52.984375,57.85
16:16:53,46.75
16:16:53.015625,36.13
16:16:53.031250,26.11
16:16:53.046875,16.59
16:16:53.062500,7.28
16:16:53.078125,-2.15
16:16:53.093750,-12.06
16:16:53.109375,-22.64
16:16:53.125000,-33.80
16:16:53.140625,-44.91
16:16:53.156250,-54.82
16:16:53.171875,-62.06
16:16:53.187500,-65.28
16:16:53.203125,-63.71
16:16:53.218750,-57.51
16:16:53.234375,-47.70
16:16:53.250000,-35.89
16:16:53.265625,-23.71
16:16:53.281250,-12.36
16:16:53.296875,-2.41
16:16:53.312500,6.16
16:16:53.328125,13.68
16:16:53.343750,20.46
16:16:53.359375,26.58
16:16:53.375000,31.92
16:16:53.390625,36.22
16:16:53.406250,39.33
16:16:53.421875,41.35
16:16:53.437500,42.55
16:16:53.453125,43.32
16:16:53.468750,43.97
16:16:53.484375,44.54
16:16:53.500000,44.85
16:16:53.515625,44.57
16:16:53.531250,43.45
16:16:53.546875,41.49
16:16:53.562500,38.98
16:16:53.578125,36.33
16:16:53.593750,33.88
16:16:53.609375,31.71
16:16:53.625000,29.59
16:16:53.640625,27.13
16:16:53.656250,24.00
16:16:53.671875,20.18
16:16:53.687500,16.01
16:16:53.703125,12.10
16:16:53.718750,9.10
16:16:53.734375,7.32
16:16:53.750000,6.67
16:16:53.765625,6.54
16:16:53.781250,6.11
16:16:53.796875,4.47
16:16:53.812500,0.97
16:16:53.828125,-4.68
16:16:53.843750,-12.33
16:16:53.859375,-21.30
16:16:53.875000,-30.47
16:16:53.890625,-38.34
16:16:53.906250,-43.38
16:16:53.921875,-44.38
16:16:53.937500,-40.79
16:16:53.953125,-32.99
16:16:53.968750,-22.23
16:16:53.984375,-10.16
16:16:54,1.56
16:16:54.015625,11.78
16:16:54.031250,19.93
16:16:54.046875,26.06
16:16:54.062500,30.54
16:16:54.078125,33.88
16:16:54.093750,36.47
16:16:54.109375,38.58
16:16:54.125000,40.36
16:16:54.140625,41.88
16:16:54.156250,43.23
16:16:54.171875,44.55
16:16:54.187500,45.97
16:16:54.203125,47.52
16:16:54.218750,49.04
16:16:54.234375,50.15
16:16:54.250000,50.39
16:16:54.265625,49.48
16:16:54.281250,47.46
16:16:54.296875,44.70
16:16:54.312500,41.75
16:16:54.328125,39.05
16:16:54.343750,36.57
16:16:54.359375,33.88
16:16:54.375000,30.26
16:16:54.390625,25.18
16:16:54.406250,18.53
16:16:54.421875,10.74
16:16:54.437500,2.61
16:16:54.453125,-5.04
16:16:54.468750,-11.77
16:16:54.484375,-17.65
16:16:54.500000,-23.18
16:16:54.515625,-29.15
16:16:54.531250,-36.31
16:16:54.546875,-45.15
16:16:54.562500,-55.75
16:16:54.578125,-67.65
16:16:54.593750,-79.74
16:16:54.609375,-90.39
16:16:54.625000,-97.72
16:16:54.640625,-100.02
16:16:54.656250,-96.41
16:16:54.671875,-87.08
16:16:54.687500,-73.27
16:16:54.703125,-56.86
16:16:54.718750,-39.65
16:16:54.734375,-22.82
16:16:54.750000,-6.78
16:16:54.765625,8.66
16:16:54.781250,23.74
16:16:54.796875,38.29
16:16:54.812500,51.59
16:16:54.828125,62.54
16:16:54.843750,70.08
16:16:54.859375,73.72
16:16:54.875000,73.73
16:16:54.890625,71.21
16:16:54.906250,67.67
16:16:54.921875,64.58
16:16:54.937500,62.94
16:16:54.953125,63.01
16:16:54.968750,64.39
16:16:54.984375,66.32
16:16:55,68.10
16:16:55.015625,69.31
16:16:55.031250,69.87
16:16:55.046875,69.84
16:16:55.062500,69.08
16:16:55.078125,67.14
16:16:55.093750,63.35
16:16:55.109375,57.11
16:16:55.125000,48.35
16:16:55.140625,37.61
16:16:55.156250,26.00
16:16:55.171875,14.72
16:16:55.187500,4.70
16:16:55.203125,-3.82
16:16:55.218750,-11.22
16:16:55.234375,-18.37
16:16:55.250000,-26.26
16:16:55.265625,-35.70
16:16:55.281250,-47.09
16:16:55.296875,-60.12
16:16:55.312500,-73.63
16:16:55.328125,-85.54
16:16:55.343750,-93.21
16:16:55.359375,-94.10
16:16:55.375000,-86.71
16:16:55.390625,-71.21
16:16:55.406250,-49.67
16:16:55.421875,-25.40
16:16:55.437500,-1.87
16:16:55.453125,18.33
16:16:55.468750,34.18
16:16:55.484375,45.97
16:16:55.500000,54.73
16:16:55.515625,61.35
16:16:55.531250,66.19
16:16:55.546875,69.06
16:16:55.562500,69.78
16:16:55.578125,68.56
16:16:55.593750,66.18
16:16:55.609375,63.74
16:16:55.625000,62.15
16:16:55.640625,61.72
16:16:55.656250,62.02
16:16:55.671875,62.16
16:16:55.687500,61.27
16:16:55.703125,58.99
16:16:55.718750,55.59
16:16:55.734375,51.82
16:16:55.750000,48.45
16:16:55.765625,45.95
16:16:55.781250,44.13
16:16:55.796875,42.31
16:16:55.812500,39.49
16:16:55.828125,34.81
16:16:55.843750,27.77
16:16:55.859375,18.50
16:16:55.875000,7.75
16:16:55.890625,-3.27
16:16:55.906250,-13.16
16:16:55.921875,-20.75
16:16:55.937500,-25.46
16:16:55.953125,-27.49
16:16:55.968750,-27.83
16:16:55.984375,-28.02
16:16:56,-29.77
16:16:56.015625,-34.54
16:16:56.031250,-43.15
16:16:56.046875,-55.50
16:16:56.062500,-70.26
16:16:56.078125,-84.97
16:16:56.093750,-96.45
16:16:56.109375,-101.55
16:16:56.125000,-98.17
16:16:56.140625,-86.01
16:16:56.156250,-66.76
16:16:56.171875,-43.55
16:16:56.187500,-19.93
16:16:56.203125,1.26
16:16:56.218750,18.49
16:16:56.234375,31.51
16:16:56.250000,40.80
16:16:56.265625,46.97
16:16:56.281250,50.45
16:16:56.296875,51.51
16:16:56.312500,50.61
16:16:56.328125,48.53
16:16:56.343750,46.34
16:16:56.359375,45.00
16:16:56.375000,45.13
16:16:56.390625,46.72
16:16:56.406250,49.27
16:16:56.421875,52.04
16:16:56.437500,54.30
16:16:56.453125,55.60
16:16:56.468750,55.73
16:16:56.484375,54.71
16:16:56.500000,52.62
16:16:56.515625,49.62
16:16:56.531250,45.87
16:16:56.546875,41.63
16:16:56.562500,37.19
16:16:56.578125,32.89
16:16:56.593750,28.93
16:16:56.609375,25.24
16:16:56.625000,21.50
16:16:56.640625,17.23
16:16:56.656250,12.03
16:16:56.671875,5.83
16:16:56.687500,-1.05
16:16:56.703125,-8.05
16:16:56.718750,-14.61
16:16:56.734375,-20.43
16:16:56.750000,-25.59
16:16:56.765625,-30.49
16:16:56.781250,-35.66
16:16:56.796875,-41.64
16:16:56.812500,-48.79
16:16:56.828125,-57.14
16:16:56.843750,-66.17
16:16:56.859375,-74.67
16:16:56.875000,-80.87
16:16:56.890625,-82.81
16:16:56.906250,-79.09
16:16:56.921875,-69.46
16:16:56.937500,-55.08
16:16:56.953125,-38.11
16:16:56.968750,-20.95
16:16:56.984375,-5.28
16:16:57,8.28
16:16:57.015625,20.10
16:16:57.031250,30.82
16:16:57.046875,40.64
16:16:57.062500,49.02
16:16:57.078125,54.90
16:16:57.093750,57.31
16:16:57.109375,56.00
16:16:57.125000,51.72
16:16:57.140625,46.08
16:16:57.156250,40.94
16:16:57.171875,37.87
16:16:57.187500,37.65
16:16:57.203125,40.15
16:16:57.218750,44.44
16:16:57.234375,49.22
16:16:57.250000,53.11
16:16:57.265625,55.04
16:16:57.281250,54.40
16:16:57.296875,51.05
16:16:57.312500,45.26
16:16:57.328125,37.56
16:16:57.343750,28.65
16:16:57.359375,19.28
16:16:57.375000,10.22
16:16:57.390625,2.19
16:16:57.406250,-4.21
16:16:57.421875,-8.68
16:16:57.437500,-11.32
16:16:57.453125,-12.73
16:16:57.468750,-13.89
16:16:57.484375,-15.95
16:16:57.500000,-19.89
16:16:57.515625,-26.26
16:16:57.531250,-35.04
16:16:57.546875,-45.75
16:16:57.562500,-57.58
16:16:57.578125,-69.59
16:16:57.593750,-80.68
16:16:57.609375,-89.48
16:16:57.625000,-94.39
16:16:57.640625,-93.78
16:16:57.656250,-86.60
16:16:57.671875,-73.00
16:16:57.687500,-54.68
16:16:57.703125,-34.63
16:16:57.718750,-16.19
16:16:57.734375,-1.94
16:16:57.750000,7.17
16:16:57.765625,11.89
16:16:57.781250,14.07
16:16:57.796875,15.64
16:16:57.812500,17.74
16:16:57.828125,20.51
16:16:57.843750,23.36
16:16:57.859375,25.52
16:16:57.875000,26.64
16:16:57.890625,26.81
16:16:57.906250,26.44
16:16:57.921875,25.92
16:16:57.937500,25.40
16:16:57.953125,24.82
16:16:57.968750,24.03
16:16:57.984375,23.00
16:16:58,21.90
16:16:58.015625,21.03
16:16:58.031250,20.65
16:16:58.046875,20.84
16:16:58.062500,21.33
16:16:58.078125,21.58
16:16:58.093750,20.89
16:16:58.109375,18.57
16:16:58.125000,14.20
16:16:58.140625,7.69
16:16:58.156250,-0.62
16:16:58.171875,-10.02
16:16:58.187500,-19.57
16:16:58.203125,-28.23
16:16:58.218750,-35.17
16:16:58.234375,-39.94
16:16:58.250000,-42.58
16:16:58.265625,-43.62
16:16:58.281250,-43.91
16:16:58.296875,-44.49
16:16:58.312500,-46.42
16:16:58.328125,-50.48
16:16:58.343750,-56.89
16:16:58.359375,-65.06
16:16:58.375000,-73.31
16:16:58.390625,-79.14
16:16:58.406250,-79.92
16:16:58.421875,-73.78
16:16:58.437500,-60.44
16:16:58.453125,-41.51
16:16:58.468750,-19.98
16:16:58.484375,0.82
16:16:58.500000,18.28
16:16:58.515625,31.17
16:16:58.531250,39.57
16:16:58.546875,44.31
16:16:58.562500,46.32
16:16:58.578125,46.24
16:16:58.593750,44.48
16:16:58.609375,41.47
16:16:58.625000,37.90
16:16:58.640625,34.65
16:16:58.656250,32.59
16:16:58.671875,32.21
16:16:58.687500,33.54
16:16:58.703125,36.08
16:16:58.718750,39.01
16:16:58.734375,41.45
16:16:58.750000,42.58
16:16:58.765625,41.88
16:16:58.781250,39.08
16:16:58.796875,34.33
16:16:58.812500,28.08
16:16:58.828125,21.06
16:16:58.843750,14.13
16:16:58.859375,8.10
16:16:58.875000,3.53
16:16:58.890625,0.66
16:16:58.906250,-0.68
16:16:58.921875,-0.98
16:16:58.937500,-0.99
16:16:58.953125,-1.53
16:16:58.968750,-3.32
16:16:58.984375,-6.80
16:16:59,-12.01
16:16:59.015625,-18.56
16:16:59.031250,-25.79
16:16:59.046875,-32.97
16:16:59.062500,-39.48
16:16:59.078125,-45.08
16:16:59.093750,-49.90
16:16:59.109375,-54.47
16:16:59.125000,-59.39
16:16:59.140625,-64.98
16:16:59.156250,-70.82
16:16:59.171875,-75.65
16:16:59.187500,-77.62
16:16:59.203125,-75.02
16:16:59.218750,-67.05
16:16:59.234375,-54.34
16:16:59.250000,-38.81
16:16:59.265625,-23.00
16:16:59.281250,-9.03
16:16:59.296875,2.07
16:16:59.312500,10.55
16:16:59.328125,17.40
16:16:59.343750,23.62
16:16:59.359375,29.58
16:16:59.375000,34.88
16:16:59.390625,38.67
16:16:59.406250,40.26
16:16:59.421875,39.49
16:16:59.437500,36.94
16:16:59.453125,33.65
16:16:59.468750,30.74
16:16:59.484375,28.97
16:16:59.500000,28.54
16:16:59.515625,29.14
16:16:59.531250,30.23
16:16:59.546875,31.35
16:16:59.562500,32.27
16:16:59.578125,32.95
16:16:59.593750,33.34
16:16:59.609375,33.17
16:16:59.625000,31.93
16:16:59.640625,29.01
16:16:59.656250,24.06
16:16:59.671875,17.25
16:16:59.687500,9.36
16:16:59.703125,1.63
16:16:59.718750,-4.67
16:16:59.734375,-8.63
16:16:59.750000,-10.07
16:16:59.765625,-9.58
16:16:59.781250,-8.36
16:16:59.796875,-7.70
16:16:59.812500,-8.63
16:16:59.828125,-11.52
16:16:59.843750,-16.01
16:16:59.859375,-21.31
16:16:59.875000,-26.57
16:16:59.890625,-31.23
16:16:59.906250,-35.29
16:16:59.921875,-39.12
16:16:59.937500,-43.28
16:16:59.953125,-48.21
16:16:59.968750,-54.07
16:16:59.984375,-60.74
16:17:00,-67.77
16:17:00.015625,-74.42
16:17:00.031250,-79.48
16:17:00.046875,-81.46
16:17:00.062500,-78.98
16:17:00.078125,-71.29
16:17:00.093750,-58.86
16:17:00.109375,-43.39
16:17:00.125000,-27.34
16:17:00.140625,-13.00
16:17:00.156250,-1.76
16:17:00.171875,6.34
16:17:00.187500,12.23
16:17:00.203125,17.13
16:17:00.218750,21.82
16:17:00.234375,26.35
16:17:00.250000,30.17
16:17:00.265625,32.67
16:17:00.281250,33.54
16:17:00.296875,32.98
16:17:00.312500,31.56
16:17:00.328125,29.88
16:17:00.343750,28.35
16:17:00.359375,27.06
16:17:00.375000,25.92
16:17:00.390625,24.88
16:17:00.406250,24.10
16:17:00.421875,23.91
16:17:00.437500,24.63
16:17:00.453125,26.31
16:17:00.468750,28.57
16:17:00.484375,30.55
16:17:00.500000,31.22
16:17:00.515625,29.77
16:17:00.531250,25.90
16:17:00.546875,20.01
16:17:00.562500,13.02
16:17:00.578125,6.09
16:17:00.593750,0.19
16:17:00.609375,-4.17
16:17:00.625000,-7.06
16:17:00.640625,-9.08
16:17:00.656250,-11.03
16:17:00.671875,-13.54
16:17:00.687500,-16.79
16:17:00.703125,-20.53
16:17:00.718750,-24.24
16:17:00.734375,-27.50
16:17:00.750000,-30.25
16:17:00.765625,-32.91
16:17:00.781250,-36.14
16:17:00.796875,-40.64
16:17:00.812500,-46.84
16:17:00.828125,-54.75
16:17:00.843750,-63.88
16:17:00.859375,-73.15
16:17:00.875000,-80.89
16:17:00.890625,-85.05
16:17:00.906250,-83.68
16:17:00.921875,-75.64
16:17:00.937500,-61.24
16:17:00.953125,-42.40
16:17:00.968750,-22.16
16:17:00.984375,-3.70
16:17:01,10.63
16:17:01.015625,19.97
16:17:01.031250,24.82
16:17:01.046875,26.50
16:17:01.062500,26.37
16:17:01.078125,25.40
16:17:01.093750,24.09
16:17:01.109375,22.68
16:17:01.125000,21.43
16:17:01.140625,20.71
16:17:01.156250,20.93
16:17:01.171875,22.23
16:17:01.187500,24.38
16:17:01.203125,26.77
16:17:01.218750,28.57
16:17:01.234375,29.04
16:17:01.250000,27.84
16:17:01.265625,25.09
16:17:01.281250,21.38
16:17:01.296875,17.52
16:17:01.312500,14.22
16:17:01.328125,11.82
16:17:01.343750,10.12
16:17:01.359375,8.46
16:17:01.375000,5.97
16:17:01.390625,1.90
16:17:01.406250,-4.11
16:17:01.421875,-11.84
16:17:01.437500,-20.51
16:17:01.453125,-29.02
16:17:01.468750,-36.34
16:17:01.484375,-41.90
16:17:01.500000,-45.86
16:17:01.515625,-48.90
16:17:01.531250,-51.79
16:17:01.546875,-54.70
16:17:01.562500,-56.85
16:17:01.578125,-56.68
16:17:01.593750,-52.67
16:17:01.609375,-44.24
16:17:01.625000,-32.21
16:17:01.640625,-18.30
16:17:01.656250,-4.06
16:17:01.671875,10.16
16:17:01.687500,25.25
16:17:01.703125,42.35
16:17:01.718750,61.72
16:17:01.734375,82.26
16:17:01.750000,102.22
16:17:01.765625,120.56
16:17:01.781250,137.83
16:17:01.796875,155.53
16:17:01.812500,174.43
16:17:01.828125,192.96
16:17:01.843750,207.19
16:17:01.859375,212.60
16:17:01.875000,206.81
16:17:01.890625,191.26
16:17:01.906250,170.59
16:17:01.921875,150.24
16:17:01.937500,133.63
16:17:01.953125,120.80
16:17:01.968750,109.24
16:17:01.984375,96.18
16:17:02,80.71
16:17:02.015625,64.55
16:17:02.031250,51.19
16:17:02.046875,44.09
16:17:02.062500,45.03
16:17:02.078125,53.51
16:17:02.093750,67.02
16:17:02.109375,82.05
16:17:02.125000,95.11
16:17:02.140625,103.56
16:17:02.156250,105.94
16:17:02.171875,101.81
16:17:02.187500,91.31
16:17:02.203125,74.47
16:17:02.218750,50.88
16:17:02.234375,19.86
16:17:02.250000,-19.21
16:17:02.265625,-66.28
16:17:02.281250,-120.59
16:17:02.296875,-180.73
16:17:02.312500,-244.79
16:17:02.328125,-310.20
16:17:02.343750,-373.62
16:17:02.359375,-431.03
16:17:02.375000,-478.42
16:17:02.390625,-512.77
16:17:02.406250,-532.81
16:17:02.421875,-539.21
16:17:02.437500,-533.77
16:17:02.453125,-518.50
16:17:02.468750,-494.89
16:17:02.484375,-463.91
16:17:02.500000,-426.57
16:17:02.515625,-384.39
16:17:02.531250,-339.63
16:17:02.546875,-295.20
16:17:02.562500,-254.24
16:17:02.578125,-219.80
16:17:02.593750,-194.15
16:17:02.609375,-178.03
16:17:02.625000,-169.84
16:17:02.640625,-165.50
16:17:02.656250,-159.46
16:17:02.671875,-146.64
16:17:02.687500,-124.42
16:17:02.703125,-93.65
16:17:02.718750,-58.05
16:17:02.734375,-22.38
16:17:02.750000,9.58
16:17:02.765625,36.18
16:17:02.781250,57.66
16:17:02.796875,75.08
16:17:02.812500,89.16
16:17:02.828125,100.02
16:17:02.843750,107.53
16:17:02.859375,112.09
16:17:02.875000,114.97
16:17:02.890625,118.09
16:17:02.906250,123.29
16:17:02.921875,131.48
16:17:02.937500,142.24
16:17:02.953125,154.04
16:17:02.968750,164.82
16:17:02.984375,172.90
16:17:03,177.56
16:17:03.015625,179.21
16:17:03.031250,179.01
16:17:03.046875,178.20
16:17:03.062500,177.46
16:17:03.078125,176.61
16:17:03.093750,174.77
16:17:03.109375,170.88
16:17:03.125000,164.26
16:17:03.140625,155.03
16:17:03.156250,144.10
16:17:03.171875,132.81
16:17:03.187500,122.44
16:17:03.203125,113.71
16:17:03.218750,106.55
16:17:03.234375,100.24
16:17:03.250000,93.70
16:17:03.265625,85.98
16:17:03.281250,76.55
16:17:03.296875,65.61
16:17:03.312500,53.94
16:17:03.328125,42.60
16:17:03.343750,32.45
16:17:03.359375,23.78
16:17:03.375000,16.14
16:17:03.390625,8.51
16:17:03.406250,-0.35
16:17:03.421875,-11.55
16:17:03.437500,-25.59
16:17:03.453125,-42.10
16:17:03.468750,-59.62
16:17:03.484375,-75.62
16:17:03.500000,-86.88
16:17:03.515625,-90.36
16:17:03.531250,-84.25
16:17:03.546875,-68.72
16:17:03.562500,-46.16
16:17:03.578125,-20.39
16:17:03.593750,4.54
16:17:03.609375,25.68
16:17:03.625000,41.84
16:17:03.640625,53.49
16:17:03.656250,61.96
16:17:03.671875,68.64
16:17:03.687500,74.35
16:17:03.703125,79.29
16:17:03.718750,83.37
16:17:03.734375,86.49
16:17:03.750000,88.73
16:17:03.765625,90.38
16:17:03.781250,91.71
16:17:03.796875,92.88
16:17:03.812500,93.82
16:17:03.828125,94.26
16:17:03.843750,93.92
16:17:03.859375,92.66
16:17:03.875000,90.62
16:17:03.890625,88.13
16:17:03.906250,85.59
16:17:03.921875,83.19
16:17:03.937500,80.68
16:17:03.953125,77.54
