18:01:33,-0.00
18:01:33.015625,-0.00
18:01:33.031250,-0.00
18:01:33.046875,-0.00
18:01:33.062500,-0.00
18:01:33.078125,-0.00
18:01:33.093750,-0.00
18:01:33.109375,-0.00
18:01:33.125000,-0.00
18:01:33.140625,-0.01
18:01:33.156250,-0.00
18:01:33.171875,0.00
18:01:33.187500,0.01
18:01:33.203125,0.01
18:01:33.218750,-0.00
18:01:33.234375,-0.03
18:01:33.250000,-0.05
18:01:33.265625,-0.05
18:01:33.281250,-0.00
18:01:33.296875,0.13
18:01:33.312500,0.36
18:01:33.328125,0.66
18:01:33.343750,1.01
18:01:33.359375,1.37
18:01:33.375000,1.72
18:01:33.390625,2.06
18:01:33.406250,2.40
18:01:33.421875,2.77
18:01:33.437500,3.24
18:01:33.453125,3.80
18:01:33.468750,4.42
18:01:33.484375,5.06
18:01:33.500000,5.66
18:01:33.515625,6.20
18:01:33.531250,6.68
18:01:33.546875,7.15
18:01:33.562500,7.64
18:01:33.578125,8.31
18:01:33.593750,9.14
18:01:33.609375,10.09
18:01:33.625000,11.04
18:01:33.640625,11.88
18:01:33.656250,12.56
18:01:33.671875,13.14
18:01:33.687500,13.76
18:01:33.703125,14.58
18:01:33.718750,15.96
18:01:33.734375,17.91
18:01:33.750000,20.32
18:01:33.765625,22.90
18:01:33.781250,25.38
18:01:33.796875,27.58
18:01:33.812500,29.57
18:01:33.828125,31.68
18:01:33.843750,34.20
18:01:33.859375,37.81
18:01:33.875000,42.54
18:01:33.890625,48.15
18:01:33.906250,54.10
18:01:33.921875,59.83
18:01:33.937500,64.97
18:01:33.953125,69.58
18:01:33.968750,74.14
18:01:33.984375,79.19
18:01:34,85.71
18:01:34.015625,93.76
18:01:34.031250,103.00
18:01:34.046875,112.62
18:01:34.062500,121.73
18:01:34.078125,129.77
18:01:34.093750,136.75
18:01:34.109375,144.29
18:01:34.125000,150.58
18:01:34.140625,157.77
18:01:34.156250,166.64
18:01:34.171875,177.95
18:01:34.187500,191.79
18:01:34.203125,206.97
18:01:34.218750,220.57
18:01:34.234375,228.25
18:01:34.250000,225.36
18:01:34.265625,208.38
18:01:34.281250,176.87
18:01:34.296875,132.76
18:01:34.312500,80.05
18:01:34.328125,23.06
18:01:34.343750,-34.95
18:01:34.359375,-92.43
18:01:34.375000,-149.13
18:01:34.390625,-205.19
18:01:34.406250,-260.45
18:01:34.421875,-313.74
18:01:34.437500,-363.95
18:01:34.453125,-410.03
18:01:34.468750,-451.22
18:01:34.484375,-486.92
18:01:34.500000,-516.22
18:01:34.515625,-537.73
18:01:34.531250,-549.70
18:01:34.546875,-550.50
18:01:34.562500,-538.84
18:01:34.578125,-514.74
18:01:34.593750,-479.32
18:01:34.609375,-434.64
18:01:34.625000,-383.31
18:01:34.640625,-327.92
18:01:34.656250,-270.72
18:01:34.671875,-213.47
18:01:34.687500,-157.50
18:01:34.703125,-103.82
18:01:34.718750,-53.41
18:01:34.734375,-7.21
18:01:34.750000,33.98
18:01:34.765625,69.60
18:01:34.781250,99.44
18:01:34.796875,123.65
18:01:34.812500,142.65
18:01:34.828125,156.99
18:01:34.843750,167.26
18:01:34.859375,173.97
18:01:34.875000,177.59
18:01:34.890625,178.58
18:01:34.906250,177.42
18:01:34.921875,174.56
18:01:34.937500,170.37
18:01:34.953125,165.06
18:01:34.968750,158.72
18:01:34.984375,151.35
18:01:35,143.05
18:01:35.015625,134.04
18:01:35.031250,124.77
18:01:35.046875,115.74
18:01:35.062500,107.36
18:01:35.078125,99.74
18:01:35.093750,92.65
18:01:35.109375,85.59
18:01:35.125000,78.04
18:01:35.140625,69.75
18:01:35.156250,60.89
18:01:35.171875,52.03
18:01:35.187500,43.86
18:01:35.203125,36.92
18:01:35.218750,31.34
18:01:35.234375,26.77
18:01:35.250000,22.59
18:01:35.265625,18.16
18:01:35.281250,12.97
18:01:35.296875,6.70
18:01:35.312500,-0.69
18:01:35.328125,-8.79
18:01:35.343750,-16.46
18:01:35.359375,-21.78
18:01:35.375000,-22.56
18:01:35.390625,-17.17
18:01:35.406250,-5.49
18:01:35.421875,10.64
18:01:35.437500,27.90
18:01:35.453125,42.69
18:01:35.468750,52.44
18:01:35.484375,56.52
18:01:35.500000,56.01
18:01:35.515625,52.79
18:01:35.531250,48.58
18:01:35.546875,44.23
18:01:35.562500,39.94
18:01:35.578125,35.67
18:01:35.593750,31.65
18:01:35.609375,28.38
18:01:35.625000,26.23
18:01:35.640625,25.18
18:01:35.656250,24.59
18:01:35.671875,23.57
18:01:35.687500,21.39
18:01:35.703125,17.85
18:01:35.718750,13.39
18:01:35.734375,8.80
18:01:35.750000,5.06
18:01:35.765625,2.97
18:01:35.781250,2.99
18:01:35.796875,5.04
18:01:35.812500,8.44
18:01:35.828125,11.97
18:01:35.843750,14.25
18:01:35.859375,14.27
18:01:35.875000,11.85
18:01:35.890625,7.74
18:01:35.906250,3.30
18:01:35.921875,-0.22
18:01:35.937500,-2.20
18:01:35.953125,-2.90
18:01:35.968750,-3.06
18:01:35.984375,-3.44
18:01:36,-4.25
18:01:36.015625,-5.21
18:01:36.031250,-5.82
18:01:36.046875,-5.77
18:01:36.062500,-5.20
18:01:36.078125,-4.58
18:01:36.093750,-4.40
18:01:36.109375,-4.90
18:01:36.125000,-5.94
18:01:36.140625,-7.05
18:01:36.156250,-7.68
18:01:36.171875,-7.46
18:01:36.187500,-6.28
18:01:36.203125,-4.37
18:01:36.218750,-2.15
18:01:36.234375,-0.05
18:01:36.250000,1.65
18:01:36.265625,2.93
18:01:36.281250,3.91
18:01:36.296875,4.78
18:01:36.312500,5.62
18:01:36.328125,6.39
18:01:36.343750,7.01
18:01:36.359375,7.40
18:01:36.375000,7.55
18:01:36.390625,7.55
18:01:36.406250,7.47
18:01:36.421875,7.31
18:01:36.437500,6.98
18:01:36.453125,6.40
18:01:36.468750,5.55
18:01:36.484375,4.57
18:01:36.500000,3.70
18:01:36.515625,3.19
18:01:36.531250,3.21
18:01:36.546875,3.81
18:01:36.562500,4.93
18:01:36.578125,6.43
18:01:36.593750,8.14
18:01:36.609375,9.85
18:01:36.625000,11.35
18:01:36.640625,12.41
18:01:36.656250,12.81
18:01:36.671875,12.40
18:01:36.687500,11.22
18:01:36.703125,9.43
18:01:36.718750,7.33
18:01:36.734375,5.22
18:01:36.750000,3.16
18:01:36.765625,1.03
18:01:36.781250,-1.35
18:01:36.796875,-4.19
18:01:36.812500,-7.52
18:01:36.828125,-11.08
18:01:36.843750,-14.39
18:01:36.859375,-16.89
18:01:36.875000,-18.19
18:01:36.890625,-18.26
18:01:36.906250,-17.43
18:01:36.921875,-16.28
18:01:36.937500,-15.40
18:01:36.953125,-15.11
18:01:36.968750,-15.42
18:01:36.984375,-16.02
18:01:37,-16.52
18:01:37.015625,-16.67
18:01:37.031250,-16.43
18:01:37.046875,-15.98
18:01:37.062500,-15.57
18:01:37.078125,-15.38
18:01:37.093750,-15.40
18:01:37.109375,-15.47
18:01:37.125000,-15.28
18:01:37.140625,-14.62
18:01:37.156250,-13.37
18:01:37.171875,-11.56
18:01:37.187500,-9.33
18:01:37.203125,-6.83
18:01:37.218750,-4.22
18:01:37.234375,-1.59
18:01:37.250000,0.95
18:01:37.265625,3.32
18:01:37.281250,5.40
18:01:37.296875,7.08
18:01:37.312500,8.24
18:01:37.328125,8.88
18:01:37.343750,9.07
18:01:37.359375,8.85
18:01:37.375000,8.34
18:01:37.390625,7.65
18:01:37.406250,6.89
18:01:37.421875,6.20
18:01:37.437500,5.66
18:01:37.453125,5.23
18:01:37.468750,4.82
18:01:37.484375,4.25
18:01:37.500000,3.35
18:01:37.515625,2.08
18:01:37.531250,0.54
18:01:37.546875,-1.06
18:01:37.562500,-2.45
18:01:37.578125,-3.48
18:01:37.593750,-4.09
18:01:37.609375,-4.28
18:01:37.625000,-4.08
18:01:37.640625,-3.51
18:01:37.656250,-2.56
18:01:37.671875,-1.24
18:01:37.687500,0.38
18:01:37.703125,2.22
18:01:37.718750,4.19
18:01:37.734375,5.91
18:01:37.750000,7.20
18:01:37.765625,8.00
18:01:37.781250,8.30
18:01:37.796875,8.14
18:01:37.812500,7.54
18:01:37.828125,6.49
18:01:37.843750,5.01
18:01:37.859375,3.09
18:01:37.875000,0.79
18:01:37.890625,-1.80
18:01:37.906250,-4.52
18:01:37.921875,-7.22
18:01:37.937500,-9.70
18:01:37.953125,-11.80
18:01:37.968750,-13.40
18:01:37.984375,-14.51
18:01:38,-15.27
18:01:38.015625,-15.95
18:01:38.031250,-16.81
18:01:38.046875,-18.10
18:01:38.062500,-19.99
18:01:38.078125,-22.47
18:01:38.093750,-25.41
18:01:38.109375,-28.48
18:01:38.125000,-31.25
18:01:38.140625,-33.25
18:01:38.156250,-34.12
18:01:38.171875,-33.62
18:01:38.187500,-31.78
18:01:38.203125,-28.78
18:01:38.218750,-24.93
18:01:38.234375,-20.57
18:01:38.250000,-16.00
18:01:38.265625,-11.48
18:01:38.281250,-7.16
18:01:38.296875,-3.16
18:01:38.312500,0.51
18:01:38.328125,3.82
18:01:38.343750,6.72
18:01:38.359375,9.13
18:01:38.375000,10.99
18:01:38.390625,12.28
18:01:38.406250,13.16
18:01:38.421875,13.83
18:01:38.437500,14.55
18:01:38.453125,15.41
18:01:38.468750,16.33
18:01:38.484375,17.05
18:01:38.500000,17.28
18:01:38.515625,16.89
18:01:38.531250,15.96
18:01:38.546875,14.73
18:01:38.562500,13.50
18:01:38.578125,12.43
18:01:38.593750,11.55
18:01:38.609375,10.74
18:01:38.625000,9.89
18:01:38.640625,8.92
18:01:38.656250,7.83
18:01:38.671875,6.64
18:01:38.687500,5.36
18:01:38.703125,4.06
18:01:38.718750,2.80
18:01:38.734375,1.78
18:01:38.750000,1.17
18:01:38.765625,1.11
18:01:38.781250,1.58
18:01:38.796875,2.46
18:01:38.812500,3.51
18:01:38.828125,4.54
18:01:38.843750,5.44
18:01:38.859375,6.23
18:01:38.875000,6.97
18:01:38.890625,7.68
18:01:38.906250,8.37
18:01:38.921875,8.93
18:01:38.937500,9.25
18:01:38.953125,9.19
18:01:38.968750,8.60
18:01:38.984375,7.37
18:01:39,5.46
18:01:39.015625,3.00
18:01:39.031250,0.30
18:01:39.046875,-2.21
18:01:39.062500,-4.09
18:01:39.078125,-4.97
18:01:39.093750,-4.71
18:01:39.109375,-3.37
18:01:39.125000,-1.13
18:01:39.140625,1.71
18:01:39.156250,4.87
18:01:39.171875,8.06
18:01:39.187500,11.02
18:01:39.203125,13.51
18:01:39.218750,15.35
18:01:39.234375,16.53
18:01:39.250000,17.10
18:01:39.265625,17.23
18:01:39.281250,17.08
18:01:39.296875,16.79
18:01:39.312500,16.44
18:01:39.328125,16.09
18:01:39.343750,15.76
18:01:39.359375,15.45
18:01:39.375000,15.07
18:01:39.390625,14.47
18:01:39.406250,13.48
18:01:39.421875,12.04
18:01:39.437500,10.22
18:01:39.453125,8.27
18:01:39.468750,6.51
18:01:39.484375,5.21
18:01:39.500000,4.48
18:01:39.515625,4.21
18:01:39.531250,4.15
18:01:39.546875,4.00
18:01:39.562500,3.54
18:01:39.578125,2.70
18:01:39.593750,1.57
18:01:39.609375,0.32
18:01:39.625000,-0.87
18:01:39.640625,-1.94
18:01:39.656250,-2.96
18:01:39.671875,-4.05
18:01:39.687500,-5.32
18:01:39.703125,-6.77
18:01:39.718750,-8.29
18:01:39.734375,-9.73
18:01:39.750000,-11.01
18:01:39.765625,-12.17
18:01:39.781250,-13.32
18:01:39.796875,-14.61
18:01:39.812500,-16.15
18:01:39.828125,-17.94
18:01:39.843750,-19.97
18:01:39.859375,-22.18
18:01:39.875000,-24.46
18:01:39.890625,-26.64
18:01:39.906250,-28.44
18:01:39.921875,-29.56
18:01:39.937500,-29.72
18:01:39.953125,-28.77
18:01:39.968750,-26.74
18:01:39.984375,-23.82
18:01:40,-20.30
18:01:40.015625,-16.52
18:01:40.031250,-12.72
18:01:40.046875,-9.10
18:01:40.062500,-5.71
18:01:40.078125,-2.50
18:01:40.093750,0.64
18:01:40.109375,3.82
18:01:40.125000,7.05
18:01:40.140625,10.25
18:01:40.156250,13.23
18:01:40.171875,15.73
18:01:40.187500,17.56
18:01:40.203125,18.63
18:01:40.218750,19.03
18:01:40.234375,18.94
18:01:40.250000,18.63
18:01:40.265625,18.35
18:01:40.281250,18.28
18:01:40.296875,18.47
18:01:40.312500,18.87
18:01:40.328125,19.35
18:01:40.343750,19.79
18:01:40.359375,20.13
18:01:40.375000,20.34
18:01:40.390625,20.41
18:01:40.406250,20.28
18:01:40.421875,19.81
18:01:40.437500,18.86
18:01:40.453125,17.36
18:01:40.468750,15.34
18:01:40.484375,12.98
18:01:40.500000,10.53
18:01:40.515625,8.22
18:01:40.531250,6.19
18:01:40.546875,4.48
18:01:40.562500,2.98
18:01:40.578125,1.55
18:01:40.593750,0.01
18:01:40.609375,-1.77
18:01:40.625000,-3.85
18:01:40.640625,-6.21
18:01:40.656250,-8.77
18:01:40.671875,-11.42
18:01:40.687500,-14.00
18:01:40.703125,-16.41
18:01:40.718750,-18.58
18:01:40.734375,-20.50
18:01:40.750000,-22.19
18:01:40.765625,-23.75
18:01:40.781250,-25.23
18:01:40.796875,-26.70
18:01:40.812500,-28.13
18:01:40.828125,-29.40
18:01:40.843750,-30.29
18:01:40.859375,-30.51
18:01:40.875000,-29.78
18:01:40.890625,-27.94
18:01:40.906250,-25.04
18:01:40.921875,-21.28
18:01:40.937500,-17.00
18:01:40.953125,-12.53
18:01:40.968750,-8.10
18:01:40.984375,-3.79
18:01:41,0.44
18:01:41.015625,4.62
18:01:41.031250,8.75
18:01:41.046875,12.77
18:01:41.062500,16.53
18:01:41.078125,19.91
18:01:41.093750,22.74
18:01:41.109375,24.92
18:01:41.125000,26.39
18:01:41.140625,27.16
18:01:41.156250,27.34
18:01:41.171875,27.07
18:01:41.187500,26.53
18:01:41.203125,25.81
18:01:41.218750,25.00
18:01:41.234375,24.10
18:01:41.250000,23.13
18:01:41.265625,22.14
18:01:41.281250,21.15
18:01:41.296875,20.18
18:01:41.312500,19.14
18:01:41.328125,17.91
18:01:41.343750,16.33
18:01:41.359375,14.33
18:01:41.375000,11.88
18:01:41.390625,9.10
18:01:41.406250,6.14
18:01:41.421875,3.18
18:01:41.437500,0.32
18:01:41.453125,-2.40
18:01:41.468750,-4.96
18:01:41.484375,-7.36
18:01:41.500000,-9.48
18:01:41.515625,-11.14
18:01:41.531250,-12.18
18:01:41.546875,-12.53
18:01:41.562500,-12.31
18:01:41.578125,-11.78
18:01:41.593750,-11.31
18:01:41.609375,-11.15
18:01:41.625000,-11.38
18:01:41.640625,-11.90
18:01:41.656250,-12.53
18:01:41.671875,-13.12
18:01:41.687500,-13.60
18:01:41.703125,-14.09
18:01:41.718750,-14.78
18:01:41.734375,-15.90
18:01:41.750000,-17.64
18:01:41.765625,-20.07
18:01:41.781250,-23.10
18:01:41.796875,-26.41
18:01:41.812500,-29.51
18:01:41.828125,-31.74
18:01:41.843750,-32.54
18:01:41.859375,-31.51
18:01:41.875000,-28.70
18:01:41.890625,-24.48
18:01:41.906250,-19.49
18:01:41.921875,-14.38
18:01:41.937500,-9.62
18:01:41.953125,-5.41
18:01:41.968750,-1.71
18:01:41.984375,1.58
18:01:42,4.54
18:01:42.015625,7.08
18:01:42.031250,9.10
18:01:42.046875,10.48
18:01:42.062500,11.21
18:01:42.078125,11.45
18:01:42.093750,11.41
18:01:42.109375,11.38
18:01:42.125000,11.59
18:01:42.140625,12.17
18:01:42.156250,13.13
18:01:42.171875,14.37
18:01:42.187500,15.69
18:01:42.203125,16.90
18:01:42.218750,17.87
18:01:42.234375,18.54
18:01:42.250000,18.93
18:01:42.265625,19.06
18:01:42.281250,18.86
18:01:42.296875,18.19
18:01:42.312500,16.91
18:01:42.328125,14.98
18:01:42.343750,12.56
18:01:42.359375,10.04
18:01:42.375000,7.90
18:01:42.390625,6.60
18:01:42.406250,6.41
18:01:42.421875,7.30
18:01:42.437500,8.99
18:01:42.453125,11.02
18:01:42.468750,12.91
18:01:42.484375,14.24
18:01:42.500000,14.81
18:01:42.515625,14.59
18:01:42.531250,13.68
18:01:42.546875,12.22
18:01:42.562500,10.32
18:01:42.578125,8.01
18:01:42.593750,5.30
18:01:42.609375,2.23
18:01:42.625000,-1.07
18:01:42.640625,-4.37
18:01:42.656250,-7.36
18:01:42.671875,-9.81
18:01:42.687500,-11.58
18:01:42.703125,-12.69
18:01:42.718750,-13.28
18:01:42.734375,-13.62
18:01:42.750000,-14.02
18:01:42.765625,-14.71
18:01:42.781250,-15.83
18:01:42.796875,-17.31
18:01:42.812500,-18.92
18:01:42.828125,-20.31
18:01:42.843750,-21.19
18:01:42.859375,-21.40
18:01:42.875000,-20.95
18:01:42.890625,-19.93
18:01:42.906250,-18.43
18:01:42.921875,-16.50
18:01:42.937500,-14.08
18:01:42.953125,-11.15
18:01:42.968750,-7.65
18:01:42.984375,-3.62
18:01:43,0.89
18:01:43.015625,5.71
18:01:43.031250,10.61
18:01:43.046875,15.27
18:01:43.062500,19.28
18:01:43.078125,22.32
18:01:43.093750,24.21
18:01:43.109375,25.01
18:01:43.125000,24.95
18:01:43.140625,24.36
18:01:43.156250,23.53
18:01:43.171875,22.62
18:01:43.187500,21.76
18:01:43.203125,20.99
18:01:43.218750,20.41
18:01:43.234375,20.11
18:01:43.250000,20.16
18:01:43.265625,20.54
18:01:43.281250,21.13
18:01:43.296875,21.76
18:01:43.312500,22.26
18:01:43.328125,22.55
18:01:43.343750,22.64
18:01:43.359375,22.61
18:01:43.375000,22.53
18:01:43.390625,22.41
18:01:43.406250,22.12
18:01:43.421875,21.47
18:01:43.437500,20.27
18:01:43.453125,18.43
18:01:43.468750,16.06
18:01:43.484375,13.44
18:01:43.500000,10.91
18:01:43.515625,8.82
18:01:43.531250,7.32
18:01:43.546875,6.39
18:01:43.562500,5.81
18:01:43.578125,5.25
18:01:43.593750,4.37
18:01:43.609375,2.94
18:01:43.625000,0.88
18:01:43.640625,-1.68
18:01:43.656250,-4.51
18:01:43.671875,-7.34
18:01:43.687500,-9.97
18:01:43.703125,-12.36
18:01:43.718750,-14.56
18:01:43.734375,-16.70
18:01:43.750000,-18.89
18:01:43.765625,-21.15
18:01:43.781250,-23.46
18:01:43.796875,-25.68
18:01:43.812500,-27.63
18:01:43.828125,-29.09
18:01:43.843750,-29.84
18:01:43.859375,-29.74
18:01:43.875000,-28.73
18:01:43.890625,-26.94
18:01:43.906250,-24.58
18:01:43.921875,-21.93
18:01:43.937500,-19.25
18:01:43.953125,-16.75
18:01:43.968750,-14.49
18:01:43.984375,-12.46
18:01:44,-10.59
18:01:44.015625,-8.73
18:01:44.031250,-6.78
18:01:44.046875,-4.70
18:01:44.062500,-2.57
18:01:44.078125,-0.57
18:01:44.093750,1.06
18:01:44.109375,2.19
18:01:44.125000,2.82
18:01:44.140625,3.10
18:01:44.156250,3.28
18:01:44.171875,3.52
18:01:44.187500,3.87
18:01:44.203125,4.26
18:01:44.218750,4.61
18:01:44.234375,4.84
18:01:44.250000,4.94
18:01:44.265625,4.97
18:01:44.281250,4.95
18:01:44.296875,4.89
18:01:44.312500,4.77
18:01:44.328125,4.56
18:01:44.343750,4.30
18:01:44.359375,4.05
18:01:44.375000,3.87
18:01:44.390625,3.76
18:01:44.406250,3.68
18:01:44.421875,3.53
18:01:44.437500,3.21
18:01:44.453125,2.71
18:01:44.468750,2.05
18:01:44.484375,1.33
18:01:44.500000,0.65
18:01:44.515625,0.11
18:01:44.531250,-0.26
18:01:44.546875,-0.52
18:01:44.562500,-0.79
18:01:44.578125,-1.27
18:01:44.593750,-2.10
18:01:44.609375,-3.36
18:01:44.625000,-4.95
18:01:44.640625,-6.69
18:01:44.656250,-8.32
18:01:44.671875,-9.62
18:01:44.687500,-10.53
18:01:44.703125,-11.09
18:01:44.718750,-11.48
18:01:44.734375,-11.86
18:01:44.750000,-12.39
18:01:44.765625,-13.11
18:01:44.781250,-14.02
18:01:44.796875,-15.04
18:01:44.812500,-16.05
18:01:44.828125,-16.86
18:01:44.843750,-17.32
18:01:44.859375,-17.29
18:01:44.875000,-16.72
18:01:44.890625,-15.64
18:01:44.906250,-14.19
18:01:44.921875,-12.48
18:01:44.937500,-10.67
18:01:44.953125,-8.85
18:01:44.968750,-7.04
18:01:44.984375,-5.19
18:01:45,-3.16
18:01:45.015625,-0.82
18:01:45.031250,1.91
18:01:45.046875,4.93
18:01:45.062500,8.01
18:01:45.078125,10.82
18:01:45.093750,13.04
18:01:45.109375,14.53
18:01:45.125000,15.33
18:01:45.140625,15.61
18:01:45.156250,15.55
18:01:45.171875,15.30
18:01:45.187500,14.90
18:01:45.203125,14.37
18:01:45.218750,13.76
18:01:45.234375,13.12
18:01:45.250000,12.54
18:01:45.265625,12.05
18:01:45.281250,11.65
18:01:45.296875,11.31
18:01:45.312500,11.04
18:01:45.328125,10.86
18:01:45.343750,10.76
18:01:45.359375,10.72
18:01:45.375000,10.61
18:01:45.390625,10.29
18:01:45.406250,9.63
18:01:45.421875,8.60
18:01:45.437500,7.24
18:01:45.453125,5.67
18:01:45.468750,4.04
18:01:45.484375,2.41
18:01:45.500000,0.83
18:01:45.515625,-0.69
18:01:45.531250,-2.18
18:01:45.546875,-3.61
18:01:45.562500,-4.91
18:01:45.578125,-6.02
18:01:45.593750,-6.86
18:01:45.609375,-7.47
18:01:45.625000,-7.95
18:01:45.640625,-8.43
18:01:45.656250,-9.08
18:01:45.671875,-9.94
18:01:45.687500,-11.01
18:01:45.703125,-12.20
18:01:45.718750,-13.42
18:01:45.734375,-14.65
18:01:45.750000,-15.95
18:01:45.765625,-17.41
18:01:45.781250,-19.04
18:01:45.796875,-20.71
18:01:45.812500,-22.13
18:01:45.828125,-22.91
18:01:45.843750,-22.72
18:01:45.859375,-21.41
18:01:45.875000,-19.11
18:01:45.890625,-16.11
18:01:45.906250,-12.84
18:01:45.921875,-9.62
18:01:45.937500,-6.66
18:01:45.953125,-4.01
18:01:45.968750,-1.61
18:01:45.984375,0.59
18:01:46,2.57
18:01:46.015625,4.26
18:01:46.031250,5.49
18:01:46.046875,6.08
18:01:46.062500,5.92
18:01:46.078125,5.03
18:01:46.093750,3.52
18:01:46.109375,1.61
18:01:46.125000,-0.47
18:01:46.140625,-2.53
18:01:46.156250,-4.45
18:01:46.171875,-6.16
18:01:46.187500,-7.64
18:01:46.203125,-8.81
18:01:46.218750,-9.63
18:01:46.234375,-10.03
18:01:46.250000,-10.00
18:01:46.265625,-9.60
18:01:46.281250,-8.92
18:01:46.296875,-8.05
18:01:46.312500,-7.07
18:01:46.328125,-6.05
18:01:46.343750,-5.09
18:01:46.359375,-4.30
18:01:46.375000,-3.80
18:01:46.390625,-3.62
18:01:46.406250,-3.71
18:01:46.421875,-3.95
18:01:46.437500,-4.20
18:01:46.453125,-4.42
18:01:46.468750,-4.61
18:01:46.484375,-4.83
18:01:46.500000,-5.16
18:01:46.515625,-5.59
18:01:46.531250,-6.08
18:01:46.546875,-6.57
18:01:46.562500,-7.07
18:01:46.578125,-7.63
18:01:46.593750,-8.32
18:01:46.609375,-9.17
18:01:46.625000,-10.11
18:01:46.640625,-11.04
18:01:46.656250,-11.80
18:01:46.671875,-12.31
18:01:46.687500,-12.56
18:01:46.703125,-12.66
18:01:46.718750,-12.80
18:01:46.734375,-13.17
18:01:46.750000,-13.88
18:01:46.765625,-14.92
18:01:46.781250,-16.13
18:01:46.796875,-17.18
18:01:46.812500,-17.74
18:01:46.828125,-17.53
18:01:46.843750,-16.39
18:01:46.859375,-14.37
18:01:46.875000,-11.65
18:01:46.890625,-8.49
18:01:46.906250,-5.11
18:01:46.921875,-1.68
18:01:46.937500,1.75
18:01:46.953125,5.18
18:01:46.968750,8.66
18:01:46.984375,12.18
18:01:47,15.70
18:01:47.015625,19.09
18:01:47.031250,22.19
18:01:47.046875,24.78
18:01:47.062500,26.75
18:01:47.078125,28.06
18:01:47.093750,28.78
18:01:47.109375,29.08
18:01:47.125000,29.14
18:01:47.140625,29.10
18:01:47.156250,29.10
18:01:47.171875,29.23
18:01:47.187500,29.56
18:01:47.203125,30.13
18:01:47.218750,30.86
18:01:47.234375,31.53
18:01:47.250000,31.84
18:01:47.265625,31.47
18:01:47.281250,30.29
18:01:47.296875,28.47
18:01:47.312500,26.44
18:01:47.328125,24.69
18:01:47.343750,23.53
18:01:47.359375,23.00
18:01:47.375000,22.84
18:01:47.390625,22.75
18:01:47.406250,22.56
18:01:47.421875,22.41
18:01:47.437500,22.65
18:01:47.453125,23.60
18:01:47.468750,25.27
18:01:47.484375,27.28
18:01:47.500000,28.97
18:01:47.515625,29.68
18:01:47.531250,29.04
18:01:47.546875,27.10
18:01:47.562500,24.21
18:01:47.578125,20.81
18:01:47.593750,17.16
18:01:47.609375,13.33
18:01:47.625000,9.21
18:01:47.640625,4.59
18:01:47.656250,-0.72
18:01:47.671875,-7.03
18:01:47.687500,-14.74
18:01:47.703125,-24.33
18:01:47.718750,-36.14
18:01:47.734375,-50.00
18:01:47.750000,-65.00
18:01:47.765625,-79.48
18:01:47.781250,-91.46
18:01:47.796875,-99.18
18:01:47.812500,-101.74
18:01:47.828125,-99.31
18:01:47.843750,-92.97
18:01:47.859375,-84.22
18:01:47.875000,-74.43
18:01:47.890625,-64.47
18:01:47.906250,-54.78
18:01:47.921875,-45.51
18:01:47.937500,-36.91
18:01:47.953125,-29.38
18:01:47.968750,-23.32
18:01:47.984375,-18.87
18:01:48,-15.70
18:01:48.015625,-13.06
18:01:48.031250,-10.01
18:01:48.046875,-5.84
18:01:48.062500,-0.25
18:01:48.078125,6.64
18:01:48.093750,14.42
18:01:48.109375,22.65
18:01:48.125000,30.96
18:01:48.140625,39.03
18:01:48.156250,46.52
18:01:48.171875,52.98
18:01:48.187500,57.90
18:01:48.203125,60.90
18:01:48.218750,61.87
18:01:48.234375,61.08
18:01:48.250000,59.04
18:01:48.265625,56.40
18:01:48.281250,53.77
18:01:48.296875,51.59
18:01:48.312500,50.12
18:01:48.328125,49.43
18:01:48.343750,49.41
18:01:48.359375,49.68
18:01:48.375000,49.65
18:01:48.390625,48.56
18:01:48.406250,45.69
18:01:48.421875,40.54
18:01:48.437500,33.09
18:01:48.453125,23.82
18:01:48.468750,13.65
18:01:48.484375,3.69
18:01:48.500000,-5.01
18:01:48.515625,-11.78
18:01:48.531250,-16.40
18:01:48.546875,-19.14
18:01:48.562500,-20.57
18:01:48.578125,-21.38
18:01:48.593750,-22.14
18:01:48.609375,-23.19
18:01:48.625000,-24.62
18:01:48.640625,-26.37
18:01:48.656250,-28.33
18:01:48.671875,-30.37
18:01:48.687500,-32.37
18:01:48.703125,-34.18
18:01:48.718750,-35.65
18:01:48.734375,-36.63
18:01:48.750000,-36.95
18:01:48.765625,-36.57
18:01:48.781250,-35.46
18:01:48.796875,-33.65
18:01:48.812500,-31.23
18:01:48.828125,-28.26
18:01:48.843750,-24.82
18:01:48.859375,-21.00
18:01:48.875000,-16.91
18:01:48.890625,-12.68
18:01:48.906250,-8.47
18:01:48.921875,-4.41
18:01:48.937500,-0.57
18:01:48.953125,3.03
18:01:48.968750,6.41
18:01:48.984375,9.61
18:01:49,12.62
18:01:49.015625,15.33
18:01:49.031250,17.59
18:01:49.046875,19.29
18:01:49.062500,20.47
18:01:49.078125,21.36
18:01:49.093750,22.34
18:01:49.109375,23.79
18:01:49.125000,25.92
18:01:49.140625,28.65
18:01:49.156250,31.57
18:01:49.171875,34.08
18:01:49.187500,35.55
18:01:49.203125,35.56
18:01:49.218750,34.04
18:01:49.234375,31.28
18:01:49.250000,27.83
18:01:49.265625,24.32
18:01:49.281250,21.26
18:01:49.296875,18.90
18:01:49.312500,17.22
18:01:49.328125,15.94
18:01:49.343750,14.68
18:01:49.359375,13.08
18:01:49.375000,10.88
18:01:49.390625,8.07
18:01:49.406250,4.85
18:01:49.421875,1.59
18:01:49.437500,-1.32
18:01:49.453125,-3.58
18:01:49.468750,-5.07
18:01:49.484375,-5.85
18:01:49.500000,-6.08
18:01:49.515625,-5.95
18:01:49.531250,-5.63
18:01:49.546875,-5.24
18:01:49.562500,-4.89
18:01:49.578125,-4.71
18:01:49.593750,-4.79
18:01:49.609375,-5.18
18:01:49.625000,-5.91
18:01:49.640625,-6.92
18:01:49.656250,-8.10
18:01:49.671875,-9.32
18:01:49.687500,-10.37
18:01:49.703125,-10.97
18:01:49.718750,-10.85
18:01:49.734375,-9.81
18:01:49.750000,-7.83
18:01:49.765625,-5.16
18:01:49.781250,-2.23
18:01:49.796875,0.41
18:01:49.812500,2.28
18:01:49.828125,3.14
18:01:49.843750,2.98
18:01:49.859375,2.07
18:01:49.875000,0.80
18:01:49.890625,-0.44
18:01:49.906250,-1.36
18:01:49.921875,-1.80
18:01:49.937500,-1.73
18:01:49.953125,-1.21
18:01:49.968750,-0.33
18:01:49.984375,0.74
18:01:50,1.79
18:01:50.015625,2.56
18:01:50.031250,2.76
18:01:50.046875,2.22
18:01:50.062500,0.92
18:01:50.078125,-0.96
18:01:50.093750,-3.06
18:01:50.109375,-4.92
18:01:50.125000,-6.13
18:01:50.140625,-6.39
18:01:50.156250,-5.61
18:01:50.171875,-3.92
18:01:50.187500,-1.66
18:01:50.203125,0.73
18:01:50.218750,2.81
18:01:50.234375,4.26
18:01:50.250000,4.95
18:01:50.265625,4.88
18:01:50.281250,4.18
18:01:50.296875,2.98
18:01:50.312500,1.36
18:01:50.328125,-0.57
18:01:50.343750,-2.69
18:01:50.359375,-4.80
18:01:50.375000,-6.62
18:01:50.390625,-7.89
18:01:50.406250,-8.46
18:01:50.421875,-8.37
18:01:50.437500,-7.87
18:01:50.453125,-7.32
18:01:50.468750,-7.10
18:01:50.484375,-7.44
18:01:50.500000,-8.44
18:01:50.515625,-10.08
18:01:50.531250,-12.27
18:01:50.546875,-14.89
18:01:50.562500,-17.77
18:01:50.578125,-20.64
18:01:50.593750,-23.12
18:01:50.609375,-24.78
18:01:50.625000,-25.22
18:01:50.640625,-24.23
18:01:50.656250,-21.86
18:01:50.671875,-18.45
18:01:50.687500,-14.50
18:01:50.703125,-10.50
18:01:50.718750,-6.80
18:01:50.734375,-3.56
18:01:50.750000,-0.73
18:01:50.765625,1.79
18:01:50.781250,4.09
18:01:50.796875,6.10
18:01:50.812500,7.69
18:01:50.828125,8.71
18:01:50.843750,9.13
18:01:50.859375,9.14
18:01:50.875000,9.07
18:01:50.890625,9.27
18:01:50.906250,9.98
18:01:50.921875,11.20
18:01:50.937500,12.77
18:01:50.953125,14.42
18:01:50.968750,15.92
18:01:50.984375,17.13
18:01:51,17.97
18:01:51.015625,18.37
18:01:51.031250,18.31
18:01:51.046875,17.76
18:01:51.062500,16.76
18:01:51.078125,15.48
18:01:51.093750,14.15
18:01:51.109375,13.01
18:01:51.125000,12.22
18:01:51.140625,11.81
18:01:51.156250,11.67
18:01:51.171875,11.59
18:01:51.187500,11.30
18:01:51.203125,10.57
18:01:51.218750,9.26
18:01:51.234375,7.40
18:01:51.250000,5.13
18:01:51.265625,2.69
18:01:51.281250,0.25
18:01:51.296875,-2.15
18:01:51.312500,-4.56
18:01:51.328125,-7.02
18:01:51.343750,-9.47
18:01:51.359375,-11.69
18:01:51.375000,-13.42
18:01:51.390625,-14.51
18:01:51.406250,-14.98
18:01:51.421875,-15.10
18:01:51.437500,-15.16
18:01:51.453125,-15.36
18:01:51.468750,-15.73
18:01:51.484375,-16.11
18:01:51.500000,-16.35
18:01:51.515625,-16.37
18:01:51.531250,-16.20
18:01:51.546875,-15.93
18:01:51.562500,-15.66
18:01:51.578125,-15.37
18:01:51.593750,-15.00
18:01:51.609375,-14.47
18:01:51.625000,-13.68
18:01:51.640625,-12.50
18:01:51.656250,-10.78
18:01:51.671875,-8.38
18:01:51.687500,-5.26
18:01:51.703125,-1.60
18:01:51.718750,2.24
18:01:51.734375,5.71
18:01:51.750000,8.30
18:01:51.765625,9.70
18:01:51.781250,9.82
18:01:51.796875,8.86
18:01:51.812500,7.13
18:01:51.828125,4.95
18:01:51.843750,2.60
18:01:51.859375,0.25
18:01:51.875000,-1.97
18:01:51.890625,-3.90
18:01:51.906250,-5.37
18:01:51.921875,-6.11
18:01:51.937500,-5.94
18:01:51.953125,-4.76
18:01:51.968750,-2.80
18:01:51.984375,-0.48
18:01:52,1.61
18:01:52.015625,2.96
18:01:52.031250,3.32
18:01:52.046875,2.76
18:01:52.062500,1.53
18:01:52.078125,-0.07
18:01:52.093750,-1.85
18:01:52.109375,-3.79
18:01:52.125000,-5.85
18:01:52.140625,-7.94
18:01:52.156250,-9.76
18:01:52.171875,-10.96
18:01:52.187500,-11.32
18:01:52.203125,-10.93
18:01:52.218750,-10.19
18:01:52.234375,-9.65
18:01:52.250000,-9.82
18:01:52.265625,-10.91
18:01:52.281250,-12.78
18:01:52.296875,-15.00
18:01:52.312500,-17.03
18:01:52.328125,-18.46
18:01:52.343750,-19.06
18:01:52.359375,-18.86
18:01:52.375000,-18.06
18:01:52.390625,-16.92
18:01:52.406250,-15.66
18:01:52.421875,-14.40
18:01:52.437500,-13.18
18:01:52.453125,-11.96
18:01:52.468750,-10.71
18:01:52.484375,-9.39
18:01:52.500000,-7.96
18:01:52.515625,-6.40
18:01:52.531250,-4.72
18:01:52.546875,-2.99
18:01:52.562500,-1.31
18:01:52.578125,0.17
18:01:52.593750,1.32
18:01:52.609375,2.11
18:01:52.625000,2.56
18:01:52.640625,2.84
18:01:52.656250,3.09
18:01:52.671875,3.46
18:01:52.687500,4.01
18:01:52.703125,4.73
18:01:52.718750,5.57
18:01:52.734375,6.43
18:01:52.750000,7.19
18:01:52.765625,7.72
18:01:52.781250,7.92
18:01:52.796875,7.74
18:01:52.812500,7.21
18:01:52.828125,6.40
18:01:52.843750,5.45
18:01:52.859375,4.46
18:01:52.875000,3.52
18:01:52.890625,2.67
18:01:52.906250,1.89
18:01:52.921875,1.14
18:01:52.937500,0.36
18:01:52.953125,-0.52
18:01:52.968750,-1.54
18:01:52.984375,-2.69
18:01:53,-3.92
18:01:53.015625,-5.12
18:01:53.031250,-6.18
18:01:53.046875,-7.05
18:01:53.062500,-7.73
18:01:53.078125,-8.29
18:01:53.093750,-8.86
18:01:53.109375,-9.64
18:01:53.125000,-10.80
18:01:53.140625,-12.47
18:01:53.156250,-14.63
18:01:53.171875,-17.08
18:01:53.187500,-19.43
18:01:53.203125,-21.23
18:01:53.218750,-22.07
18:01:53.234375,-21.76
18:01:53.250000,-20.33
18:01:53.265625,-18.01
18:01:53.281250,-15.09
18:01:53.296875,-11.86
18:01:53.312500,-8.53
18:01:53.328125,-5.22
18:01:53.343750,-2.03
18:01:53.359375,0.99
18:01:53.375000,3.83
18:01:53.390625,6.54
18:01:53.406250,9.21
18:01:53.421875,11.92
18:01:53.437500,14.68
18:01:53.453125,17.41
18:01:53.468750,19.92
18:01:53.484375,22.05
18:01:53.500000,23.66
18:01:53.515625,24.74
18:01:53.531250,25.35
18:01:53.546875,25.61
18:01:53.562500,25.58
18:01:53.578125,25.30
18:01:53.593750,24.79
18:01:53.609375,24.04
18:01:53.625000,23.05
18:01:53.640625,21.83
18:01:53.656250,20.38
18:01:53.671875,18.73
18:01:53.687500,16.96
18:01:53.703125,15.21
18:01:53.718750,13.63
18:01:53.734375,12.34
18:01:53.750000,11.39
18:01:53.765625,10.72
18:01:53.781250,10.20
18:01:53.796875,9.67
18:01:53.812500,8.97
18:01:53.828125,8.01
18:01:53.843750,6.74
18:01:53.859375,5.22
18:01:53.875000,3.56
18:01:53.890625,1.93
18:01:53.906250,0.51
18:01:53.921875,-0.63
18:01:53.937500,-1.53
18:01:53.953125,-2.35
18:01:53.968750,-3.32
18:01:53.984375,-4.66
18:01:54,-6.53
18:01:54.015625,-8.96
18:01:54.031250,-11.84
18:01:54.046875,-14.91
18:01:54.062500,-17.76
18:01:54.078125,-19.96
18:01:54.093750,-21.18
18:01:54.109375,-21.31
18:01:54.125000,-20.44
18:01:54.140625,-18.81
18:01:54.156250,-16.66
18:01:54.171875,-14.14
18:01:54.187500,-11.31
18:01:54.203125,-8.17
18:01:54.218750,-4.75
18:01:54.234375,-1.18
18:01:54.250000,2.38
18:01:54.265625,5.75
18:01:54.281250,8.79
18:01:54.296875,11.40
18:01:54.312500,13.52
18:01:54.328125,15.11
18:01:54.343750,16.17
18:01:54.359375,16.74
18:01:54.375000,16.92
18:01:54.390625,16.82
18:01:54.406250,16.58
18:01:54.421875,16.32
18:01:54.437500,16.12
18:01:54.453125,16.01
18:01:54.468750,15.97
18:01:54.484375,15.90
18:01:54.500000,15.68
18:01:54.515625,15.17
18:01:54.531250,14.32
18:01:54.546875,13.14
18:01:54.562500,11.73
18:01:54.578125,10.18
18:01:54.593750,8.61
18:01:54.609375,7.10
18:01:54.625000,5.65
18:01:54.640625,4.29
18:01:54.656250,2.97
18:01:54.671875,1.66
18:01:54.687500,0.31
18:01:54.703125,-1.10
18:01:54.718750,-2.55
18:01:54.734375,-3.95
18:01:54.750000,-5.18
18:01:54.765625,-6.13
18:01:54.781250,-6.79
18:01:54.796875,-7.25
18:01:54.812500,-7.72
18:01:54.828125,-8.43
18:01:54.843750,-9.59
18:01:54.859375,-11.26
18:01:54.875000,-13.36
18:01:54.890625,-15.65
18:01:54.906250,-17.82
18:01:54.921875,-19.51
18:01:54.937500,-20.40
18:01:54.953125,-20.25
18:01:54.968750,-18.96
18:01:54.984375,-16.61
18:01:55,-13.45
18:01:55.015625,-9.81
18:01:55.031250,-6.08
18:01:55.046875,-2.51
18:01:55.062500,0.76
18:01:55.078125,3.72
18:01:55.093750,6.45
18:01:55.109375,8.98
18:01:55.125000,11.29
18:01:55.140625,13.31
18:01:55.156250,14.98
18:01:55.171875,16.23
18:01:55.187500,17.07
18:01:55.203125,17.50
18:01:55.218750,17.54
18:01:55.234375,17.23
18:01:55.250000,16.61
18:01:55.265625,15.77
18:01:55.281250,14.79
18:01:55.296875,13.76
18:01:55.312500,12.73
18:01:55.328125,11.79
18:01:55.343750,11.01
18:01:55.359375,10.49
18:01:55.375000,10.29
18:01:55.390625,10.36
18:01:55.406250,10.56
18:01:55.421875,10.64
18:01:55.437500,10.42
18:01:55.453125,9.81
18:01:55.468750,8.94
18:01:55.484375,8.03
18:01:55.500000,7.29
18:01:55.515625,6.83
18:01:55.531250,6.59
18:01:55.546875,6.39
18:01:55.562500,6.08
18:01:55.578125,5.59
18:01:55.593750,4.97
18:01:55.609375,4.36
18:01:55.625000,3.90
18:01:55.640625,3.69
18:01:55.656250,3.75
18:01:55.671875,4.00
18:01:55.687500,4.24
18:01:55.703125,4.18
18:01:55.718750,3.52
18:01:55.734375,2.00
18:01:55.750000,-0.45
18:01:55.765625,-3.71
18:01:55.781250,-7.40
18:01:55.796875,-10.99
18:01:55.812500,-13.93
18:01:55.828125,-15.79
18:01:55.843750,-16.38
18:01:55.859375,-15.77
18:01:55.875000,-14.27
18:01:55.890625,-12.27
18:01:55.906250,-10.12
18:01:55.921875,-8.03
18:01:55.937500,-6.05
18:01:55.953125,-4.12
18:01:55.968750,-2.11
18:01:55.984375,0.04
18:01:56,2.35
18:01:56.015625,4.78
18:01:56.031250,7.26
18:01:56.046875,9.73
18:01:56.062500,12.11
18:01:56.078125,14.29
18:01:56.093750,16.12
18:01:56.109375,17.41
18:01:56.125000,17.99
18:01:56.140625,17.75
18:01:56.156250,16.76
18:01:56.171875,15.20
18:01:56.187500,13.37
18:01:56.203125,11.52
18:01:56.218750,9.82
18:01:56.234375,8.26
18:01:56.250000,6.73
18:01:56.265625,5.09
18:01:56.281250,3.28
18:01:56.296875,1.32
18:01:56.312500,-0.73
18:01:56.328125,-2.75
18:01:56.343750,-4.67
18:01:56.359375,-6.39
18:01:56.375000,-7.84
18:01:56.390625,-8.98
18:01:56.406250,-9.87
18:01:56.421875,-10.70
18:01:56.437500,-11.73
18:01:56.453125,-13.18
18:01:56.468750,-15.06
18:01:56.484375,-17.20
18:01:56.500000,-19.28
18:01:56.515625,-21.02
18:01:56.531250,-22.33
18:01:56.546875,-23.30
18:01:56.562500,-24.17
18:01:56.578125,-25.12
18:01:56.593750,-26.24
18:01:56.609375,-27.49
18:01:56.625000,-28.82
18:01:56.640625,-30.16
18:01:56.656250,-31.51
18:01:56.671875,-32.74
18:01:56.687500,-33.62
18:01:56.703125,-33.80
18:01:56.718750,-32.99
18:01:56.734375,-31.03
18:01:56.750000,-28.07
18:01:56.765625,-24.43
18:01:56.781250,-20.50
18:01:56.796875,-16.57
18:01:56.812500,-12.71
18:01:56.828125,-8.87
18:01:56.843750,-4.95
18:01:56.859375,-0.99
18:01:56.875000,2.85
18:01:56.890625,6.36
18:01:56.906250,9.33
18:01:56.921875,11.69
18:01:56.937500,13.48
18:01:56.953125,14.86
18:01:56.968750,15.94
18:01:56.984375,16.78
18:01:57,17.35
18:01:57.015625,17.62
18:01:57.031250,17.57
18:01:57.046875,17.26
18:01:57.062500,16.79
18:01:57.078125,16.26
18:01:57.093750,15.74
18:01:57.109375,15.27
18:01:57.125000,14.80
18:01:57.140625,14.23
18:01:57.156250,13.46
18:01:57.171875,12.44
18:01:57.187500,11.23
18:01:57.203125,10.03
18:01:57.218750,9.10
18:01:57.234375,8.70
18:01:57.250000,8.91
18:01:57.265625,9.65
18:01:57.281250,10.68
18:01:57.296875,11.73
18:01:57.312500,12.63
18:01:57.328125,13.29
18:01:57.343750,13.75
18:01:57.359375,14.02
18:01:57.375000,14.08
18:01:57.390625,13.89
18:01:57.406250,13.41
18:01:57.421875,12.63
18:01:57.437500,11.54
18:01:57.453125,10.08
18:01:57.468750,8.11
18:01:57.484375,5.46
18:01:57.500000,2.08
18:01:57.515625,-1.88
18:01:57.531250,-6.11
18:01:57.546875,-10.23
18:01:57.562500,-13.97
18:01:57.578125,-17.25
18:01:57.593750,-20.19
18:01:57.609375,-22.88
18:01:57.625000,-25.28
18:01:57.640625,-27.14
18:01:57.656250,-28.11
18:01:57.671875,-27.89
18:01:57.687500,-26.33
18:01:57.703125,-23.49
18:01:57.718750,-19.52
18:01:57.734375,-14.57
18:01:57.750000,-8.78
18:01:57.765625,-2.30
18:01:57.781250,4.61
18:01:57.796875,11.49
18:01:57.812500,17.80
18:01:57.828125,22.97
18:01:57.843750,26.61
18:01:57.859375,28.56
18:01:57.875000,28.94
18:01:57.890625,28.07
18:01:57.906250,26.36
18:01:57.921875,24.22
18:01:57.937500,21.93
18:01:57.953125,19.71
18:01:57.968750,17.67
18:01:57.984375,15.90
18:01:58,14.45
18:01:58.015625,13.42
18:01:58.031250,12.84
18:01:58.046875,12.67
18:01:58.062500,12.75
18:01:58.078125,12.86
18:01:58.093750,12.73
18:01:58.109375,12.23
18:01:58.125000,11.38
18:01:58.140625,10.35
18:01:58.156250,9.32
18:01:58.171875,8.37
18:01:58.187500,7.43
18:01:58.203125,6.35
18:01:58.218750,5.01
18:01:58.234375,3.46
18:01:58.250000,1.88
18:01:58.265625,0.50
18:01:58.281250,-0.60
18:01:58.296875,-1.53
18:01:58.312500,-2.54
18:01:58.328125,-3.89
18:01:58.343750,-5.66
18:01:58.359375,-7.70
18:01:58.375000,-9.71
18:01:58.390625,-11.39
18:01:58.406250,-12.60
18:01:58.421875,-13.37
18:01:58.437500,-13.83
18:01:58.453125,-14.15
18:01:58.468750,-14.40
18:01:58.484375,-14.60
18:01:58.500000,-14.73
18:01:58.515625,-14.78
18:01:58.531250,-14.78
18:01:58.546875,-14.73
18:01:58.562500,-14.62
18:01:58.578125,-14.31
18:01:58.593750,-13.64
18:01:58.609375,-12.43
18:01:58.625000,-10.60
18:01:58.640625,-8.22
18:01:58.656250,-5.48
18:01:58.671875,-2.65
18:01:58.687500,0.01
18:01:58.703125,2.29
18:01:58.718750,4.07
18:01:58.734375,5.33
18:01:58.750000,6.07
18:01:58.765625,6.38
18:01:58.781250,6.37
18:01:58.796875,6.19
18:01:58.812500,6.03
18:01:58.828125,6.04
18:01:58.843750,6.33
18:01:58.859375,6.86
18:01:58.875000,7.51
18:01:58.890625,8.05
18:01:58.906250,8.24
18:01:58.921875,7.93
18:01:58.937500,7.06
18:01:58.953125,5.76
18:01:58.968750,4.27
18:01:58.984375,2.81
18:01:59,1.59
18:01:59.015625,0.70
18:01:59.031250,0.09
18:01:59.046875,-0.33
18:01:59.062500,-0.69
18:01:59.078125,-1.04
18:01:59.093750,-1.41
18:01:59.109375,-1.73
18:01:59.125000,-1.95
18:01:59.140625,-2.03
18:01:59.156250,-2.00
18:01:59.171875,-1.97
18:01:59.187500,-2.07
18:01:59.203125,-2.40
18:01:59.218750,-2.99
18:01:59.234375,-3.83
18:01:59.250000,-4.86
18:01:59.265625,-6.03
18:01:59.281250,-7.30
18:01:59.296875,-8.64
18:01:59.312500,-9.97
18:01:59.328125,-11.21
18:01:59.343750,-12.28
18:01:59.359375,-13.19
18:01:59.375000,-14.00
18:01:59.390625,-14.86
18:01:59.406250,-15.89
18:01:59.421875,-17.11
18:01:59.437500,-18.39
18:01:59.453125,-19.49
18:01:59.468750,-20.10
18:01:59.484375,-20.00
18:01:59.500000,-19.09
18:01:59.515625,-17.47
18:01:59.531250,-15.37
18:01:59.546875,-13.02
18:01:59.562500,-10.62
18:01:59.578125,-8.24
18:01:59.593750,-5.85
18:01:59.609375,-3.41
18:01:59.625000,-0.89
18:01:59.640625,1.67
18:01:59.656250,4.16
18:01:59.671875,6.49
18:01:59.687500,8.58
18:01:59.703125,10.35
18:01:59.718750,11.79
18:01:59.734375,12.84
18:01:59.750000,13.49
18:01:59.765625,13.73
18:01:59.781250,13.60
18:01:59.796875,13.16
18:01:59.812500,12.49
18:01:59.828125,11.70
18:01:59.843750,10.90
18:01:59.859375,10.22
18:01:59.875000,9.74
18:01:59.890625,9.47
18:01:59.906250,9.37
18:01:59.921875,9.33
18:01:59.937500,9.24
18:01:59.953125,9.06
18:01:59.968750,8.77
18:01:59.984375,8.45
18:02:00,8.10
18:02:00.015625,7.72
18:02:00.031250,7.24
18:02:00.046875,6.64
18:02:00.062500,5.90
18:02:00.078125,5.07
18:02:00.093750,4.22
18:02:00.109375,3.39
18:02:00.125000,2.62
18:02:00.140625,1.91
18:02:00.156250,1.21
18:02:00.171875,0.49
18:02:00.187500,-0.32
18:02:00.203125,-1.30
18:02:00.218750,-2.48
18:02:00.234375,-3.88
18:02:00.250000,-5.43
18:02:00.265625,-7.06
18:02:00.281250,-8.62
18:02:00.296875,-10.04
18:02:00.312500,-11.29
18:02:00.328125,-12.47
18:02:00.343750,-13.73
18:02:00.359375,-15.20
18:02:00.375000,-16.89
18:02:00.390625,-18.70
18:02:00.406250,-20.33
18:02:00.421875,-21.45
18:02:00.437500,-21.79
18:02:00.453125,-21.22
18:02:00.468750,-19.80
18:02:00.484375,-17.68
18:02:00.500000,-15.11
18:02:00.515625,-12.27
18:02:00.531250,-9.32
18:02:00.546875,-6.37
18:02:00.562500,-3.53
18:02:00.578125,-0.89
18:02:00.593750,1.48
18:02:00.609375,3.60
18:02:00.625000,5.52
18:02:00.640625,7.29
18:02:00.656250,8.94
18:02:00.671875,10.40
18:02:00.687500,11.59
18:02:00.703125,12.37
18:02:00.718750,12.70
18:02:00.734375,12.57
18:02:00.750000,12.06
18:02:00.765625,11.28
18:02:00.781250,10.37
18:02:00.796875,9.52
18:02:00.812500,8.87
18:02:00.828125,8.52
18:02:00.843750,8.48
18:02:00.859375,8.61
18:02:00.875000,8.75
18:02:00.890625,8.70
18:02:00.906250,8.43
18:02:00.921875,7.95
18:02:00.937500,7.40
18:02:00.953125,6.82
18:02:00.968750,6.24
18:02:00.984375,5.56
18:02:01,4.70
18:02:01.015625,3.63
18:02:01.031250,2.43
18:02:01.046875,1.27
18:02:01.062500,0.28
18:02:01.078125,-0.45
18:02:01.093750,-0.95
18:02:01.109375,-1.32
18:02:01.125000,-1.68
18:02:01.140625,-2.10
18:02:01.156250,-2.63
18:02:01.171875,-3.25
18:02:01.187500,-3.95
18:02:01.203125,-4.73
18:02:01.218750,-5.58
18:02:01.234375,-6.51
18:02:01.250000,-7.52
18:02:01.265625,-8.63
18:02:01.281250,-9.88
18:02:01.296875,-11.28
18:02:01.312500,-12.84
18:02:01.328125,-14.50
18:02:01.343750,-16.10
18:02:01.359375,-17.45
18:02:01.375000,-18.28
18:02:01.390625,-18.41
18:02:01.406250,-17.78
18:02:01.421875,-16.49
18:02:01.437500,-14.76
18:02:01.453125,-12.82
18:02:01.468750,-10.83
18:02:01.484375,-8.83
18:02:01.500000,-6.73
18:02:01.515625,-4.41
18:02:01.531250,-1.84
18:02:01.546875,0.91
18:02:01.562500,3.63
18:02:01.578125,6.10
18:02:01.593750,8.18
18:02:01.609375,9.88
18:02:01.625000,11.29
18:02:01.640625,12.52
18:02:01.656250,13.62
18:02:01.671875,14.52
18:02:01.687500,15.10
18:02:01.703125,15.28
18:02:01.718750,15.10
18:02:01.734375,14.73
18:02:01.750000,14.42
18:02:01.765625,14.34
18:02:01.781250,14.52
18:02:01.796875,14.82
18:02:01.812500,15.01
18:02:01.828125,14.94
18:02:01.843750,14.60
18:02:01.859375,14.15
18:02:01.875000,13.75
18:02:01.890625,13.51
18:02:01.906250,13.37
18:02:01.921875,13.16
18:02:01.937500,12.74
18:02:01.953125,12.05
18:02:01.968750,11.18
18:02:01.984375,10.23
18:02:02,9.28
18:02:02.015625,8.30
18:02:02.031250,7.22
18:02:02.046875,6.02
18:02:02.062500,4.73
18:02:02.078125,3.43
18:02:02.093750,2.16
18:02:02.109375,0.86
18:02:02.125000,-0.55
18:02:02.140625,-2.17
18:02:02.156250,-3.95
18:02:02.171875,-5.75
18:02:02.187500,-7.38
18:02:02.203125,-8.79
18:02:02.218750,-10.07
18:02:02.234375,-11.46
18:02:02.250000,-13.14
18:02:02.265625,-15.15
18:02:02.281250,-17.30
18:02:02.296875,-19.26
18:02:02.312500,-20.67
18:02:02.328125,-21.29
18:02:02.343750,-21.04
18:02:02.359375,-19.95
18:02:02.375000,-18.12
18:02:02.390625,-15.68
18:02:02.406250,-12.78
18:02:02.421875,-9.60
18:02:02.437500,-6.38
18:02:02.453125,-3.36
18:02:02.468750,-0.67
18:02:02.484375,1.64
18:02:02.500000,3.65
18:02:02.515625,5.49
18:02:02.531250,7.25
18:02:02.546875,8.91
18:02:02.562500,10.34
18:02:02.578125,11.40
18:02:02.593750,12.00
18:02:02.609375,12.17
18:02:02.625000,12.03
18:02:02.640625,11.73
18:02:02.656250,11.36
18:02:02.671875,10.93
18:02:02.687500,10.38
18:02:02.703125,9.66
18:02:02.718750,8.73
18:02:02.734375,7.67
18:02:02.750000,6.58
18:02:02.765625,5.60
18:02:02.781250,4.82
18:02:02.796875,4.20
18:02:02.812500,3.66
18:02:02.828125,3.08
18:02:02.843750,2.34
18:02:02.859375,1.42
18:02:02.875000,0.37
18:02:02.890625,-0.72
18:02:02.906250,-1.76
18:02:02.921875,-2.73
18:02:02.937500,-3.64
18:02:02.953125,-4.53
18:02:02.968750,-5.41
18:02:02.984375,-6.25
18:02:03,-7.05
18:02:03.015625,-7.82
18:02:03.031250,-8.63
18:02:03.046875,-9.56
18:02:03.062500,-10.64
18:02:03.078125,-11.80
18:02:03.093750,-12.91
18:02:03.109375,-13.90
18:02:03.125000,-14.75
18:02:03.140625,-15.61
18:02:03.156250,-16.70
18:02:03.171875,-18.17
18:02:03.187500,-20.02
18:02:03.203125,-22.03
18:02:03.218750,-23.84
18:02:03.234375,-25.06
18:02:03.250000,-25.45
18:02:03.265625,-24.98
18:02:03.281250,-23.76
18:02:03.296875,-21.99
18:02:03.312500,-19.85
18:02:03.328125,-17.42
18:02:03.343750,-14.73
18:02:03.359375,-11.84
18:02:03.375000,-8.83
18:02:03.390625,-5.83
18:02:03.406250,-2.95
18:02:03.421875,-0.26
18:02:03.437500,2.22
18:02:03.453125,4.51
18:02:03.468750,6.58
18:02:03.484375,8.43
18:02:03.500000,10.01
18:02:03.515625,11.28
18:02:03.531250,12.26
18:02:03.546875,13.00
18:02:03.562500,13.55
18:02:03.578125,13.96
18:02:03.593750,14.24
18:02:03.609375,14.37
18:02:03.625000,14.36
18:02:03.640625,14.16
18:02:03.656250,13.81
18:02:03.671875,13.32
18:02:03.687500,12.72
18:02:03.703125,12.03
18:02:03.718750,11.26
18:02:03.734375,10.40
18:02:03.750000,9.45
18:02:03.765625,8.44
18:02:03.781250,7.47
18:02:03.796875,6.62
18:02:03.812500,5.98
18:02:03.828125,5.53
18:02:03.843750,5.17
18:02:03.859375,4.72
18:02:03.875000,4.05
18:02:03.890625,3.10
18:02:03.906250,1.92
18:02:03.921875,0.62
18:02:03.937500,-0.67
18:02:03.953125,-1.91
18:02:03.968750,-3.12
18:02:03.984375,-4.31
18:02:04,-5.49
18:02:04.015625,-6.59
18:02:04.031250,-7.52
18:02:04.046875,-8.22
18:02:04.062500,-8.75
18:02:04.078125,-9.24
18:02:04.093750,-9.95
18:02:04.109375,-11.07
18:02:04.125000,-12.73
18:02:04.140625,-14.86
18:02:04.156250,-17.27
18:02:04.171875,-19.62
18:02:04.187500,-21.60
18:02:04.203125,-22.96
18:02:04.218750,-23.53
18:02:04.234375,-23.26
18:02:04.250000,-22.20
18:02:04.265625,-20.45
18:02:04.281250,-18.18
18:02:04.296875,-15.53
18:02:04.312500,-12.63
18:02:04.328125,-9.53
18:02:04.343750,-6.27
18:02:04.359375,-2.87
18:02:04.375000,0.62
18:02:04.390625,4.09
18:02:04.406250,7.37
18:02:04.421875,10.33
18:02:04.437500,12.83
18:02:04.453125,14.81
18:02:04.468750,16.30
18:02:04.484375,17.35
18:02:04.500000,18.05
18:02:04.515625,18.43
18:02:04.531250,18.55
18:02:04.546875,18.44
18:02:04.562500,18.20
18:02:04.578125,17.92
18:02:04.593750,17.68
18:02:04.609375,17.54
18:02:04.625000,17.46
18:02:04.640625,17.35
18:02:04.656250,17.12
18:02:04.671875,16.70
18:02:04.687500,16.11
18:02:04.703125,15.43
18:02:04.718750,14.78
18:02:04.734375,14.29
18:02:04.750000,14.00
18:02:04.765625,13.88
18:02:04.781250,13.83
18:02:04.796875,13.66
18:02:04.812500,13.19
18:02:04.828125,12.31
18:02:04.843750,11.04
18:02:04.859375,9.55
18:02:04.875000,8.09
18:02:04.890625,6.89
18:02:04.906250,6.05
18:02:04.921875,5.49
18:02:04.937500,5.02
18:02:04.953125,4.40
18:02:04.968750,3.49
18:02:04.984375,2.29
18:02:05,0.87
18:02:05.015625,-0.62
18:02:05.031250,-2.07
18:02:05.046875,-3.47
18:02:05.062500,-4.82
18:02:05.078125,-6.24
18:02:05.093750,-7.82
18:02:05.109375,-9.65
18:02:05.125000,-11.77
18:02:05.140625,-14.14
18:02:05.156250,-16.63
18:02:05.171875,-19.07
18:02:05.187500,-21.21
18:02:05.203125,-22.79
18:02:05.218750,-23.56
18:02:05.234375,-23.30
18:02:05.250000,-21.87
18:02:05.265625,-19.29
18:02:05.281250,-15.74
18:02:05.296875,-11.61
18:02:05.312500,-7.35
18:02:05.328125,-3.31
18:02:05.343750,0.32
18:02:05.359375,3.67
18:02:05.375000,7.05
18:02:05.390625,10.81
18:02:05.406250,15.25
18:02:05.421875,20.46
18:02:05.437500,26.38
18:02:05.453125,32.73
18:02:05.468750,39.03
18:02:05.484375,44.66
18:02:05.500000,48.86
18:02:05.515625,51.00
18:02:05.531250,50.67
18:02:05.546875,47.91
18:02:05.562500,43.09
18:02:05.578125,36.91
18:02:05.593750,30.13
18:02:05.609375,23.42
18:02:05.625000,17.33
18:02:05.640625,12.28
18:02:05.656250,8.63
18:02:05.671875,6.70
18:02:05.687500,6.78
18:02:05.703125,9.11
18:02:05.718750,13.73
18:02:05.734375,20.34
18:02:05.750000,28.15
18:02:05.765625,35.85
18:02:05.781250,41.80
18:02:05.796875,44.47
18:02:05.812500,42.89
18:02:05.828125,37.03
18:02:05.843750,27.76
18:02:05.859375,16.47
18:02:05.875000,4.54
18:02:05.890625,-7.16
18:02:05.906250,-18.25
18:02:05.921875,-28.69
18:02:05.937500,-38.34
18:02:05.953125,-46.65
18:02:05.968750,-52.72
18:02:05.984375,-55.58
18:02:06,-54.59
18:02:06.015625,-49.79
18:02:06.031250,-41.93
18:02:06.046875,-32.35
18:02:06.062500,-22.62
18:02:06.078125,-14.21
18:02:06.093750,-8.16
18:02:06.109375,-5.00
18:02:06.125000,-4.60
18:02:06.140625,-6.29
18:02:06.156250,-8.98
18:02:06.171875,-11.47
18:02:06.187500,-12.75
18:02:06.203125,-12.28
18:02:06.218750,-10.06
18:02:06.234375,-6.57
18:02:06.250000,-2.49
18:02:06.265625,1.48
18:02:06.281250,4.83
18:02:06.296875,7.21
18:02:06.312500,8.37
18:02:06.328125,8.18
18:02:06.343750,6.69
18:02:06.359375,4.19
18:02:06.375000,1.25
18:02:06.390625,-1.42
18:02:06.406250,-3.19
18:02:06.421875,-3.79
18:02:06.437500,-3.34
18:02:06.453125,-2.34
18:02:06.468750,-1.37
18:02:06.484375,-0.87
18:02:06.500000,-0.93
18:02:06.515625,-1.38
18:02:06.531250,-1.91
18:02:06.546875,-2.18
18:02:06.562500,-2.02
18:02:06.578125,-1.44
18:02:06.593750,-0.61
18:02:06.609375,0.20
18:02:06.625000,0.73
18:02:06.640625,0.80
18:02:06.656250,0.34
18:02:06.671875,-0.62
18:02:06.687500,-1.98
18:02:06.703125,-3.62
18:02:06.718750,-5.39
18:02:06.734375,-7.20
18:02:06.750000,-8.91
18:02:06.765625,-10.42
18:02:06.781250,-11.58
18:02:06.796875,-12.28
18:02:06.812500,-12.49
18:02:06.828125,-12.25
18:02:06.843750,-11.72
18:02:06.859375,-11.08
18:02:06.875000,-10.53
18:02:06.890625,-10.18
18:02:06.906250,-10.07
18:02:06.921875,-10.22
18:02:06.937500,-10.65
18:02:06.953125,-11.40
18:02:06.968750,-12.50
18:02:06.984375,-13.94
18:02:07,-15.57
18:02:07.015625,-17.23
18:02:07.031250,-18.71
18:02:07.046875,-19.95
18:02:07.062500,-21.01
18:02:07.078125,-22.14
18:02:07.093750,-23.58
18:02:07.109375,-25.48
18:02:07.125000,-27.79
18:02:07.140625,-30.24
18:02:07.156250,-32.44
18:02:07.171875,-33.99
18:02:07.187500,-34.59
18:02:07.203125,-34.14
18:02:07.218750,-32.69
18:02:07.234375,-30.42
18:02:07.250000,-27.55
18:02:07.265625,-24.22
18:02:07.281250,-20.54
18:02:07.296875,-16.52
18:02:07.312500,-12.21
18:02:07.328125,-7.70
18:02:07.343750,-3.13
18:02:07.359375,1.36
18:02:07.375000,5.61
18:02:07.390625,9.50
18:02:07.406250,12.89
18:02:07.421875,15.65
18:02:07.437500,17.69
18:02:07.453125,18.99
18:02:07.468750,19.66
18:02:07.484375,19.90
18:02:07.500000,20.00
18:02:07.515625,20.12
18:02:07.531250,20.31
18:02:07.546875,20.47
18:02:07.562500,20.43
18:02:07.578125,20.07
18:02:07.593750,19.41
18:02:07.609375,18.57
18:02:07.625000,17.76
18:02:07.640625,17.12
18:02:07.656250,16.72
18:02:07.671875,16.53
18:02:07.687500,16.47
18:02:07.703125,16.49
18:02:07.718750,16.53
18:02:07.734375,16.57
18:02:07.750000,16.56
18:02:07.765625,16.46
18:02:07.781250,16.29
18:02:07.796875,16.11
18:02:07.812500,16.00
18:02:07.828125,16.01
18:02:07.843750,16.02
18:02:07.859375,15.85
18:02:07.875000,15.24
18:02:07.890625,14.04
18:02:07.906250,12.29
18:02:07.921875,10.21
18:02:07.937500,8.20
18:02:07.953125,6.63
18:02:07.968750,5.70
18:02:07.984375,5.39
18:02:08,5.43
18:02:08.015625,5.37
18:02:08.031250,4.85
18:02:08.046875,3.69
18:02:08.062500,2.04
18:02:08.078125,0.30
18:02:08.093750,-1.05
18:02:08.109375,-1.66
18:02:08.125000,-1.40
18:02:08.140625,-0.37
18:02:08.156250,1.35
18:02:08.171875,3.74
18:02:08.187500,6.85
18:02:08.203125,10.63
18:02:08.218750,14.69
18:02:08.234375,18.28
18:02:08.250000,20.46
18:02:08.265625,20.47
18:02:08.281250,18.01
18:02:08.296875,13.45
18:02:08.312500,7.61
18:02:08.328125,1.50
18:02:08.343750,-4.00
18:02:08.359375,-8.34
18:02:08.375000,-11.36
18:02:08.390625,-13.15
18:02:08.406250,-13.89
18:02:08.421875,-13.69
18:02:08.437500,-12.58
18:02:08.453125,-10.48
18:02:08.468750,-7.35
18:02:08.484375,-3.33
18:02:08.500000,1.19
18:02:08.515625,5.60
18:02:08.531250,9.26
18:02:08.546875,11.70
18:02:08.562500,12.72
18:02:08.578125,12.49
18:02:08.593750,11.38
18:02:08.609375,9.81
18:02:08.625000,8.16
18:02:08.640625,6.68
18:02:08.656250,5.50
18:02:08.671875,4.75
18:02:08.687500,4.51
18:02:08.703125,4.81
18:02:08.718750,5.57
18:02:08.734375,6.58
18:02:08.750000,7.52
18:02:08.765625,8.04
18:02:08.781250,7.90
18:02:08.796875,7.00
18:02:08.812500,5.39
18:02:08.828125,3.25
18:02:08.843750,0.82
18:02:08.859375,-1.71
18:02:08.875000,-4.22
18:02:08.890625,-6.64
18:02:08.906250,-8.97
18:02:08.921875,-11.24
18:02:08.937500,-13.49
18:02:08.953125,-15.77
18:02:08.968750,-18.12
18:02:08.984375,-20.54
18:02:09,-23.01
18:02:09.015625,-25.44
18:02:09.031250,-27.76
18:02:09.046875,-29.93
18:02:09.062500,-32.04
18:02:09.078125,-34.24
18:02:09.093750,-36.73
18:02:09.109375,-39.60
18:02:09.125000,-42.79
18:02:09.140625,-45.99
18:02:09.156250,-48.76
18:02:09.171875,-50.61
18:02:09.187500,-51.17
18:02:09.203125,-50.31
18:02:09.218750,-48.12
18:02:09.234375,-44.87
18:02:09.250000,-40.89
18:02:09.265625,-36.46
18:02:09.281250,-31.73
18:02:09.296875,-26.72
18:02:09.312500,-21.45
18:02:09.328125,-16.00
18:02:09.343750,-10.49
18:02:09.359375,-5.16
18:02:09.375000,-0.20
18:02:09.390625,4.22
18:02:09.406250,7.99
18:02:09.421875,11.10
18:02:09.437500,13.54
18:02:09.453125,15.35
18:02:09.468750,16.57
18:02:09.484375,17.30
18:02:09.500000,17.62
18:02:09.515625,17.68
18:02:09.531250,17.60
18:02:09.546875,17.52
18:02:09.562500,17.51
18:02:09.578125,17.64
18:02:09.593750,17.90
18:02:09.609375,18.23
18:02:09.625000,18.52
18:02:09.640625,18.66
18:02:09.656250,18.56
18:02:09.671875,18.24
18:02:09.687500,17.81
18:02:09.703125,17.42
18:02:09.718750,17.21
18:02:09.734375,17.18
18:02:09.750000,17.21
18:02:09.765625,17.03
18:02:09.781250,16.35
18:02:09.796875,15.00
18:02:09.812500,13.00
18:02:09.828125,10.59
18:02:09.843750,8.10
18:02:09.859375,5.83
18:02:09.875000,3.91
18:02:09.890625,2.30
18:02:09.906250,0.83
18:02:09.921875,-0.68
18:02:09.937500,-2.34
18:02:09.953125,-4.19
18:02:09.968750,-6.20
18:02:09.984375,-8.31
18:02:10,-10.43
18:02:10.015625,-12.54
18:02:10.031250,-14.68
18:02:10.046875,-16.95
18:02:10.062500,-19.53
18:02:10.078125,-22.60
18:02:10.093750,-26.29
18:02:10.109375,-30.56
18:02:10.125000,-35.20
18:02:10.140625,-39.84
18:02:10.156250,-43.97
18:02:10.171875,-47.07
18:02:10.187500,-48.67
18:02:10.203125,-48.46
18:02:10.218750,-46.34
18:02:10.234375,-42.49
18:02:10.250000,-37.32
18:02:10.265625,-31.36
18:02:10.281250,-25.11
18:02:10.296875,-18.94
18:02:10.312500,-13.03
18:02:10.328125,-7.42
18:02:10.343750,-2.08
18:02:10.359375,3.00
18:02:10.375000,7.79
18:02:10.390625,12.19
18:02:10.406250,16.05
18:02:10.421875,19.22
18:02:10.437500,21.56
18:02:10.453125,23.03
18:02:10.468750,23.70
18:02:10.484375,23.79
18:02:10.500000,23.57
18:02:10.515625,23.37
18:02:10.531250,23.46
18:02:10.546875,24.00
18:02:10.562500,25.04
18:02:10.578125,26.48
18:02:10.593750,28.13
18:02:10.609375,29.72
18:02:10.625000,30.96
18:02:10.640625,31.56
18:02:10.656250,31.35
18:02:10.671875,30.23
18:02:10.687500,28.25
18:02:10.703125,25.57
18:02:10.718750,22.45
18:02:10.734375,19.20
18:02:10.750000,16.14
18:02:10.765625,13.53
18:02:10.781250,11.50
18:02:10.796875,10.07
18:02:10.812500,9.19
18:02:10.828125,8.77
18:02:10.843750,8.71
18:02:10.859375,8.87
18:02:10.875000,9.09
18:02:10.890625,9.11
18:02:10.906250,8.67
18:02:10.921875,7.57
18:02:10.937500,5.72
18:02:10.953125,3.24
18:02:10.968750,0.34
18:02:10.984375,-2.72
18:02:11,-5.71
18:02:11.015625,-8.49
18:02:11.031250,-10.94
18:02:11.046875,-13.00
18:02:11.062500,-14.59
18:02:11.078125,-15.75
18:02:11.093750,-16.61
18:02:11.109375,-17.48
18:02:11.125000,-18.72
18:02:11.140625,-20.53
18:02:11.156250,-22.91
18:02:11.171875,-25.59
18:02:11.187500,-28.12
18:02:11.203125,-30.02
18:02:11.218750,-30.96
18:02:11.234375,-30.79
18:02:11.250000,-29.53
18:02:11.265625,-27.30
18:02:11.281250,-24.28
18:02:11.296875,-20.64
18:02:11.312500,-16.62
18:02:11.328125,-12.42
18:02:11.343750,-8.18
18:02:11.359375,-3.88
18:02:11.375000,0.59
18:02:11.390625,5.39
18:02:11.406250,10.54
18:02:11.421875,15.85
18:02:11.437500,20.94
18:02:11.453125,25.34
18:02:11.468750,28.74
18:02:11.484375,31.03
18:02:11.500000,32.40
18:02:11.515625,33.19
18:02:11.531250,33.68
18:02:11.546875,33.97
18:02:11.562500,33.98
18:02:11.578125,33.57
18:02:11.593750,32.64
18:02:11.609375,31.30
18:02:11.625000,29.84
18:02:11.640625,28.59
18:02:11.656250,27.72
18:02:11.671875,27.24
18:02:11.687500,26.96
18:02:11.703125,26.70
18:02:11.718750,26.40
18:02:11.734375,26.16
18:02:11.750000,26.10
18:02:11.765625,26.18
18:02:11.781250,26.14
18:02:11.796875,25.59
18:02:11.812500,24.23
18:02:11.828125,22.07
18:02:11.843750,19.48
18:02:11.859375,17.02
18:02:11.875000,15.09
18:02:11.890625,13.75
18:02:11.906250,12.60
18:02:11.921875,11.03
18:02:11.937500,8.50
18:02:11.953125,4.82
18:02:11.968750,0.26
18:02:11.984375,-4.61
18:02:12,-9.22
18:02:12.015625,-13.23
18:02:12.031250,-16.63
18:02:12.046875,-19.64
18:02:12.062500,-22.55
18:02:12.078125,-25.46
18:02:12.093750,-28.28
18:02:12.109375,-30.82
18:02:12.125000,-32.96
18:02:12.140625,-34.82
18:02:12.156250,-36.64
18:02:12.171875,-38.60
18:02:12.187500,-40.61
18:02:12.203125,-42.20
18:02:12.218750,-42.69
18:02:12.234375,-41.51
18:02:12.250000,-38.43
18:02:12.265625,-33.73
18:02:12.281250,-28.04
18:02:12.296875,-22.07
18:02:12.312500,-16.40
18:02:12.328125,-11.26
18:02:12.343750,-6.69
18:02:12.359375,-2.53
18:02:12.375000,1.29
18:02:12.390625,4.81
18:02:12.406250,7.98
18:02:12.421875,10.78
18:02:12.437500,13.18
18:02:12.453125,15.20
18:02:12.468750,16.89
18:02:12.484375,18.22
18:02:12.500000,19.14
18:02:12.515625,19.55
18:02:12.531250,19.39
18:02:12.546875,18.68
18:02:12.562500,17.54
18:02:12.578125,16.23
18:02:12.593750,15.05
18:02:12.609375,14.26
18:02:12.625000,13.99
18:02:12.640625,14.24
18:02:12.656250,14.86
18:02:12.671875,15.60
18:02:12.687500,16.21
18:02:12.703125,16.50
18:02:12.718750,16.35
18:02:12.734375,15.75
18:02:12.750000,14.73
18:02:12.765625,13.34
18:02:12.781250,11.63
18:02:12.796875,9.63
18:02:12.812500,7.40
18:02:12.828125,5.02
18:02:12.843750,2.63
18:02:12.859375,0.39
18:02:12.875000,-1.60
18:02:12.890625,-3.28
18:02:12.906250,-4.68
18:02:12.921875,-5.85
18:02:12.937500,-6.94
18:02:12.953125,-8.05
18:02:12.968750,-9.25
18:02:12.984375,-10.54
18:02:13,-11.88
18:02:13.015625,-13.22
18:02:13.031250,-14.54
18:02:13.046875,-15.92
18:02:13.062500,-17.49
18:02:13.078125,-19.43
18:02:13.093750,-21.88
18:02:13.109375,-24.89
18:02:13.125000,-28.36
18:02:13.140625,-32.16
18:02:13.156250,-36.07
18:02:13.171875,-39.83
18:02:13.187500,-43.16
18:02:13.203125,-45.71
18:02:13.218750,-47.14
18:02:13.234375,-47.15
18:02:13.250000,-45.62
18:02:13.265625,-42.58
18:02:13.281250,-38.27
18:02:13.296875,-33.04
18:02:13.312500,-27.21
18:02:13.328125,-21.10
18:02:13.343750,-14.92
18:02:13.359375,-8.82
18:02:13.375000,-2.90
18:02:13.390625,2.75
18:02:13.406250,8.07
18:02:13.421875,12.98
18:02:13.437500,17.43
18:02:13.453125,21.37
18:02:13.468750,24.76
18:02:13.484375,27.61
18:02:13.500000,29.93
18:02:13.515625,31.73
18:02:13.531250,33.03
18:02:13.546875,33.81
18:02:13.562500,34.04
18:02:13.578125,33.79
18:02:13.593750,33.17
18:02:13.609375,32.38
18:02:13.625000,31.63
18:02:13.640625,31.05
18:02:13.656250,30.62
18:02:13.671875,30.18
18:02:13.687500,29.51
18:02:13.703125,28.44
18:02:13.718750,26.93
18:02:13.734375,25.14
18:02:13.750000,23.32
18:02:13.765625,21.71
18:02:13.781250,20.44
18:02:13.796875,19.48
18:02:13.812500,18.67
18:02:13.828125,17.82
18:02:13.843750,16.75
18:02:13.859375,15.39
18:02:13.875000,13.75
18:02:13.890625,11.88
18:02:13.906250,9.83
18:02:13.921875,7.67
18:02:13.937500,5.42
18:02:13.953125,3.14
18:02:13.968750,0.90
18:02:13.984375,-1.25
18:02:14,-3.25
18:02:14.015625,-5.13
18:02:14.031250,-6.97
18:02:14.046875,-8.91
18:02:14.062500,-11.07
18:02:14.078125,-13.50
18:02:14.093750,-16.13
18:02:14.109375,-18.83
18:02:14.125000,-21.49
18:02:14.140625,-24.10
18:02:14.156250,-26.78
18:02:14.171875,-29.68
18:02:14.187500,-32.88
18:02:14.203125,-36.23
18:02:14.218750,-39.34
18:02:14.234375,-41.66
18:02:14.250000,-42.71
18:02:14.265625,-42.20
18:02:14.281250,-40.16
18:02:14.296875,-36.85
18:02:14.312500,-32.62
18:02:14.328125,-27.77
18:02:14.343750,-22.47
18:02:14.359375,-16.82
18:02:14.375000,-10.94
18:02:14.390625,-4.95
18:02:14.406250,0.99
18:02:14.421875,6.74
18:02:14.437500,12.21
18:02:14.453125,17.30
18:02:14.468750,21.88
18:02:14.484375,25.79
18:02:14.500000,28.84
18:02:14.515625,30.96
18:02:14.531250,32.17
18:02:14.546875,32.66
18:02:14.562500,32.69
18:02:14.578125,32.48
18:02:14.593750,32.22
18:02:14.609375,31.95
18:02:14.625000,31.71
18:02:14.640625,31.49
18:02:14.656250,31.32
18:02:14.671875,31.20
18:02:14.687500,31.12
18:02:14.703125,31.03
18:02:14.718750,30.84
18:02:14.734375,30.45
18:02:14.750000,29.76
18:02:14.765625,28.71
18:02:14.781250,27.33
18:02:14.796875,25.70
18:02:14.812500,23.96
18:02:14.828125,22.29
18:02:14.843750,20.78
18:02:14.859375,19.44
18:02:14.875000,18.15
18:02:14.890625,16.73
18:02:14.906250,15.06
18:02:14.921875,13.12
18:02:14.937500,11.02
18:02:14.953125,8.91
18:02:14.968750,6.86
18:02:14.984375,4.83
18:02:15,2.63
18:02:15.015625,0.07
18:02:15.031250,-2.92
18:02:15.046875,-6.24
18:02:15.062500,-9.71
18:02:15.078125,-13.13
18:02:15.093750,-16.38
18:02:15.109375,-19.50
18:02:15.125000,-22.57
18:02:15.140625,-25.65
18:02:15.156250,-28.73
18:02:15.171875,-31.75
18:02:15.187500,-34.66
18:02:15.203125,-37.48
18:02:15.218750,-40.24
18:02:15.234375,-42.90
18:02:15.250000,-45.30
18:02:15.265625,-47.12
18:02:15.281250,-47.97
18:02:15.296875,-47.49
18:02:15.312500,-45.52
18:02:15.328125,-42.14
18:02:15.343750,-37.60
18:02:15.359375,-32.29
18:02:15.375000,-26.60
18:02:15.390625,-20.85
18:02:15.406250,-15.21
18:02:15.421875,-9.74
18:02:15.437500,-4.42
18:02:15.453125,0.78
18:02:15.468750,5.83
18:02:15.484375,10.59
18:02:15.500000,14.88
18:02:15.515625,18.47
18:02:15.531250,21.25
18:02:15.546875,23.23
18:02:15.562500,24.49
18:02:15.578125,25.20
18:02:15.593750,25.53
18:02:15.609375,25.60
18:02:15.625000,25.51
18:02:15.640625,25.30
18:02:15.656250,25.01
18:02:15.671875,24.66
18:02:15.687500,24.24
18:02:15.703125,23.73
18:02:15.718750,23.09
18:02:15.734375,22.29
18:02:15.750000,21.32
18:02:15.765625,20.19
18:02:15.781250,18.97
18:02:15.796875,17.75
18:02:15.812500,16.61
18:02:15.828125,15.62
18:02:15.843750,14.75
18:02:15.859375,13.90
18:02:15.875000,12.90
18:02:15.890625,11.56
18:02:15.906250,9.78
18:02:15.921875,7.58
18:02:15.937500,5.14
18:02:15.953125,2.71
18:02:15.968750,0.53
18:02:15.984375,-1.24
18:02:16,-2.55
18:02:16.015625,-3.51
18:02:16.031250,-4.29
18:02:16.046875,-5.15
18:02:16.062500,-6.32
18:02:16.078125,-7.94
18:02:16.093750,-10.00
18:02:16.109375,-12.35
18:02:16.125000,-14.74
18:02:16.140625,-16.96
18:02:16.156250,-18.93
18:02:16.171875,-20.78
18:02:16.187500,-22.80
18:02:16.203125,-25.29
18:02:16.218750,-28.45
18:02:16.234375,-32.28
18:02:16.250000,-36.54
18:02:16.265625,-40.85
18:02:16.281250,-44.69
18:02:16.296875,-47.53
18:02:16.312500,-48.91
18:02:16.328125,-48.48
18:02:16.343750,-46.14
18:02:16.359375,-42.07
18:02:16.375000,-36.67
18:02:16.390625,-30.54
18:02:16.406250,-24.22
18:02:16.421875,-18.13
18:02:16.437500,-12.43
18:02:16.453125,-7.06
18:02:16.468750,-1.88
18:02:16.484375,3.24
18:02:16.500000,8.29
18:02:16.515625,13.10
18:02:16.531250,17.39
18:02:16.546875,20.91
18:02:16.562500,23.55
18:02:16.578125,25.37
18:02:16.593750,26.55
18:02:16.609375,27.32
18:02:16.625000,27.87
18:02:16.640625,28.27
18:02:16.656250,28.55
18:02:16.671875,28.71
18:02:16.687500,28.79
18:02:16.703125,28.85
18:02:16.718750,28.90
18:02:16.734375,28.90
18:02:16.750000,28.71
18:02:16.765625,28.15
18:02:16.781250,27.09
18:02:16.796875,25.49
18:02:16.812500,23.45
18:02:16.828125,21.17
18:02:16.843750,18.91
18:02:16.859375,16.87
18:02:16.875000,15.19
18:02:16.890625,13.81
18:02:16.906250,12.56
18:02:16.921875,11.23
18:02:16.937500,9.65
18:02:16.953125,7.76
18:02:16.968750,5.67
18:02:16.984375,3.57
18:02:17,1.64
18:02:17.015625,0.03
18:02:17.031250,-1.28
18:02:17.046875,-2.40
18:02:17.062500,-3.50
18:02:17.078125,-4.75
18:02:17.093750,-6.25
18:02:17.109375,-8.06
18:02:17.125000,-10.13
18:02:17.140625,-12.37
18:02:17.156250,-14.71
18:02:17.171875,-17.06
18:02:17.187500,-19.40
18:02:17.203125,-21.70
18:02:17.218750,-23.96
18:02:17.234375,-26.17
18:02:17.250000,-28.37
18:02:17.265625,-30.60
18:02:17.281250,-32.94
18:02:17.296875,-35.42
18:02:17.312500,-37.90
18:02:17.328125,-40.01
18:02:17.343750,-41.26
18:02:17.359375,-41.15
18:02:17.375000,-39.39
18:02:17.390625,-36.00
18:02:17.406250,-31.33
18:02:17.421875,-25.91
18:02:17.437500,-20.27
18:02:17.453125,-14.82
18:02:17.468750,-9.74
18:02:17.484375,-5.04
18:02:17.500000,-0.58
18:02:17.515625,3.80
18:02:17.531250,8.22
18:02:17.546875,12.64
18:02:17.562500,16.87
18:02:17.578125,20.63
18:02:17.593750,23.60
18:02:17.609375,25.60
18:02:17.625000,26.65
18:02:17.640625,26.92
18:02:17.656250,26.64
18:02:17.671875,26.06
18:02:17.687500,25.34
18:02:17.703125,24.66
18:02:17.718750,24.17
18:02:17.734375,24.04
18:02:17.750000,24.36
18:02:17.765625,25.07
18:02:17.781250,25.90
18:02:17.796875,26.49
18:02:17.812500,26.49
18:02:17.828125,25.73
18:02:17.843750,24.29
18:02:17.859375,22.46
18:02:17.875000,20.59
18:02:17.890625,18.97
18:02:17.906250,17.70
18:02:17.921875,16.71
18:02:17.937500,15.84
18:02:17.953125,14.96
18:02:17.968750,14.02
18:02:17.984375,13.02
18:02:18,12.00
18:02:18.015625,10.92
18:02:18.031250,9.68
18:02:18.046875,8.14
18:02:18.062500,6.24
18:02:18.078125,4.05
18:02:18.093750,1.73
18:02:18.109375,-0.52
18:02:18.125000,-2.64
18:02:18.140625,-4.67
18:02:18.156250,-6.77
18:02:18.171875,-9.10
18:02:18.187500,-11.65
18:02:18.203125,-14.27
18:02:18.218750,-16.72
18:02:18.234375,-18.76
18:02:18.250000,-20.33
18:02:18.265625,-21.55
18:02:18.281250,-22.73
18:02:18.296875,-24.24
18:02:18.312500,-26.38
18:02:18.328125,-29.25
18:02:18.343750,-32.64
18:02:18.359375,-36.08
18:02:18.375000,-38.94
18:02:18.390625,-40.59
18:02:18.406250,-40.61
18:02:18.421875,-38.85
18:02:18.437500,-35.48
18:02:18.453125,-30.90
18:02:18.468750,-25.61
18:02:18.484375,-20.05
18:02:18.500000,-14.53
18:02:18.515625,-9.23
18:02:18.531250,-4.19
18:02:18.546875,0.60
18:02:18.562500,5.15
18:02:18.578125,9.43
18:02:18.593750,13.35
18:02:18.609375,16.77
18:02:18.625000,19.59
18:02:18.640625,21.72
18:02:18.656250,23.13
18:02:18.671875,23.85
18:02:18.687500,23.95
18:02:18.703125,23.58
18:02:18.718750,22.90
18:02:18.734375,22.09
18:02:18.750000,21.33
18:02:18.765625,20.74
18:02:18.781250,20.35
18:02:18.796875,20.11
18:02:18.812500,19.91
18:02:18.828125,19.64
18:02:18.843750,19.24
18:02:18.859375,18.65
18:02:18.875000,17.89
18:02:18.890625,16.95
18:02:18.906250,15.83
18:02:18.921875,14.55
18:02:18.937500,13.19
18:02:18.953125,11.85
18:02:18.968750,10.64
18:02:18.984375,9.55
18:02:19,8.50
18:02:19.015625,7.33
18:02:19.031250,5.92
18:02:19.046875,4.24
18:02:19.062500,2.42
18:02:19.078125,0.65
18:02:19.093750,-0.91
18:02:19.109375,-2.25
18:02:19.125000,-3.50
18:02:19.140625,-4.86
18:02:19.156250,-6.45
18:02:19.171875,-8.29
18:02:19.187500,-10.25
18:02:19.203125,-12.20
18:02:19.218750,-14.04
18:02:19.234375,-15.80
18:02:19.250000,-17.54
18:02:19.265625,-19.35
18:02:19.281250,-21.26
18:02:19.296875,-23.28
18:02:19.312500,-25.44
18:02:19.328125,-27.77
18:02:19.343750,-30.35
18:02:19.359375,-33.14
18:02:19.375000,-35.95
18:02:19.390625,-38.44
18:02:19.406250,-40.15
18:02:19.421875,-40.66
18:02:19.437500,-39.75
18:02:19.453125,-37.40
18:02:19.468750,-33.81
18:02:19.484375,-29.27
18:02:19.500000,-24.10
18:02:19.515625,-18.57
18:02:19.531250,-12.94
18:02:19.546875,-7.42
18:02:19.562500,-2.20
18:02:19.578125,2.64
18:02:19.593750,7.12
18:02:19.609375,11.29
18:02:19.625000,15.19
18:02:19.640625,18.76
18:02:19.656250,21.82
18:02:19.671875,24.13
18:02:19.687500,25.55
18:02:19.703125,26.08
18:02:19.718750,25.91
18:02:19.734375,25.37
18:02:19.750000,24.76
18:02:19.765625,24.28
18:02:19.781250,23.99
18:02:19.796875,23.80
18:02:19.812500,23.59
18:02:19.828125,23.23
18:02:19.843750,22.68
18:02:19.859375,21.95
18:02:19.875000,21.10
18:02:19.890625,20.17
18:02:19.906250,19.14
18:02:19.921875,17.98
18:02:19.937500,16.66
18:02:19.953125,15.22
18:02:19.968750,13.79
18:02:19.984375,12.50
18:02:20,11.47
18:02:20.015625,10.66
18:02:20.031250,9.91
18:02:20.046875,9.00
18:02:20.062500,7.79
18:02:20.078125,6.27
18:02:20.093750,4.60
18:02:20.109375,2.99
18:02:20.125000,1.58
18:02:20.140625,0.39
18:02:20.156250,-0.72
18:02:20.171875,-1.98
18:02:20.187500,-3.54
18:02:20.203125,-5.43
18:02:20.218750,-7.52
18:02:20.234375,-9.65
18:02:20.250000,-11.67
18:02:20.265625,-13.56
18:02:20.281250,-15.35
18:02:20.296875,-17.14
18:02:20.312500,-18.98
18:02:20.328125,-20.93
18:02:20.343750,-23.01
18:02:20.359375,-25.27
18:02:20.375000,-27.78
18:02:20.390625,-30.55
18:02:20.406250,-33.48
18:02:20.421875,-36.22
18:02:20.437500,-38.29
18:02:20.453125,-39.12
18:02:20.468750,-38.31
18:02:20.484375,-35.70
18:02:20.500000,-31.52
18:02:20.515625,-26.25
18:02:20.531250,-20.49
18:02:20.546875,-14.72
18:02:20.562500,-9.25
18:02:20.578125,-4.13
18:02:20.593750,0.70
18:02:20.609375,5.28
18:02:20.625000,9.57
18:02:20.640625,13.43
18:02:20.656250,16.74
18:02:20.671875,19.40
18:02:20.687500,21.49
18:02:20.703125,23.08
18:02:20.718750,24.28
18:02:20.734375,25.15
18:02:20.750000,25.71
18:02:20.765625,25.99
18:02:20.781250,26.06
18:02:20.796875,26.04
18:02:20.812500,26.05
18:02:20.828125,26.14
18:02:20.843750,26.29
18:02:20.859375,26.36
18:02:20.875000,26.17
18:02:20.890625,25.57
18:02:20.906250,24.48
18:02:20.921875,22.94
18:02:20.937500,21.11
18:02:20.953125,19.24
18:02:20.968750,17.58
18:02:20.984375,16.27
18:02:21,15.37
18:02:21.015625,14.78
18:02:21.031250,14.32
18:02:21.046875,13.79
18:02:21.062500,13.00
18:02:21.078125,11.86
18:02:21.093750,10.35
18:02:21.109375,8.56
18:02:21.125000,6.63
18:02:21.140625,4.70
18:02:21.156250,2.89
18:02:21.171875,1.20
18:02:21.187500,-0.43
18:02:21.203125,-2.08
18:02:21.218750,-3.77
18:02:21.234375,-5.47
18:02:21.250000,-7.15
18:02:21.265625,-8.81
18:02:21.281250,-10.52
18:02:21.296875,-12.40
18:02:21.312500,-14.52
18:02:21.328125,-16.82
18:02:21.343750,-19.16
18:02:21.359375,-21.37
18:02:21.375000,-23.39
18:02:21.390625,-25.35
18:02:21.406250,-27.46
18:02:21.421875,-29.91
18:02:21.437500,-32.68
18:02:21.453125,-35.47
18:02:21.468750,-37.74
18:02:21.484375,-38.97
18:02:21.500000,-38.75
18:02:21.515625,-36.99
18:02:21.531250,-33.85
18:02:21.546875,-29.67
18:02:21.562500,-24.87
18:02:21.578125,-19.79
18:02:21.593750,-14.70
18:02:21.609375,-9.70
18:02:21.625000,-4.85
18:02:21.640625,-0.11
18:02:21.656250,4.53
18:02:21.671875,9.03
18:02:21.687500,13.28
18:02:21.703125,17.14
18:02:21.718750,20.44
18:02:21.734375,23.02
18:02:21.750000,24.79
18:02:21.765625,25.69
18:02:21.781250,25.77
18:02:21.796875,25.12
18:02:21.812500,23.98
18:02:21.828125,22.65
18:02:21.843750,21.42
18:02:21.859375,20.54
18:02:21.875000,20.10
18:02:21.890625,19.98
18:02:21.906250,19.94
18:02:21.921875,19.70
18:02:21.937500,19.08
18:02:21.953125,18.04
18:02:21.968750,16.69
18:02:21.984375,15.21
18:02:22,13.82
18:02:22.015625,12.69
18:02:22.031250,11.88
18:02:22.046875,11.33
18:02:22.062500,10.84
18:02:22.078125,10.13
18:02:22.093750,9.00
18:02:22.109375,7.36
18:02:22.125000,5.31
18:02:22.140625,3.16
18:02:22.156250,1.25
18:02:22.171875,-0.24
18:02:22.187500,-1.39
18:02:22.203125,-2.51
18:02:22.218750,-3.95
18:02:22.234375,-5.92
18:02:22.250000,-8.41
18:02:22.265625,-11.25
18:02:22.281250,-14.00
18:02:22.296875,-16.20
18:02:22.312500,-17.61
18:02:22.328125,-18.31
18:02:22.343750,-18.62
18:02:22.359375,-19.03
18:02:22.375000,-20.12
18:02:22.390625,-22.48
18:02:22.406250,-26.52
18:02:22.421875,-31.93
18:02:22.437500,-37.79
18:02:22.453125,-42.95
18:02:22.468750,-46.37
18:02:22.484375,-47.46
18:02:22.500000,-46.10
18:02:22.515625,-42.73
18:02:22.531250,-38.17
18:02:22.546875,-33.36
18:02:22.562500,-28.50
18:02:22.578125,-23.36
18:02:22.593750,-17.62
18:02:22.609375,-11.30
18:02:22.625000,-4.61
18:02:22.640625,2.27
18:02:22.656250,9.28
18:02:22.671875,16.43
18:02:22.687500,23.67
18:02:22.703125,31.56
18:02:22.718750,40.73
18:02:22.734375,51.41
18:02:22.750000,63.29
18:02:22.765625,75.90
18:02:22.781250,88.88
18:02:22.796875,101.99
18:02:22.812500,114.76
18:02:22.828125,122.27
18:02:22.843750,120.09
18:02:22.859375,107.12
18:02:22.875000,87.06
18:02:22.890625,65.82
18:02:22.906250,48.15
18:02:22.921875,36.18
18:02:22.937500,29.62
18:02:22.953125,26.56
18:02:22.968750,24.24
18:02:22.984375,21.02
18:02:23,16.55
18:02:23.015625,11.40
18:02:23.031250,6.04
18:02:23.046875,1.10
18:02:23.062500,-2.78
18:02:23.078125,-5.07
18:02:23.093750,-5.48
18:02:23.109375,-4.35
18:02:23.125000,-1.85
18:02:23.140625,1.67
18:02:23.156250,5.41
18:02:23.171875,8.10
18:02:23.187500,8.51
18:02:23.203125,5.77
18:02:23.218750,-0.71
18:02:23.234375,-9.21
18:02:23.250000,-18.62
18:02:23.265625,-27.74
18:02:23.281250,-35.73
18:02:23.296875,-42.44
18:02:23.312500,-48.43
18:02:23.328125,-54.49
18:02:23.343750,-61.10
18:02:23.359375,-68.07
18:02:23.375000,-74.49
18:02:23.390625,-79.25
18:02:23.406250,-81.00
18:02:23.421875,-78.73
18:02:23.437500,-72.25
18:02:23.453125,-62.39
18:02:23.468750,-50.58
18:02:23.484375,-38.47
18:02:23.500000,-27.36
18:02:23.515625,-17.88
18:02:23.531250,-10.20
18:02:23.546875,-3.86
18:02:23.562500,1.72
18:02:23.578125,6.91
18:02:23.593750,11.82
18:02:23.609375,16.33
18:02:23.625000,20.43
18:02:23.640625,24.31
18:02:23.656250,28.21
18:02:23.671875,31.95
18:02:23.687500,34.89
18:02:23.703125,36.04
18:02:23.718750,34.35
18:02:23.734375,29.26
18:02:23.750000,21.05
18:02:23.765625,10.71
18:02:23.781250,-0.32
18:02:23.796875,-10.54
18:02:23.812500,-18.62
18:02:23.828125,-23.49
18:02:23.843750,-24.45
18:02:23.859375,-21.50
18:02:23.875000,-15.46
18:02:23.890625,-7.90
18:02:23.906250,-0.60
18:02:23.921875,5.14
18:02:23.937500,9.03
18:02:23.953125,11.73
18:02:23.968750,14.34
18:02:23.984375,17.68
18:02:24,21.69
18:02:24.015625,25.57
18:02:24.031250,28.21
18:02:24.046875,28.89
18:02:24.062500,27.57
18:02:24.078125,24.87
18:02:24.093750,21.58
18:02:24.109375,18.33
18:02:24.125000,15.31
18:02:24.140625,12.44
18:02:24.156250,9.60
18:02:24.171875,6.80
18:02:24.187500,4.18
18:02:24.203125,1.90
18:02:24.218750,-0.14
18:02:24.234375,-2.46
18:02:24.250000,-5.88
18:02:24.265625,-11.23
18:02:24.281250,-18.97
18:02:24.296875,-28.93
18:02:24.312500,-40.38
18:02:24.328125,-52.31
18:02:24.343750,-63.85
18:02:24.359375,-74.58
18:02:24.375000,-84.60
18:02:24.390625,-94.30
18:02:24.406250,-104.17
18:02:24.421875,-114.42
18:02:24.437500,-124.89
18:02:24.453125,-134.93
18:02:24.468750,-143.38
18:02:24.484375,-148.66
18:02:24.500000,-149.13
18:02:24.515625,-143.55
18:02:24.531250,-131.56
18:02:24.546875,-114.07
18:02:24.562500,-93.15
18:02:24.578125,-71.47
18:02:24.593750,-51.56
18:02:24.609375,-35.08
18:02:24.625000,-22.49
18:02:24.640625,-13.35
18:02:24.656250,-6.68
18:02:24.671875,-1.61
18:02:24.687500,2.47
18:02:24.703125,5.87
18:02:24.718750,8.88
18:02:24.734375,11.92
18:02:24.750000,15.52
18:02:24.765625,20.05
18:02:24.781250,25.51
18:02:24.796875,31.48
18:02:24.812500,37.27
18:02:24.828125,42.16
18:02:24.843750,45.79
18:02:24.859375,48.16
18:02:24.875000,49.63
18:02:24.890625,50.64
18:02:24.906250,51.57
18:02:24.921875,52.54
18:02:24.937500,53.51
18:02:24.953125,54.36
18:02:24.968750,55.05
18:02:24.984375,55.59
18:02:25,55.96
18:02:25.015625,56.01
18:02:25.031250,55.43
18:02:25.046875,53.88
18:02:25.062500,51.16
18:02:25.078125,47.34
18:02:25.093750,42.72
18:02:25.109375,37.62
18:02:25.125000,32.19
18:02:25.140625,26.31
18:02:25.156250,19.66
18:02:25.171875,11.99
18:02:25.187500,3.30
18:02:25.203125,-6.09
18:02:25.218750,-15.68
18:02:25.234375,-24.99
18:02:25.250000,-33.79
18:02:25.265625,-42.04
18:02:25.281250,-49.79
18:02:25.296875,-57.07
18:02:25.312500,-63.78
18:02:25.328125,-69.81
18:02:25.343750,-75.08
18:02:25.359375,-79.56
18:02:25.375000,-83.19
18:02:25.390625,-85.74
18:02:25.406250,-86.79
18:02:25.421875,-85.77
18:02:25.437500,-82.15
18:02:25.453125,-75.70
18:02:25.468750,-66.52
18:02:25.484375,-55.06
18:02:25.500000,-41.99
18:02:25.515625,-27.97
18:02:25.531250,-13.54
18:02:25.546875,0.89
18:02:25.562500,15.09
18:02:25.578125,28.93
18:02:25.593750,42.32
18:02:25.609375,55.22
18:02:25.625000,67.55
18:02:25.640625,79.23
18:02:25.656250,90.13
18:02:25.671875,100.04
18:02:25.687500,108.75
18:02:25.703125,116.04
18:02:25.718750,121.75
18:02:25.734375,125.79
18:02:25.750000,128.13
18:02:25.765625,128.81
18:02:25.781250,127.94
18:02:25.796875,125.68
18:02:25.812500,122.24
18:02:25.828125,117.88
18:02:25.843750,112.86
18:02:25.859375,107.36
18:02:25.875000,101.44
18:02:25.890625,94.98
18:02:25.906250,87.73
18:02:25.921875,79.41
18:02:25.937500,69.80
18:02:25.953125,58.94
18:02:25.968750,47.11
18:02:25.984375,34.80
18:02:26,22.57
18:02:26.015625,10.80
18:02:26.031250,-0.39
18:02:26.046875,-11.13
18:02:26.062500,-21.57
18:02:26.078125,-31.67
18:02:26.093750,-41.12
18:02:26.109375,-49.52
18:02:26.125000,-56.70
18:02:26.140625,-62.81
18:02:26.156250,-68.24
18:02:26.171875,-73.25
18:02:26.187500,-77.61
18:02:26.203125,-80.73
18:02:26.218750,-82.05
18:02:26.234375,-81.52
18:02:26.250000,-79.99
18:02:26.265625,-78.99
18:02:26.281250,-80.14
18:02:26.296875,-84.50
18:02:26.312500,-92.31
18:02:26.328125,-103.12
18:02:26.343750,-116.16
18:02:26.359375,-130.57
18:02:26.375000,-145.13
18:02:26.390625,-157.99
18:02:26.406250,-166.52
18:02:26.421875,-167.97
18:02:26.437500,-160.42
18:02:26.453125,-143.66
18:02:26.468750,-119.47
18:02:26.484375,-90.95
18:02:26.500000,-61.52
18:02:26.515625,-33.80
18:02:26.531250,-9.25
18:02:26.546875,11.75
18:02:26.562500,29.30
18:02:26.578125,43.64
18:02:26.593750,55.06
18:02:26.609375,64.11
18:02:26.625000,71.68
18:02:26.640625,78.85
18:02:26.656250,86.47
18:02:26.671875,94.72
18:02:26.687500,102.99
18:02:26.703125,110.23
18:02:26.718750,115.40
18:02:26.734375,117.99
18:02:26.750000,118.18
18:02:26.765625,116.66
18:02:26.781250,114.41
18:02:26.796875,112.29
18:02:26.812500,110.87
18:02:26.828125,110.34
18:02:26.843750,110.53
18:02:26.859375,110.93
18:02:26.875000,110.89
18:02:26.890625,109.82
18:02:26.906250,107.49
18:02:26.921875,104.24
18:02:26.937500,100.97
18:02:26.953125,98.78
18:02:26.968750,98.47
18:02:26.984375,100.16
18:02:27,103.15
18:02:27.015625,106.35
18:02:27.031250,108.93
18:02:27.046875,110.78
18:02:27.062500,112.57
18:02:27.078125,115.24
18:02:27.093750,119.37
18:02:27.109375,124.88
18:02:27.125000,131.16
18:02:27.140625,137.64
18:02:27.156250,144.12
18:02:27.171875,150.74
18:02:27.187500,157.42
18:02:27.203125,163.35
18:02:27.218750,167.01
18:02:27.234375,166.86
18:02:27.250000,162.41
18:02:27.265625,154.85
18:02:27.281250,146.86
18:02:27.296875,141.38
18:02:27.312500,140.13
18:02:27.328125,142.60
18:02:27.343750,146.32
18:02:27.359375,148.06
18:02:27.375000,145.33
18:02:27.390625,137.23
18:02:27.406250,124.24
18:02:27.421875,107.36
18:02:27.437500,87.17
18:02:27.453125,63.63
18:02:27.468750,36.36
18:02:27.484375,5.47
18:02:27.500000,-28.13
18:02:27.515625,-63.06
18:02:27.531250,-98.23
18:02:27.546875,-133.81
18:02:27.562500,-171.70
18:02:27.578125,-215.01
18:02:27.593750,-266.62
18:02:27.609375,-327.00
18:02:27.625000,-392.52
18:02:27.640625,-455.27
18:02:27.656250,-504.75
18:02:27.671875,-531.33
18:02:27.687500,-529.89
18:02:27.703125,-501.96
18:02:27.718750,-455.18
18:02:27.734375,-400.28
18:02:27.750000,-347.00
18:02:27.765625,-301.09
18:02:27.781250,-263.60
18:02:27.796875,-232.47
18:02:27.812500,-205.01
18:02:27.828125,-179.86
18:02:27.843750,-157.21
18:02:27.859375,-137.85
18:02:27.875000,-121.88
18:02:27.890625,-108.18
18:02:27.906250,-94.89
18:02:27.921875,-80.56
18:02:27.937500,-64.93
18:02:27.953125,-49.11
18:02:27.968750,-35.15
18:02:27.984375,-24.81
18:02:28,-18.83
18:02:28.015625,-16.47
18:02:28.031250,-15.92
18:02:28.046875,-15.06
18:02:28.062500,-12.45
18:02:28.078125,-7.87
18:02:28.093750,-2.29
18:02:28.109375,2.67
18:02:28.125000,5.60
18:02:28.140625,5.88
18:02:28.156250,3.91
18:02:28.171875,0.77
18:02:28.187500,-2.39
18:02:28.203125,-4.84
18:02:28.218750,-6.60
18:02:28.234375,-8.26
18:02:28.250000,-10.68
18:02:28.265625,-14.49
18:02:28.281250,-19.73
18:02:28.296875,-25.79
18:02:28.312500,-31.53
18:02:28.328125,-35.66
18:02:28.343750,-37.16
18:02:28.359375,-35.60
18:02:28.375000,-31.19
18:02:28.390625,-24.59
18:02:28.406250,-16.65
18:02:28.421875,-8.04
18:02:28.437500,0.92
18:02:28.453125,10.17
18:02:28.468750,19.75
18:02:28.484375,29.64
18:02:28.500000,39.66
18:02:28.515625,49.46
18:02:28.531250,58.65
18:02:28.546875,66.89
18:02:28.562500,73.93
18:02:28.578125,79.59
18:02:28.593750,83.79
18:02:28.609375,86.57
18:02:28.625000,88.03
18:02:28.640625,88.42
18:02:28.656250,88.10
18:02:28.671875,87.40
18:02:28.687500,86.65
18:02:28.703125,85.99
18:02:28.718750,85.41
18:02:28.734375,84.75
18:02:28.750000,83.82
18:02:28.765625,82.50
18:02:28.781250,80.75
18:02:28.796875,78.63
18:02:28.812500,76.21
18:02:28.828125,73.60
18:02:28.843750,70.85
18:02:28.859375,68.01
18:02:28.875000,65.09
18:02:28.890625,62.13
18:02:28.906250,59.08
18:02:28.921875,55.89
18:02:28.937500,52.47
18:02:28.953125,48.81
18:02:28.968750,45.03
18:02:28.984375,41.34
18:02:29,37.99
18:02:29.015625,35.14
18:02:29.031250,32.77
18:02:29.046875,30.63
18:02:29.062500,28.36
18:02:29.078125,25.62
18:02:29.093750,22.21
18:02:29.109375,18.20
18:02:29.125000,13.85
18:02:29.140625,9.52
18:02:29.156250,5.50
18:02:29.171875,1.87
18:02:29.187500,-1.55
18:02:29.203125,-5.08
18:02:29.218750,-9.04
18:02:29.234375,-13.59
18:02:29.250000,-18.58
18:02:29.265625,-23.52
18:02:29.281250,-27.76
18:02:29.296875,-30.61
18:02:29.312500,-31.57
18:02:29.328125,-30.39
18:02:29.343750,-27.12
18:02:29.359375,-22.03
18:02:29.375000,-15.55
18:02:29.390625,-8.17
18:02:29.406250,-0.38
18:02:29.421875,7.39
18:02:29.437500,14.84
18:02:29.453125,21.79
18:02:29.468750,28.24
18:02:29.484375,34.27
18:02:29.500000,39.93
18:02:29.515625,45.23
18:02:29.531250,50.00
18:02:29.546875,54.03
18:02:29.562500,57.09
18:02:29.578125,59.06
18:02:29.593750,59.96
18:02:29.609375,59.96
18:02:29.625000,59.27
18:02:29.640625,58.07
18:02:29.656250,56.49
18:02:29.671875,54.62
18:02:29.687500,52.55
18:02:29.703125,50.38
18:02:29.718750,48.24
18:02:29.734375,46.26
18:02:29.750000,44.49
18:02:29.765625,42.90
18:02:29.781250,41.34
18:02:29.796875,39.61
18:02:29.812500,37.55
18:02:29.828125,35.14
18:02:29.843750,32.50
18:02:29.859375,29.80
18:02:29.875000,27.19
18:02:29.890625,24.70
18:02:29.906250,22.22
18:02:29.921875,19.60
18:02:29.937500,16.76
18:02:29.953125,13.76
18:02:29.968750,10.80
18:02:29.984375,8.09
18:02:30,5.76
18:02:30.015625,3.74
18:02:30.031250,1.85
18:02:30.046875,-0.10
18:02:30.062500,-2.24
18:02:30.078125,-4.55
18:02:30.093750,-6.95
18:02:30.109375,-9.38
18:02:30.125000,-11.78
18:02:30.140625,-14.20
18:02:30.156250,-16.69
18:02:30.171875,-19.31
18:02:30.187500,-22.13
18:02:30.203125,-25.20
18:02:30.218750,-28.54
18:02:30.234375,-32.07
18:02:30.250000,-35.53
18:02:30.265625,-38.47
18:02:30.281250,-40.29
18:02:30.296875,-40.46
18:02:30.312500,-38.72
18:02:30.328125,-35.14
18:02:30.343750,-30.13
18:02:30.359375,-24.25
18:02:30.375000,-18.05
18:02:30.390625,-11.86
18:02:30.406250,-5.83
18:02:30.421875,0.02
18:02:30.437500,5.74
18:02:30.453125,11.28
18:02:30.468750,16.55
18:02:30.484375,21.41
18:02:30.500000,25.71
18:02:30.515625,29.34
18:02:30.531250,32.24
18:02:30.546875,34.37
18:02:30.562500,35.70
18:02:30.578125,36.21
18:02:30.593750,35.94
18:02:30.609375,35.01
18:02:30.625000,33.58
18:02:30.640625,31.88
18:02:30.656250,30.11
18:02:30.671875,28.39
18:02:30.687500,26.76
18:02:30.703125,25.17
18:02:30.718750,23.53
18:02:30.734375,21.78
18:02:30.750000,19.93
18:02:30.765625,18.00
18:02:30.781250,16.07
18:02:30.796875,14.22
18:02:30.812500,12.50
18:02:30.828125,10.93
18:02:30.843750,9.49
18:02:30.859375,8.09
18:02:30.875000,6.60
18:02:30.890625,4.89
18:02:30.906250,2.88
18:02:30.921875,0.64
18:02:30.937500,-1.66
18:02:30.953125,-3.79
18:02:30.968750,-5.56
18:02:30.984375,-6.90
18:02:31,-7.93
18:02:31.015625,-8.89
18:02:31.031250,-10.03
18:02:31.046875,-11.56
18:02:31.062500,-13.55
18:02:31.078125,-15.88
18:02:31.093750,-18.33
18:02:31.109375,-20.61
18:02:31.125000,-22.55
18:02:31.140625,-24.08
18:02:31.156250,-25.38
18:02:31.171875,-26.72
18:02:31.187500,-28.41
18:02:31.203125,-30.60
18:02:31.218750,-33.20
18:02:31.234375,-35.82
18:02:31.250000,-37.91
18:02:31.265625,-38.90
18:02:31.281250,-38.43
18:02:31.296875,-36.40
18:02:31.312500,-33.05
18:02:31.328125,-28.75
18:02:31.343750,-23.94
18:02:31.359375,-18.96
18:02:31.375000,-13.98
18:02:31.390625,-9.04
18:02:31.406250,-4.13
18:02:31.421875,0.75
18:02:31.437500,5.54
18:02:31.453125,10.07
18:02:31.468750,14.20
18:02:31.484375,17.76
18:02:31.500000,20.68
18:02:31.515625,22.94
18:02:31.531250,24.58
18:02:31.546875,25.69
18:02:31.562500,26.35
18:02:31.578125,26.63
18:02:31.593750,26.60
18:02:31.609375,26.31
18:02:31.625000,25.83
18:02:31.640625,25.24
18:02:31.656250,24.58
18:02:31.671875,23.87
18:02:31.687500,23.06
18:02:31.703125,22.09
18:02:31.718750,20.92
18:02:31.734375,19.57
18:02:31.750000,18.05
18:02:31.765625,16.44
18:02:31.781250,14.76
18:02:31.796875,13.02
18:02:31.812500,11.23
18:02:31.828125,9.40
18:02:31.843750,7.55
18:02:31.859375,5.75
18:02:31.875000,4.03
18:02:31.890625,2.46
18:02:31.906250,1.04
18:02:31.921875,-0.23
18:02:31.937500,-1.38
18:02:31.953125,-2.42
18:02:31.968750,-3.41
18:02:31.984375,-4.40
18:02:32,-5.43
18:02:32.015625,-6.56
18:02:32.031250,-7.81
18:02:32.046875,-9.18
18:02:32.062500,-10.64
18:02:32.078125,-12.15
18:02:32.093750,-13.67
18:02:32.109375,-15.20
18:02:32.125000,-16.79
18:02:32.140625,-18.45
18:02:32.156250,-20.20
18:02:32.171875,-22.00
18:02:32.187500,-23.80
18:02:32.203125,-25.57
18:02:32.218750,-27.27
18:02:32.234375,-28.89
18:02:32.250000,-30.30
18:02:32.265625,-31.26
18:02:32.281250,-31.43
18:02:32.296875,-30.50
18:02:32.312500,-28.36
18:02:32.328125,-25.10
18:02:32.343750,-21.09
18:02:32.359375,-16.75
18:02:32.375000,-12.46
18:02:32.390625,-8.46
18:02:32.406250,-4.77
18:02:32.421875,-1.35
18:02:32.437500,1.90
18:02:32.453125,5.02
18:02:32.468750,8.01
18:02:32.484375,10.80
18:02:32.500000,13.29
18:02:32.515625,15.33
18:02:32.531250,16.83
18:02:32.546875,17.73
18:02:32.562500,18.06
18:02:32.578125,17.94
18:02:32.593750,17.50
18:02:32.609375,16.86
18:02:32.625000,16.13
18:02:32.640625,15.36
18:02:32.656250,14.59
18:02:32.671875,13.90
18:02:32.687500,13.33
18:02:32.703125,12.91
18:02:32.718750,12.59
18:02:32.734375,12.26
18:02:32.750000,11.77
18:02:32.765625,10.99
18:02:32.781250,9.83
18:02:32.796875,8.33
18:02:32.812500,6.61
18:02:32.828125,4.85
18:02:32.843750,3.21
18:02:32.859375,1.83
18:02:32.875000,0.72
18:02:32.890625,-0.18
18:02:32.906250,-0.98
18:02:32.921875,-1.77
18:02:32.937500,-2.57
18:02:32.953125,-3.31
18:02:32.968750,-3.91
18:02:32.984375,-4.34
18:02:33,-4.68
18:02:33.015625,-5.08
18:02:33.031250,-5.76
18:02:33.046875,-6.85
18:02:33.062500,-8.36
18:02:33.078125,-10.12
18:02:33.093750,-11.84
18:02:33.109375,-13.27
18:02:33.125000,-14.24
18:02:33.140625,-14.77
18:02:33.156250,-15.10
18:02:33.171875,-15.51
18:02:33.187500,-16.29
18:02:33.203125,-17.58
18:02:33.218750,-19.36
18:02:33.234375,-21.48
18:02:33.250000,-23.68
18:02:33.265625,-25.65
18:02:33.281250,-27.06
18:02:33.296875,-27.62
18:02:33.312500,-27.10
18:02:33.328125,-25.47
18:02:33.343750,-22.87
18:02:33.359375,-19.61
18:02:33.375000,-16.05
18:02:33.390625,-12.48
18:02:33.406250,-9.05
18:02:33.421875,-5.76
18:02:33.437500,-2.56
18:02:33.453125,0.59
18:02:33.468750,3.60
18:02:33.484375,6.35
18:02:33.500000,8.72
18:02:33.515625,10.67
18:02:33.531250,12.23
18:02:33.546875,13.46
18:02:33.562500,14.40
18:02:33.578125,15.00
18:02:33.593750,15.19
18:02:33.609375,14.94
18:02:33.625000,14.27
18:02:33.640625,13.29
18:02:33.656250,12.20
18:02:33.671875,11.16
18:02:33.687500,10.29
18:02:33.703125,9.62
18:02:33.718750,9.11
18:02:33.734375,8.67
18:02:33.750000,8.26
18:02:33.765625,7.82
18:02:33.781250,7.33
18:02:33.796875,6.80
18:02:33.812500,6.23
18:02:33.828125,5.61
18:02:33.843750,4.94
18:02:33.859375,4.20
18:02:33.875000,3.42
18:02:33.890625,2.62
18:02:33.906250,1.84
18:02:33.921875,1.15
18:02:33.937500,0.54
18:02:33.953125,0.02
18:02:33.968750,-0.50
18:02:33.984375,-1.08
18:02:34,-1.80
18:02:34.015625,-2.65
18:02:34.031250,-3.59
18:02:34.046875,-4.57
18:02:34.062500,-5.58
18:02:34.078125,-6.69
18:02:34.093750,-7.95
18:02:34.109375,-9.42
18:02:34.125000,-11.08
18:02:34.140625,-12.89
18:02:34.156250,-14.73
18:02:34.171875,-16.56
18:02:34.187500,-18.37
18:02:34.203125,-20.21
18:02:34.218750,-22.13
18:02:34.234375,-24.07
18:02:34.250000,-25.87
18:02:34.265625,-27.27
18:02:34.281250,-27.98
18:02:34.296875,-27.76
18:02:34.312500,-26.55
18:02:34.328125,-24.39
18:02:34.343750,-21.51
18:02:34.359375,-18.15
18:02:34.375000,-14.56
18:02:34.390625,-10.90
18:02:34.406250,-7.24
18:02:34.421875,-3.58
18:02:34.437500,0.06
18:02:34.453125,3.63
18:02:34.468750,7.01
18:02:34.484375,10.05
18:02:34.500000,12.63
18:02:34.515625,14.71
18:02:34.531250,16.34
18:02:34.546875,17.63
18:02:34.562500,18.62
18:02:34.578125,19.29
18:02:34.593750,19.56
18:02:34.609375,19.37
18:02:34.625000,18.74
18:02:34.640625,17.79
18:02:34.656250,16.74
18:02:34.671875,15.76
18:02:34.687500,14.94
18:02:34.703125,14.25
18:02:34.718750,13.59
18:02:34.734375,12.86
18:02:34.750000,12.04
18:02:34.765625,11.16
18:02:34.781250,10.27
18:02:34.796875,9.36
18:02:34.812500,8.42
18:02:34.828125,7.40
18:02:34.843750,6.27
18:02:34.859375,5.07
18:02:34.875000,3.83
18:02:34.890625,2.65
18:02:34.906250,1.56
18:02:34.921875,0.59
18:02:34.937500,-0.29
18:02:34.953125,-1.09
18:02:34.968750,-1.85
18:02:34.984375,-2.61
18:02:35,-3.40
18:02:35.015625,-4.28
18:02:35.031250,-5.27
18:02:35.046875,-6.41
18:02:35.062500,-7.69
18:02:35.078125,-9.08
18:02:35.093750,-10.51
18:02:35.109375,-11.92
18:02:35.125000,-13.27
18:02:35.140625,-14.57
18:02:35.156250,-15.85
18:02:35.171875,-17.17
18:02:35.187500,-18.60
18:02:35.203125,-20.17
18:02:35.218750,-21.89
18:02:35.234375,-23.71
18:02:35.250000,-25.56
18:02:35.265625,-27.27
18:02:35.281250,-28.63
18:02:35.296875,-29.36
18:02:35.312500,-29.21
18:02:35.328125,-27.97
18:02:35.343750,-25.63
18:02:35.359375,-22.36
18:02:35.375000,-18.48
18:02:35.390625,-14.32
18:02:35.406250,-10.15
18:02:35.421875,-6.08
18:02:35.437500,-2.08
18:02:35.453125,1.93
18:02:35.468750,6.01
18:02:35.484375,10.09
18:02:35.500000,14.00
18:02:35.515625,17.51
18:02:35.531250,20.37
18:02:35.546875,22.45
18:02:35.562500,23.75
18:02:35.578125,24.34
18:02:35.593750,24.37
18:02:35.609375,24.01
18:02:35.625000,23.42
18:02:35.640625,22.70
18:02:35.656250,21.92
18:02:35.671875,21.09
18:02:35.687500,20.26
18:02:35.703125,19.46
18:02:35.718750,18.72
18:02:35.734375,18.09
18:02:35.750000,17.51
18:02:35.765625,16.90
18:02:35.781250,16.14
18:02:35.796875,15.18
18:02:35.812500,14.06
18:02:35.828125,12.88
18:02:35.843750,11.80
18:02:35.859375,10.89
18:02:35.875000,10.13
18:02:35.890625,9.36
18:02:35.906250,8.43
18:02:35.921875,7.20
18:02:35.937500,5.70
18:02:35.953125,4.04
18:02:35.968750,2.45
18:02:35.984375,1.05
18:02:36,-0.13
18:02:36.015625,-1.15
18:02:36.031250,-2.16
18:02:36.046875,-3.25
18:02:36.062500,-4.48
18:02:36.078125,-5.84
18:02:36.093750,-7.28
18:02:36.109375,-8.78
18:02:36.125000,-10.34
18:02:36.140625,-11.96
18:02:36.156250,-13.62
18:02:36.171875,-15.30
18:02:36.187500,-16.96
18:02:36.203125,-18.59
18:02:36.218750,-20.26
18:02:36.234375,-22.02
18:02:36.250000,-23.92
18:02:36.265625,-25.86
18:02:36.281250,-27.64
18:02:36.296875,-28.96
18:02:36.312500,-29.52
18:02:36.328125,-29.10
18:02:36.343750,-27.61
18:02:36.359375,-25.15
18:02:36.375000,-21.95
18:02:36.390625,-18.26
18:02:36.406250,-14.36
18:02:36.421875,-10.43
18:02:36.437500,-6.58
18:02:36.453125,-2.87
18:02:36.468750,0.70
18:02:36.484375,4.12
18:02:36.500000,7.33
18:02:36.515625,10.30
18:02:36.531250,12.95
18:02:36.546875,15.23
18:02:36.562500,17.13
18:02:36.578125,18.64
18:02:36.593750,19.75
18:02:36.609375,20.41
18:02:36.625000,20.59
18:02:36.640625,20.24
18:02:36.656250,19.42
18:02:36.671875,18.26
18:02:36.687500,16.98
18:02:36.703125,15.79
18:02:36.718750,14.82
18:02:36.734375,14.09
18:02:36.750000,13.52
18:02:36.765625,12.99
18:02:36.781250,12.37
18:02:36.796875,11.60
18:02:36.812500,10.69
18:02:36.828125,9.70
18:02:36.843750,8.70
18:02:36.859375,7.73
18:02:36.875000,6.81
18:02:36.890625,5.88
18:02:36.906250,4.88
18:02:36.921875,3.75
18:02:36.937500,2.50
18:02:36.953125,1.16
18:02:36.968750,-0.19
18:02:36.984375,-1.53
18:02:37,-2.87
18:02:37.015625,-4.24
18:02:37.031250,-5.66
18:02:37.046875,-7.12
18:02:37.062500,-8.52
18:02:37.078125,-9.79
18:02:37.093750,-10.91
18:02:37.109375,-11.91
18:02:37.125000,-12.91
18:02:37.140625,-13.99
18:02:37.156250,-15.21
18:02:37.171875,-16.53
18:02:37.187500,-17.88
18:02:37.203125,-19.21
18:02:37.218750,-20.54
18:02:37.234375,-21.92
18:02:37.250000,-23.36
18:02:37.265625,-24.79
18:02:37.281250,-25.98
18:02:37.296875,-26.64
18:02:37.312500,-26.46
18:02:37.328125,-25.24
18:02:37.343750,-22.99
18:02:37.359375,-19.91
18:02:37.375000,-16.28
18:02:37.390625,-12.37
18:02:37.406250,-8.37
18:02:37.421875,-4.37
18:02:37.437500,-0.40
18:02:37.453125,3.46
18:02:37.468750,7.13
18:02:37.484375,10.49
18:02:37.500000,13.43
18:02:37.515625,15.86
18:02:37.531250,17.74
18:02:37.546875,19.04
18:02:37.562500,19.79
18:02:37.578125,20.01
18:02:37.593750,19.79
18:02:37.609375,19.27
18:02:37.625000,18.61
18:02:37.640625,17.92
18:02:37.656250,17.28
18:02:37.671875,16.71
18:02:37.687500,16.18
18:02:37.703125,15.64
18:02:37.718750,15.04
18:02:37.734375,14.37
18:02:37.750000,13.57
18:02:37.765625,12.65
18:02:37.781250,11.60
18:02:37.796875,10.45
18:02:37.812500,9.26
18:02:37.828125,8.09
18:02:37.843750,7.00
18:02:37.859375,6.03
18:02:37.875000,5.19
18:02:37.890625,4.48
18:02:37.906250,3.87
18:02:37.921875,3.32
18:02:37.937500,2.83
18:02:37.953125,2.34
18:02:37.968750,1.82
18:02:37.984375,1.16
18:02:38,0.28
18:02:38.015625,-0.93
18:02:38.031250,-2.47
18:02:38.046875,-4.31
18:02:38.062500,-6.34
18:02:38.078125,-8.41
18:02:38.093750,-10.36
18:02:38.109375,-12.12
18:02:38.125000,-13.61
18:02:38.140625,-14.85
18:02:38.156250,-15.88
18:02:38.171875,-16.77
18:02:38.187500,-17.66
18:02:38.203125,-18.67
18:02:38.218750,-19.92
18:02:38.234375,-21.41
18:02:38.250000,-23.03
18:02:38.265625,-24.51
18:02:38.281250,-25.52
18:02:38.296875,-25.76
18:02:38.312500,-25.02
18:02:38.328125,-23.27
18:02:38.343750,-20.61
18:02:38.359375,-17.25
18:02:38.375000,-13.45
18:02:38.390625,-9.43
18:02:38.406250,-5.39
18:02:38.421875,-1.44
18:02:38.437500,2.37
18:02:38.453125,6.05
18:02:38.468750,9.56
18:02:38.484375,12.81
18:02:38.500000,15.62
18:02:38.515625,17.77
18:02:38.531250,19.09
18:02:38.546875,19.55
18:02:38.562500,19.27
18:02:38.578125,18.54
18:02:38.593750,17.65
18:02:38.609375,16.83
18:02:38.625000,16.20
18:02:38.640625,15.75
18:02:38.656250,15.39
18:02:38.671875,15.04
18:02:38.687500,14.71
18:02:38.703125,14.43
18:02:38.718750,14.28
18:02:38.734375,14.25
18:02:38.750000,14.26
18:02:38.765625,14.12
18:02:38.781250,13.66
18:02:38.796875,12.79
18:02:38.812500,11.56
18:02:38.828125,10.15
18:02:38.843750,8.77
18:02:38.859375,7.52
18:02:38.875000,6.38
18:02:38.890625,5.27
18:02:38.906250,4.10
18:02:38.921875,2.91
18:02:38.937500,1.84
18:02:38.953125,1.07
18:02:38.968750,0.65
18:02:38.984375,0.47
18:02:39,0.29
18:02:39.015625,-0.16
18:02:39.031250,-1.00
18:02:39.046875,-2.25
18:02:39.062500,-3.77
18:02:39.078125,-5.45
18:02:39.093750,-7.18
18:02:39.109375,-8.95
18:02:39.125000,-10.75
18:02:39.140625,-12.56
18:02:39.156250,-14.35
18:02:39.171875,-16.03
18:02:39.187500,-17.57
18:02:39.203125,-18.95
18:02:39.218750,-20.18
18:02:39.234375,-21.23
18:02:39.250000,-22.02
18:02:39.265625,-22.40
18:02:39.281250,-22.20
18:02:39.296875,-21.32
18:02:39.312500,-19.75
18:02:39.328125,-17.61
18:02:39.343750,-15.05
18:02:39.359375,-12.27
18:02:39.375000,-9.43
18:02:39.390625,-6.61
18:02:39.406250,-3.84
18:02:39.421875,-1.13
18:02:39.437500,1.57
18:02:39.453125,4.28
18:02:39.468750,6.97
18:02:39.484375,9.62
18:02:39.500000,12.12
18:02:39.515625,14.32
18:02:39.531250,16.07
18:02:39.546875,17.26
18:02:39.562500,17.88
18:02:39.578125,17.94
18:02:39.593750,17.55
18:02:39.609375,16.81
18:02:39.625000,15.83
18:02:39.640625,14.67
18:02:39.656250,13.43
18:02:39.671875,12.22
18:02:39.687500,11.14
18:02:39.703125,10.30
18:02:39.718750,9.79
18:02:39.734375,9.59
18:02:39.750000,9.63
18:02:39.765625,9.77
18:02:39.781250,9.87
18:02:39.796875,9.79
18:02:39.812500,9.42
18:02:39.828125,8.70
18:02:39.843750,7.60
18:02:39.859375,6.18
18:02:39.875000,4.51
18:02:39.890625,2.74
18:02:39.906250,0.98
18:02:39.921875,-0.67
18:02:39.937500,-2.16
18:02:39.953125,-3.53
18:02:39.968750,-4.80
18:02:39.984375,-5.95
18:02:40,-6.96
18:02:40.015625,-7.78
18:02:40.031250,-8.44
18:02:40.046875,-8.99
18:02:40.062500,-9.58
18:02:40.078125,-10.29
18:02:40.093750,-11.18
18:02:40.109375,-12.24
18:02:40.125000,-13.43
18:02:40.140625,-14.79
18:02:40.156250,-16.40
18:02:40.171875,-18.35
18:02:40.187500,-20.58
18:02:40.203125,-22.91
18:02:40.218750,-24.93
18:02:40.234375,-26.22
18:02:40.250000,-26.44
18:02:40.265625,-25.43
18:02:40.281250,-23.31
18:02:40.296875,-20.34
18:02:40.312500,-16.85
18:02:40.328125,-13.15
18:02:40.343750,-9.44
18:02:40.359375,-5.85
18:02:40.375000,-2.44
18:02:40.390625,0.75
18:02:40.406250,3.70
18:02:40.421875,6.38
18:02:40.437500,8.76
18:02:40.453125,10.82
18:02:40.468750,12.52
18:02:40.484375,13.81
18:02:40.500000,14.66
18:02:40.515625,15.08
18:02:40.531250,15.18
18:02:40.546875,15.09
18:02:40.562500,14.95
18:02:40.578125,14.84
18:02:40.593750,14.79
18:02:40.609375,14.76
18:02:40.625000,14.73
18:02:40.640625,14.67
18:02:40.656250,14.58
18:02:40.671875,14.38
18:02:40.687500,14.01
18:02:40.703125,13.36
18:02:40.718750,12.40
18:02:40.734375,11.19
18:02:40.750000,9.87
18:02:40.765625,8.59
18:02:40.781250,7.45
18:02:40.796875,6.48
18:02:40.812500,5.63
18:02:40.828125,4.87
18:02:40.843750,4.19
18:02:40.859375,3.61
18:02:40.875000,3.10
18:02:40.890625,2.59
18:02:40.906250,1.96
18:02:40.921875,1.10
18:02:40.937500,-0.04
18:02:40.953125,-1.42
18:02:40.968750,-2.97
18:02:40.984375,-4.62
18:02:41,-6.32
18:02:41.015625,-8.03
18:02:41.031250,-9.69
18:02:41.046875,-11.25
18:02:41.062500,-12.63
18:02:41.078125,-13.76
18:02:41.093750,-14.64
18:02:41.109375,-15.29
18:02:41.125000,-15.80
18:02:41.140625,-16.31
18:02:41.156250,-17.00
18:02:41.171875,-18.00
18:02:41.187500,-19.41
18:02:41.203125,-21.17
18:02:41.218750,-23.08
18:02:41.234375,-24.84
18:02:41.250000,-26.11
18:02:41.265625,-26.59
18:02:41.281250,-26.16
18:02:41.296875,-24.79
18:02:41.312500,-22.58
18:02:41.328125,-19.67
18:02:41.343750,-16.19
18:02:41.359375,-12.27
18:02:41.375000,-8.07
18:02:41.390625,-3.78
18:02:41.406250,0.43
18:02:41.421875,4.39
18:02:41.437500,8.00
18:02:41.453125,11.17
18:02:41.468750,13.84
18:02:41.484375,15.91
18:02:41.500000,17.30
18:02:41.515625,17.96
18:02:41.531250,17.95
18:02:41.546875,17.40
18:02:41.562500,16.51
18:02:41.578125,15.51
18:02:41.593750,14.55
18:02:41.609375,13.76
18:02:41.625000,13.25
18:02:41.640625,13.07
18:02:41.656250,13.27
18:02:41.671875,13.79
18:02:41.687500,14.49
18:02:41.703125,15.16
18:02:41.718750,15.57
18:02:41.734375,15.54
18:02:41.750000,15.00
18:02:41.765625,13.98
18:02:41.781250,12.59
18:02:41.796875,11.02
18:02:41.812500,9.45
18:02:41.828125,8.03
18:02:41.843750,6.81
18:02:41.859375,5.75
18:02:41.875000,4.77
18:02:41.890625,3.79
18:02:41.906250,2.80
18:02:41.921875,1.84
18:02:41.937500,1.00
18:02:41.953125,0.34
18:02:41.968750,-0.13
18:02:41.984375,-0.50
18:02:42,-0.89
18:02:42.015625,-1.42
18:02:42.031250,-2.22
18:02:42.046875,-3.38
18:02:42.062500,-4.93
18:02:42.078125,-6.84
18:02:42.093750,-8.98
18:02:42.109375,-11.17
18:02:42.125000,-13.16
18:02:42.140625,-14.83
18:02:42.156250,-16.14
18:02:42.171875,-17.22
18:02:42.187500,-18.28
18:02:42.203125,-19.46
18:02:42.218750,-20.74
18:02:42.234375,-21.93
18:02:42.250000,-22.72
18:02:42.265625,-22.88
18:02:42.281250,-22.30
18:02:42.296875,-21.06
18:02:42.312500,-19.33
18:02:42.328125,-17.29
18:02:42.343750,-15.04
18:02:42.359375,-12.56
18:02:42.375000,-9.83
18:02:42.390625,-6.85
18:02:42.406250,-3.71
18:02:42.421875,-0.55
18:02:42.437500,2.48
18:02:42.453125,5.31
18:02:42.468750,7.89
18:02:42.484375,10.24
18:02:42.500000,12.37
18:02:42.515625,14.24
18:02:42.531250,15.79
18:02:42.546875,16.90
18:02:42.562500,17.47
18:02:42.578125,17.46
18:02:42.593750,16.91
18:02:42.609375,15.98
18:02:42.625000,14.91
18:02:42.640625,13.93
18:02:42.656250,13.21
18:02:42.671875,12.79
18:02:42.687500,12.59
18:02:42.703125,12.49
18:02:42.718750,12.38
18:02:42.734375,12.21
18:02:42.750000,11.98
18:02:42.765625,11.68
18:02:42.781250,11.27
18:02:42.796875,10.71
18:02:42.812500,9.90
18:02:42.828125,8.85
18:02:42.843750,7.59
18:02:42.859375,6.20
18:02:42.875000,4.77
18:02:42.890625,3.31
18:02:42.906250,1.83
18:02:42.921875,0.27
18:02:42.937500,-1.35
18:02:42.953125,-3.00
18:02:42.968750,-4.57
18:02:42.984375,-5.93
18:02:43,-7.01
18:02:43.015625,-7.79
18:02:43.031250,-8.36
18:02:43.046875,-8.85
18:02:43.062500,-9.45
18:02:43.078125,-10.35
18:02:43.093750,-11.67
18:02:43.109375,-13.44
18:02:43.125000,-15.58
18:02:43.140625,-17.94
18:02:43.156250,-20.35
18:02:43.171875,-22.66
18:02:43.187500,-24.70
18:02:43.203125,-26.38
18:02:43.218750,-27.54
18:02:43.234375,-28.03
18:02:43.250000,-27.65
18:02:43.265625,-26.30
18:02:43.281250,-23.95
18:02:43.296875,-20.75
18:02:43.312500,-16.98
18:02:43.328125,-13.01
18:02:43.343750,-9.16
18:02:43.359375,-5.64
18:02:43.375000,-2.50
18:02:43.390625,0.35
18:02:43.406250,3.03
18:02:43.421875,5.64
18:02:43.437500,8.17
18:02:43.453125,10.53
18:02:43.468750,12.59
18:02:43.484375,14.32
18:02:43.500000,15.76
18:02:43.515625,16.98
18:02:43.531250,18.02
18:02:43.546875,18.81
18:02:43.562500,19.18
18:02:43.578125,19.01
18:02:43.593750,18.26
18:02:43.609375,17.06
18:02:43.625000,15.68
18:02:43.640625,14.37
18:02:43.656250,13.29
18:02:43.671875,12.44
18:02:43.687500,11.75
18:02:43.703125,11.13
18:02:43.718750,10.54
18:02:43.734375,10.01
18:02:43.750000,9.56
18:02:43.765625,9.19
18:02:43.781250,8.86
18:02:43.796875,8.53
18:02:43.812500,8.11
18:02:43.828125,7.55
18:02:43.843750,6.78
18:02:43.859375,5.74
18:02:43.875000,4.38
18:02:43.890625,2.74
18:02:43.906250,0.88
18:02:43.921875,-1.02
18:02:43.937500,-2.78
18:02:43.953125,-4.24
18:02:43.968750,-5.30
18:02:43.984375,-5.96
18:02:44,-6.34
18:02:44.015625,-6.59
18:02:44.031250,-6.86
18:02:44.046875,-7.29
18:02:44.062500,-7.95
18:02:44.078125,-8.89
18:02:44.093750,-10.12
18:02:44.109375,-11.64
18:02:44.125000,-13.40
18:02:44.140625,-15.31
18:02:44.156250,-17.26
18:02:44.171875,-19.14
18:02:44.187500,-20.88
18:02:44.203125,-22.45
18:02:44.218750,-23.81
18:02:44.234375,-24.92
18:02:44.250000,-25.65
18:02:44.265625,-25.83
18:02:44.281250,-25.30
18:02:44.296875,-23.98
18:02:44.312500,-21.93
18:02:44.328125,-19.34
18:02:44.343750,-16.41
18:02:44.359375,-13.36
18:02:44.375000,-10.28
18:02:44.390625,-7.19
18:02:44.406250,-4.00
18:02:44.421875,-0.64
18:02:44.437500,2.91
18:02:44.453125,6.56
18:02:44.468750,10.08
18:02:44.484375,13.18
18:02:44.500000,15.65
18:02:44.515625,17.39
18:02:44.531250,18.44
18:02:44.546875,18.94
18:02:44.562500,19.02
18:02:44.578125,18.79
18:02:44.593750,18.29
18:02:44.609375,17.60
18:02:44.625000,16.80
18:02:44.640625,16.05
18:02:44.656250,15.47
18:02:44.671875,15.08
18:02:44.687500,14.80
18:02:44.703125,14.47
18:02:44.718750,13.95
18:02:44.734375,13.21
18:02:44.750000,12.31
18:02:44.765625,11.36
18:02:44.781250,10.48
18:02:44.796875,9.74
18:02:44.812500,9.12
18:02:44.828125,8.58
18:02:44.843750,8.07
18:02:44.859375,7.55
18:02:44.875000,7.02
18:02:44.890625,6.47
18:02:44.906250,5.89
18:02:44.921875,5.22
18:02:44.937500,4.47
18:02:44.953125,3.64
18:02:44.968750,2.77
18:02:44.984375,1.91
18:02:45,1.10
18:02:45.015625,0.33
18:02:45.031250,-0.47
18:02:45.046875,-1.38
18:02:45.062500,-2.47
18:02:45.078125,-3.70
18:02:45.093750,-5.01
18:02:45.109375,-6.29
18:02:45.125000,-7.48
18:02:45.140625,-8.57
18:02:45.156250,-9.62
18:02:45.171875,-10.68
18:02:45.187500,-11.75
18:02:45.203125,-12.82
18:02:45.218750,-13.86
18:02:45.234375,-14.91
18:02:45.250000,-16.01
18:02:45.265625,-17.16
18:02:45.281250,-18.27
18:02:45.296875,-19.10
18:02:45.312500,-19.39
18:02:45.328125,-18.93
18:02:45.343750,-17.69
18:02:45.359375,-15.81
18:02:45.375000,-13.50
18:02:45.390625,-10.95
18:02:45.406250,-8.27
18:02:45.421875,-5.42
18:02:45.437500,-2.36
18:02:45.453125,0.91
18:02:45.468750,4.30
18:02:45.484375,7.62
18:02:45.500000,10.62
18:02:45.515625,13.05
18:02:45.531250,14.77
18:02:45.546875,15.70
18:02:45.562500,15.95
18:02:45.578125,15.73
18:02:45.593750,15.29
18:02:45.609375,14.87
18:02:45.625000,14.62
18:02:45.640625,14.56
18:02:45.656250,14.66
18:02:45.671875,14.83
18:02:45.687500,14.99
18:02:45.703125,15.08
18:02:45.718750,15.05
18:02:45.734375,14.86
18:02:45.750000,14.50
18:02:45.765625,13.96
18:02:45.781250,13.31
18:02:45.796875,12.60
18:02:45.812500,11.88
18:02:45.828125,11.11
18:02:45.843750,10.25
18:02:45.859375,9.22
18:02:45.875000,7.99
18:02:45.890625,6.58
18:02:45.906250,5.10
18:02:45.921875,3.67
18:02:45.937500,2.43
18:02:45.953125,1.48
18:02:45.968750,0.86
18:02:45.984375,0.48
18:02:46,0.20
18:02:46.015625,-0.19
18:02:46.031250,-0.88
18:02:46.046875,-1.94
18:02:46.062500,-3.37
18:02:46.078125,-5.03
18:02:46.093750,-6.75
18:02:46.109375,-8.40
18:02:46.125000,-9.89
18:02:46.140625,-11.21
18:02:46.156250,-12.39
18:02:46.171875,-13.49
18:02:46.187500,-14.52
18:02:46.203125,-15.52
18:02:46.218750,-16.50
18:02:46.234375,-17.49
18:02:46.250000,-18.54
18:02:46.265625,-19.68
18:02:46.281250,-20.86
18:02:46.296875,-21.99
18:02:46.312500,-22.85
18:02:46.328125,-23.22
18:02:46.343750,-22.87
18:02:46.359375,-21.72
18:02:46.375000,-19.85
18:02:46.390625,-17.47
18:02:46.406250,-14.84
18:02:46.421875,-12.14
18:02:46.437500,-9.41
18:02:46.453125,-6.58
18:02:46.468750,-3.55
18:02:46.484375,-0.35
18:02:46.500000,2.85
18:02:46.515625,5.77
18:02:46.531250,8.17
18:02:46.546875,9.94
18:02:46.562500,11.13
18:02:46.578125,11.91
18:02:46.593750,12.46
18:02:46.609375,12.89
18:02:46.625000,13.18
18:02:46.640625,13.27
18:02:46.656250,13.10
18:02:46.671875,12.70
18:02:46.687500,12.13
18:02:46.703125,11.51
18:02:46.718750,10.90
18:02:46.734375,10.33
18:02:46.750000,9.78
18:02:46.765625,9.22
18:02:46.781250,8.66
18:02:46.796875,8.12
18:02:46.812500,7.64
18:02:46.828125,7.27
18:02:46.843750,6.98
18:02:46.859375,6.74
18:02:46.875000,6.48
18:02:46.890625,6.14
18:02:46.906250,5.69
18:02:46.921875,5.14
18:02:46.937500,4.51
18:02:46.953125,3.81
18:02:46.968750,3.08
18:02:46.984375,2.31
18:02:47,1.57
18:02:47.015625,0.91
18:02:47.031250,0.36
18:02:47.046875,-0.07
18:02:47.062500,-0.46
18:02:47.078125,-0.95
18:02:47.093750,-1.67
18:02:47.109375,-2.67
18:02:47.125000,-3.95
18:02:47.140625,-5.37
18:02:47.156250,-6.79
18:02:47.171875,-8.07
18:02:47.187500,-9.14
18:02:47.203125,-10.01
18:02:47.218750,-10.76
18:02:47.234375,-11.49
18:02:47.250000,-12.33
18:02:47.265625,-13.39
18:02:47.281250,-14.73
18:02:47.296875,-16.33
18:02:47.312500,-18.03
18:02:47.328125,-19.60
18:02:47.343750,-20.79
18:02:47.359375,-21.37
18:02:47.375000,-21.20
18:02:47.390625,-20.29
18:02:47.406250,-18.70
18:02:47.421875,-16.53
18:02:47.437500,-13.87
18:02:47.453125,-10.81
18:02:47.468750,-7.44
18:02:47.484375,-3.90
18:02:47.500000,-0.39
18:02:47.515625,2.89
18:02:47.531250,5.79
18:02:47.546875,8.23
18:02:47.562500,10.23
18:02:47.578125,11.83
18:02:47.593750,13.09
18:02:47.609375,14.04
18:02:47.625000,14.69
18:02:47.640625,15.08
18:02:47.656250,15.25
18:02:47.671875,15.27
18:02:47.687500,15.25
18:02:47.703125,15.24
18:02:47.718750,15.28
18:02:47.734375,15.34
18:02:47.750000,15.40
18:02:47.765625,15.44
18:02:47.781250,15.43
18:02:47.796875,15.34
18:02:47.812500,15.15
18:02:47.828125,14.82
18:02:47.843750,14.35
18:02:47.859375,13.75
18:02:47.875000,13.07
18:02:47.890625,12.39
18:02:47.906250,11.76
18:02:47.921875,11.26
18:02:47.937500,10.87
18:02:47.953125,10.56
18:02:47.968750,10.23
18:02:47.984375,9.75
18:02:48,9.02
18:02:48.015625,8.01
18:02:48.031250,6.78
18:02:48.046875,5.48
18:02:48.062500,4.27
18:02:48.078125,3.25
18:02:48.093750,2.42
18:02:48.109375,1.65
18:02:48.125000,0.79
18:02:48.140625,-0.30
18:02:48.156250,-1.65
18:02:48.171875,-3.17
18:02:48.187500,-4.68
18:02:48.203125,-6.05
18:02:48.218750,-7.17
18:02:48.234375,-8.09
18:02:48.250000,-8.90
18:02:48.265625,-9.73
18:02:48.281250,-10.67
18:02:48.296875,-11.77
18:02:48.312500,-13.00
18:02:48.328125,-14.29
18:02:48.343750,-15.53
18:02:48.359375,-16.59
18:02:48.375000,-17.33
18:02:48.390625,-17.63
18:02:48.406250,-17.39
18:02:48.421875,-16.57
18:02:48.437500,-15.18
18:02:48.453125,-13.33
18:02:48.468750,-11.13
18:02:48.484375,-8.73
18:02:48.500000,-6.21
18:02:48.515625,-3.60
18:02:48.531250,-0.90
18:02:48.546875,1.87
18:02:48.562500,4.61
18:02:48.578125,7.12
18:02:48.593750,9.19
18:02:48.609375,10.66
18:02:48.625000,11.49
18:02:48.640625,11.82
18:02:48.656250,11.87
18:02:48.671875,11.87
18:02:48.687500,12.00
18:02:48.703125,12.29
18:02:48.718750,12.67
18:02:48.734375,13.02
18:02:48.750000,13.21
18:02:48.765625,13.21
18:02:48.781250,13.01
18:02:48.796875,12.64
18:02:48.812500,12.13
18:02:48.828125,11.48
18:02:48.843750,10.67
18:02:48.859375,9.67
18:02:48.875000,8.53
18:02:48.890625,7.32
18:02:48.906250,6.18
18:02:48.921875,5.21
18:02:48.937500,4.48
18:02:48.953125,3.96
18:02:48.968750,3.56
18:02:48.984375,3.18
18:02:49,2.75
18:02:49.015625,2.23
18:02:49.031250,1.62
18:02:49.046875,0.92
18:02:49.062500,0.16
18:02:49.078125,-0.66
18:02:49.093750,-1.52
18:02:49.109375,-2.42
18:02:49.125000,-3.38
18:02:49.140625,-4.41
18:02:49.156250,-5.55
18:02:49.171875,-6.76
18:02:49.187500,-8.01
18:02:49.203125,-9.22
18:02:49.218750,-10.34
18:02:49.234375,-11.34
18:02:49.250000,-12.21
18:02:49.265625,-12.99
18:02:49.281250,-13.71
18:02:49.296875,-14.44
18:02:49.312500,-15.27
18:02:49.328125,-16.27
18:02:49.343750,-17.53
18:02:49.359375,-19.04
18:02:49.375000,-20.65
18:02:49.390625,-22.12
18:02:49.406250,-23.12
18:02:49.421875,-23.35
18:02:49.437500,-22.64
18:02:49.453125,-21.02
18:02:49.468750,-18.67
18:02:49.484375,-15.88
18:02:49.500000,-12.91
18:02:49.515625,-9.96
18:02:49.531250,-7.08
18:02:49.546875,-4.27
18:02:49.562500,-1.45
18:02:49.578125,1.38
18:02:49.593750,4.17
18:02:49.609375,6.80
18:02:49.625000,9.13
18:02:49.640625,11.06
18:02:49.656250,12.53
18:02:49.671875,13.52
18:02:49.687500,14.09
18:02:49.703125,14.29
18:02:49.718750,14.21
18:02:49.734375,13.92
18:02:49.750000,13.54
18:02:49.765625,13.14
18:02:49.781250,12.77
18:02:49.796875,12.44
18:02:49.812500,12.07
18:02:49.828125,11.62
18:02:49.843750,11.01
18:02:49.859375,10.27
18:02:49.875000,9.46
18:02:49.890625,8.68
18:02:49.906250,8.00
18:02:49.921875,7.44
18:02:49.937500,6.94
18:02:49.953125,6.42
18:02:49.968750,5.86
18:02:49.984375,5.25
18:02:50,4.64
18:02:50.015625,4.03
18:02:50.031250,3.40
18:02:50.046875,2.69
18:02:50.062500,1.85
18:02:50.078125,0.90
18:02:50.093750,-0.10
18:02:50.109375,-1.05
18:02:50.125000,-1.94
18:02:50.140625,-2.78
18:02:50.156250,-3.69
18:02:50.171875,-4.73
18:02:50.187500,-5.90
18:02:50.203125,-7.09
18:02:50.218750,-8.19
18:02:50.234375,-9.09
18:02:50.250000,-9.80
18:02:50.265625,-10.45
18:02:50.281250,-11.19
18:02:50.296875,-12.15
18:02:50.312500,-13.37
18:02:50.328125,-14.75
18:02:50.343750,-16.15
18:02:50.359375,-17.47
18:02:50.375000,-18.69
18:02:50.390625,-19.84
18:02:50.406250,-20.97
18:02:50.421875,-22.00
18:02:50.437500,-22.70
18:02:50.453125,-22.78
18:02:50.468750,-21.98
18:02:50.484375,-20.25
18:02:50.500000,-17.75
18:02:50.515625,-14.76
18:02:50.531250,-11.58
18:02:50.546875,-8.37
18:02:50.562500,-5.14
18:02:50.578125,-1.82
18:02:50.593750,1.60
18:02:50.609375,5.02
18:02:50.625000,8.20
18:02:50.640625,10.88
18:02:50.656250,12.90
18:02:50.671875,14.21
18:02:50.687500,14.93
18:02:50.703125,15.27
18:02:50.718750,15.45
18:02:50.734375,15.59
18:02:50.750000,15.74
18:02:50.765625,15.84
18:02:50.781250,15.77
18:02:50.796875,15.44
18:02:50.812500,14.84
18:02:50.828125,14.05
18:02:50.843750,13.23
18:02:50.859375,12.54
18:02:50.875000,12.06
18:02:50.890625,11.77
18:02:50.906250,11.55
18:02:50.921875,11.26
18:02:50.937500,10.82
18:02:50.953125,10.24
18:02:50.968750,9.56
18:02:50.984375,8.89
18:02:51,8.27
18:02:51.015625,7.72
18:02:51.031250,7.17
18:02:51.046875,6.57
18:02:51.062500,5.89
18:02:51.078125,5.14
18:02:51.093750,4.38
18:02:51.109375,3.69
18:02:51.125000,3.16
18:02:51.140625,2.77
18:02:51.156250,2.46
18:02:51.171875,2.12
18:02:51.187500,1.59
18:02:51.203125,0.79
18:02:51.218750,-0.29
18:02:51.234375,-1.57
18:02:51.250000,-2.92
18:02:51.265625,-4.18
18:02:51.281250,-5.27
18:02:51.296875,-6.19
18:02:51.312500,-7.01
18:02:51.328125,-7.87
18:02:51.343750,-8.89
18:02:51.359375,-10.15
18:02:51.375000,-11.68
18:02:51.390625,-13.46
18:02:51.406250,-15.38
18:02:51.421875,-17.31
18:02:51.437500,-19.02
18:02:51.453125,-20.25
18:02:51.468750,-20.78
18:02:51.484375,-20.48
18:02:51.500000,-19.36
18:02:51.515625,-17.60
18:02:51.531250,-15.40
18:02:51.546875,-12.98
18:02:51.562500,-10.46
18:02:51.578125,-7.89
18:02:51.593750,-5.28
18:02:51.609375,-2.61
18:02:51.625000,0.12
18:02:51.640625,2.88
18:02:51.656250,5.62
18:02:51.671875,8.23
18:02:51.687500,10.56
18:02:51.703125,12.40
18:02:51.718750,13.61
18:02:51.734375,14.12
18:02:51.750000,14.07
18:02:51.765625,13.70
18:02:51.781250,13.30
18:02:51.796875,13.07
18:02:51.812500,13.08
18:02:51.828125,13.24
18:02:51.843750,13.44
18:02:51.859375,13.53
18:02:51.875000,13.47
18:02:51.890625,13.23
18:02:51.906250,12.81
18:02:51.921875,12.25
18:02:51.937500,11.61
18:02:51.953125,10.91
18:02:51.968750,10.21
18:02:51.984375,9.50
18:02:52,8.79
18:02:52.015625,8.02
18:02:52.031250,7.19
18:02:52.046875,6.28
18:02:52.062500,5.32
18:02:52.078125,4.37
18:02:52.093750,3.45
18:02:52.109375,2.57
18:02:52.125000,1.71
18:02:52.140625,0.85
18:02:52.156250,0.02
18:02:52.171875,-0.81
18:02:52.187500,-1.61
18:02:52.203125,-2.42
18:02:52.218750,-3.27
18:02:52.234375,-4.22
18:02:52.250000,-5.30
18:02:52.265625,-6.50
18:02:52.281250,-7.77
18:02:52.296875,-9.04
18:02:52.312500,-10.26
18:02:52.328125,-11.38
18:02:52.343750,-12.41
18:02:52.359375,-13.41
18:02:52.375000,-14.45
18:02:52.390625,-15.64
18:02:52.406250,-17.02
18:02:52.421875,-18.56
18:02:52.437500,-20.11
18:02:52.453125,-21.47
18:02:52.468750,-22.37
18:02:52.484375,-22.62
18:02:52.500000,-22.10
18:02:52.515625,-20.85
18:02:52.531250,-18.99
18:02:52.546875,-16.67
18:02:52.562500,-14.09
18:02:52.578125,-11.37
18:02:52.593750,-8.59
18:02:52.609375,-5.73
18:02:52.625000,-2.77
18:02:52.640625,0.35
18:02:52.656250,3.54
18:02:52.671875,6.67
18:02:52.687500,9.50
18:02:52.703125,11.81
18:02:52.718750,13.50
18:02:52.734375,14.62
18:02:52.750000,15.32
18:02:52.765625,15.78
18:02:52.781250,16.11
18:02:52.796875,16.31
18:02:52.812500,16.31
18:02:52.828125,16.04
18:02:52.843750,15.51
18:02:52.859375,14.83
18:02:52.875000,14.07
18:02:52.890625,13.33
18:02:52.906250,12.61
18:02:52.921875,11.89
18:02:52.937500,11.12
18:02:52.953125,10.28
18:02:52.968750,9.40
18:02:52.984375,8.58
18:02:53,7.87
18:02:53.015625,7.30
18:02:53.031250,6.80
18:02:53.046875,6.27
18:02:53.062500,5.59
18:02:53.078125,4.73
18:02:53.093750,3.74
18:02:53.109375,2.73
18:02:53.125000,1.77
18:02:53.140625,0.91
18:02:53.156250,0.12
18:02:53.171875,-0.69
18:02:53.187500,-1.52
18:02:53.203125,-2.34
18:02:53.218750,-3.09
18:02:53.234375,-3.72
18:02:53.250000,-4.24
18:02:53.265625,-4.78
18:02:53.281250,-5.47
18:02:53.296875,-6.39
18:02:53.312500,-7.50
18:02:53.328125,-8.68
18:02:53.343750,-9.81
18:02:53.359375,-10.83
18:02:53.375000,-11.79
18:02:53.390625,-12.82
18:02:53.406250,-14.06
18:02:53.421875,-15.59
18:02:53.437500,-17.36
18:02:53.453125,-19.22
18:02:53.468750,-20.95
18:02:53.484375,-22.36
18:02:53.500000,-23.30
18:02:53.515625,-23.63
18:02:53.531250,-23.27
18:02:53.546875,-22.19
18:02:53.562500,-20.41
18:02:53.578125,-18.00
18:02:53.593750,-15.13
18:02:53.609375,-12.00
18:02:53.625000,-8.78
18:02:53.640625,-5.62
18:02:53.656250,-2.57
18:02:53.671875,0.36
18:02:53.687500,3.18
18:02:53.703125,5.86
18:02:53.718750,8.34
18:02:53.734375,10.51
18:02:53.750000,12.32
18:02:53.765625,13.74
18:02:53.781250,14.76
18:02:53.796875,15.42
18:02:53.812500,15.73
18:02:53.828125,15.71
18:02:53.843750,15.38
18:02:53.859375,14.80
18:02:53.875000,14.06
18:02:53.890625,13.30
18:02:53.906250,12.65
18:02:53.921875,12.20
18:02:53.937500,11.93
18:02:53.953125,11.75
18:02:53.968750,11.52
18:02:53.984375,11.16
18:02:54,10.66
18:02:54.015625,10.03
18:02:54.031250,9.36
18:02:54.046875,8.69
18:02:54.062500,8.03
18:02:54.078125,7.36
18:02:54.093750,6.69
18:02:54.109375,6.01
18:02:54.125000,5.38
18:02:54.140625,4.84
18:02:54.156250,4.38
18:02:54.171875,3.98
18:02:54.187500,3.58
18:02:54.203125,3.10
18:02:54.218750,2.47
18:02:54.234375,1.67
18:02:54.250000,0.75
18:02:54.265625,-0.22
18:02:54.281250,-1.12
18:02:54.296875,-1.87
18:02:54.312500,-2.41
18:02:54.328125,-2.79
18:02:54.343750,-3.12
18:02:54.359375,-3.59
18:02:54.375000,-4.31
18:02:54.390625,-5.35
18:02:54.406250,-6.64
18:02:54.421875,-8.04
18:02:54.437500,-9.42
18:02:54.453125,-10.74
18:02:54.468750,-12.06
18:02:54.484375,-13.54
18:02:54.500000,-15.24
18:02:54.515625,-17.12
18:02:54.531250,-18.94
18:02:54.546875,-20.41
18:02:54.562500,-21.25
18:02:54.578125,-21.31
18:02:54.593750,-20.56
18:02:54.609375,-19.12
18:02:54.625000,-17.12
18:02:54.640625,-14.71
18:02:54.656250,-12.03
18:02:54.671875,-9.18
18:02:54.687500,-6.25
18:02:54.703125,-3.30
18:02:54.718750,-0.37
18:02:54.734375,2.53
18:02:54.750000,5.32
18:02:54.765625,7.93
18:02:54.781250,10.25
18:02:54.796875,12.20
18:02:54.812500,13.74
18:02:54.828125,14.86
18:02:54.843750,15.60
18:02:54.859375,16.04
18:02:54.875000,16.24
18:02:54.890625,16.34
18:02:54.906250,16.43
18:02:54.921875,16.56
18:02:54.937500,16.72
18:02:54.953125,16.81
18:02:54.968750,16.72
18:02:54.984375,16.37
18:02:55,15.80
18:02:55.015625,15.09
18:02:55.031250,14.35
18:02:55.046875,13.61
18:02:55.062500,12.88
18:02:55.078125,12.14
18:02:55.093750,11.36
18:02:55.109375,10.60
18:02:55.125000,9.91
18:02:55.140625,9.29
18:02:55.156250,8.69
18:02:55.171875,7.99
18:02:55.187500,7.08
18:02:55.203125,5.94
18:02:55.218750,4.64
18:02:55.234375,3.33
18:02:55.250000,2.13
18:02:55.265625,1.09
18:02:55.281250,0.13
18:02:55.296875,-0.83
18:02:55.312500,-1.91
18:02:55.328125,-3.13
18:02:55.343750,-4.47
18:02:55.359375,-5.88
18:02:55.375000,-7.31
18:02:55.390625,-8.73
18:02:55.406250,-10.05
18:02:55.421875,-11.20
18:02:55.437500,-12.09
18:02:55.453125,-12.75
18:02:55.468750,-13.30
18:02:55.484375,-14.00
18:02:55.500000,-15.07
18:02:55.515625,-16.62
18:02:55.531250,-18.54
18:02:55.546875,-20.56
18:02:55.562500,-22.31
18:02:55.578125,-23.45
18:02:55.593750,-23.73
18:02:55.609375,-23.09
18:02:55.625000,-21.57
18:02:55.640625,-19.32
18:02:55.656250,-16.56
18:02:55.671875,-13.49
18:02:55.687500,-10.30
18:02:55.703125,-7.12
18:02:55.718750,-4.01
18:02:55.734375,-1.00
18:02:55.750000,1.89
18:02:55.765625,4.63
18:02:55.781250,7.16
18:02:55.796875,9.44
18:02:55.812500,11.40
18:02:55.828125,12.92
18:02:55.843750,13.93
18:02:55.859375,14.37
18:02:55.875000,14.28
18:02:55.890625,13.80
18:02:55.906250,13.13
18:02:55.921875,12.48
18:02:55.937500,11.94
18:02:55.953125,11.52
18:02:55.968750,11.13
18:02:55.984375,10.70
18:02:56,10.18
18:02:56.015625,9.58
18:02:56.031250,8.92
18:02:56.046875,8.20
18:02:56.062500,7.42
18:02:56.078125,6.57
18:02:56.093750,5.68
18:02:56.109375,4.86
18:02:56.125000,4.15
18:02:56.140625,3.62
18:02:56.156250,3.24
18:02:56.171875,2.98
18:02:56.187500,2.80
18:02:56.203125,2.70
18:02:56.218750,2.69
18:02:56.234375,2.79
18:02:56.250000,2.98
18:02:56.265625,3.17
18:02:56.281250,3.24
18:02:56.296875,3.08
18:02:56.312500,2.64
18:02:56.328125,1.92
18:02:56.343750,0.99
18:02:56.359375,-0.11
18:02:56.375000,-1.33
18:02:56.390625,-2.60
18:02:56.406250,-3.88
18:02:56.421875,-5.06
18:02:56.437500,-6.03
18:02:56.453125,-6.69
18:02:56.468750,-7.03
18:02:56.484375,-7.17
18:02:56.500000,-7.34
18:02:56.515625,-7.82
18:02:56.531250,-8.81
18:02:56.546875,-10.36
18:02:56.562500,-12.34
18:02:56.578125,-14.51
18:02:56.593750,-16.62
18:02:56.609375,-18.49
18:02:56.625000,-19.99
18:02:56.640625,-20.99
18:02:56.656250,-21.36
18:02:56.671875,-20.98
18:02:56.687500,-19.78
18:02:56.703125,-17.85
18:02:56.718750,-15.38
18:02:56.734375,-12.62
18:02:56.750000,-9.76
18:02:56.765625,-6.89
18:02:56.781250,-4.01
18:02:56.796875,-1.10
18:02:56.812500,1.83
18:02:56.828125,4.66
18:02:56.843750,7.25
18:02:56.859375,9.51
18:02:56.875000,11.36
18:02:56.890625,12.80
18:02:56.906250,13.84
18:02:56.921875,14.49
18:02:56.937500,14.81
18:02:56.953125,14.88
18:02:56.968750,14.81
18:02:56.984375,14.72
18:02:57,14.64
18:02:57.015625,14.54
18:02:57.031250,14.33
18:02:57.046875,13.92
18:02:57.062500,13.28
18:02:57.078125,12.46
18:02:57.093750,11.59
18:02:57.109375,10.78
18:02:57.125000,10.13
18:02:57.140625,9.61
18:02:57.156250,9.17
18:02:57.171875,8.69
18:02:57.187500,8.08
18:02:57.203125,7.35
18:02:57.218750,6.52
18:02:57.234375,5.69
18:02:57.250000,4.92
18:02:57.265625,4.21
18:02:57.281250,3.54
18:02:57.296875,2.86
18:02:57.312500,2.16
18:02:57.328125,1.47
18:02:57.343750,0.84
18:02:57.359375,0.30
18:02:57.375000,-0.19
18:02:57.390625,-0.68
18:02:57.406250,-1.25
18:02:57.421875,-1.94
18:02:57.437500,-2.75
18:02:57.453125,-3.60
18:02:57.468750,-4.42
18:02:57.484375,-5.15
18:02:57.500000,-5.77
18:02:57.515625,-6.28
18:02:57.531250,-6.74
18:02:57.546875,-7.16
18:02:57.562500,-7.57
18:02:57.578125,-8.01
18:02:57.593750,-8.55
18:02:57.609375,-9.30
18:02:57.625000,-10.39
18:02:57.640625,-11.91
18:02:57.656250,-13.80
18:02:57.671875,-15.84
18:02:57.687500,-17.71
18:02:57.703125,-19.05
18:02:57.718750,-19.60
18:02:57.734375,-19.31
18:02:57.750000,-18.33
18:02:57.765625,-16.91
18:02:57.781250,-15.22
18:02:57.796875,-13.33
18:02:57.812500,-11.12
18:02:57.828125,-8.47
18:02:57.843750,-5.32
18:02:57.859375,-1.79
18:02:57.875000,1.84
18:02:57.890625,5.24
18:02:57.906250,8.10
18:02:57.921875,10.29
18:02:57.937500,11.82
18:02:57.953125,12.80
18:02:57.968750,13.39
18:02:57.984375,13.73
18:02:58,13.94
18:02:58.015625,14.10
18:02:58.031250,14.26
18:02:58.046875,14.43
18:02:58.062500,14.60
18:02:58.078125,14.70
18:02:58.093750,14.69
18:02:58.109375,14.53
18:02:58.125000,14.20
18:02:58.140625,13.69
18:02:58.156250,13.07
18:02:58.171875,12.41
18:02:58.187500,11.85
18:02:58.203125,11.51
18:02:58.218750,11.46
