10:02:33,-0.00
10:02:33.015625,-0.00
10:02:33.031250,-0.00
10:02:33.046875,-0.00
10:02:33.062500,-0.00
10:02:33.078125,-0.00
10:02:33.093750,-0.00
10:02:33.109375,-0.00
10:02:33.125000,-0.00
10:02:33.140625,-0.01
10:02:33.156250,-0.00
10:02:33.171875,0.00
10:02:33.187500,0.01
10:02:33.203125,0.01
10:02:33.218750,-0.00
10:02:33.234375,-0.03
10:02:33.250000,-0.05
10:02:33.265625,-0.05
10:02:33.281250,-0.00
10:02:33.296875,0.13
10:02:33.312500,0.36
10:02:33.328125,0.66
10:02:33.343750,1.01
10:02:33.359375,1.37
10:02:33.375000,1.72
10:02:33.390625,2.06
10:02:33.406250,2.40
10:02:33.421875,2.77
10:02:33.437500,3.24
10:02:33.453125,3.80
10:02:33.468750,4.42
10:02:33.484375,5.06
10:02:33.500000,5.66
10:02:33.515625,6.20
10:02:33.531250,6.68
10:02:33.546875,7.15
10:02:33.562500,7.64
10:02:33.578125,8.31
10:02:33.593750,9.14
10:02:33.609375,10.09
10:02:33.625000,11.04
10:02:33.640625,11.88
10:02:33.656250,12.56
10:02:33.671875,13.14
10:02:33.687500,13.76
10:02:33.703125,14.58
10:02:33.718750,15.96
10:02:33.734375,17.91
10:02:33.750000,20.32
10:02:33.765625,22.90
10:02:33.781250,25.38
10:02:33.796875,27.58
10:02:33.812500,29.57
10:02:33.828125,31.68
10:02:33.843750,34.20
10:02:33.859375,37.81
10:02:33.875000,42.54
10:02:33.890625,48.15
10:02:33.906250,54.10
10:02:33.921875,59.83
10:02:33.937500,64.97
10:02:33.953125,69.58
10:02:33.968750,74.14
10:02:33.984375,79.19
10:02:34,85.71
10:02:34.015625,93.76
10:02:34.031250,103.00
10:02:34.046875,112.62
10:02:34.062500,121.73
10:02:34.078125,129.77
10:02:34.093750,136.75
10:02:34.109375,144.29
10:02:34.125000,150.58
10:02:34.140625,157.77
10:02:34.156250,166.64
10:02:34.171875,177.95
10:02:34.187500,191.79
10:02:34.203125,206.97
10:02:34.218750,220.57
10:02:34.234375,228.25
10:02:34.250000,225.36
10:02:34.265625,208.37
10:02:34.281250,176.87
10:02:34.296875,132.76
10:02:34.312500,80.05
10:02:34.328125,23.07
10:02:34.343750,-34.94
10:02:34.359375,-92.44
10:02:34.375000,-149.16
10:02:34.390625,-205.23
10:02:34.406250,-260.49
10:02:34.421875,-313.74
10:02:34.437500,-363.87
10:02:34.453125,-409.83
10:02:34.468750,-450.91
10:02:34.484375,-486.50
10:02:34.500000,-515.74
10:02:34.515625,-537.23
10:02:34.531250,-549.22
10:02:34.546875,-550.03
10:02:34.562500,-538.35
10:02:34.578125,-514.17
10:02:34.593750,-478.64
10:02:34.609375,-433.86
10:02:34.625000,-382.49
10:02:34.640625,-327.15
10:02:34.656250,-270.07
10:02:34.671875,-212.96
10:02:34.687500,-157.09
10:02:34.703125,-103.37
10:02:34.718750,-52.78
10:02:34.734375,-6.30
10:02:34.750000,35.19
10:02:34.765625,71.00
10:02:34.781250,100.85
10:02:34.796875,124.91
10:02:34.812500,143.71
10:02:34.828125,157.95
10:02:34.843750,168.41
10:02:34.859375,175.64
10:02:34.875000,180.02
10:02:34.890625,181.81
10:02:34.906250,181.19
10:02:34.921875,178.44
10:02:34.937500,173.95
10:02:34.953125,168.19
10:02:34.968750,161.61
10:02:34.984375,154.58
10:02:35,147.30
10:02:35.015625,139.83
10:02:35.031250,132.12
10:02:35.046875,124.12
10:02:35.062500,115.90
10:02:35.078125,107.62
10:02:35.093750,99.52
10:02:35.109375,91.81
10:02:35.125000,84.62
10:02:35.140625,77.88
10:02:35.156250,71.39
10:02:35.171875,64.92
10:02:35.187500,58.30
10:02:35.203125,51.56
10:02:35.218750,44.91
10:02:35.234375,38.66
10:02:35.250000,33.10
10:02:35.265625,28.35
10:02:35.281250,24.28
10:02:35.296875,20.55
10:02:35.312500,16.76
10:02:35.328125,12.64
10:02:35.343750,8.18
10:02:35.359375,3.66
10:02:35.375000,-0.53
10:02:35.390625,-4.03
10:02:35.406250,-6.66
10:02:35.421875,-8.53
10:02:35.437500,-9.93
10:02:35.453125,-11.20
10:02:35.468750,-12.69
10:02:35.484375,-14.79
10:02:35.500000,-17.83
10:02:35.515625,-21.94
10:02:35.531250,-26.60
10:02:35.546875,-30.44
10:02:35.562500,-31.46
10:02:35.578125,-27.68
10:02:35.593750,-18.22
10:02:35.609375,-3.94
10:02:35.625000,12.47
10:02:35.640625,27.61
10:02:35.656250,38.51
10:02:35.671875,43.87
10:02:35.687500,44.23
10:02:35.703125,41.34
10:02:35.718750,37.06
10:02:35.734375,32.57
10:02:35.750000,28.31
10:02:35.765625,24.55
10:02:35.781250,21.73
10:02:35.796875,20.56
10:02:35.812500,21.43
10:02:35.828125,23.91
10:02:35.843750,26.60
10:02:35.859375,27.78
10:02:35.875000,26.22
10:02:35.890625,21.85
10:02:35.906250,15.79
10:02:35.921875,9.76
10:02:35.937500,5.16
10:02:35.953125,2.54
10:02:35.968750,1.55
10:02:35.984375,1.38
10:02:36,1.32
10:02:36.015625,1.03
10:02:36.031250,0.51
10:02:36.046875,-0.16
10:02:36.062500,-0.97
10:02:36.078125,-2.05
10:02:36.093750,-3.50
10:02:36.109375,-5.25
10:02:36.125000,-7.10
10:02:36.140625,-8.54
10:02:36.156250,-8.93
10:02:36.171875,-7.75
10:02:36.187500,-4.72
10:02:36.203125,-0.04
10:02:36.218750,5.63
10:02:36.234375,11.28
10:02:36.250000,15.90
10:02:36.265625,18.75
10:02:36.281250,19.61
10:02:36.296875,18.73
10:02:36.312500,16.68
10:02:36.328125,14.09
10:02:36.343750,11.48
10:02:36.359375,9.15
10:02:36.375000,7.16
10:02:36.390625,5.51
10:02:36.406250,4.16
10:02:36.421875,3.09
10:02:36.437500,2.34
10:02:36.453125,1.95
10:02:36.468750,1.98
10:02:36.484375,2.47
10:02:36.500000,3.36
10:02:36.515625,4.53
10:02:36.531250,5.83
10:02:36.546875,7.11
10:02:36.562500,8.30
10:02:36.578125,9.36
10:02:36.593750,10.32
10:02:36.609375,11.15
10:02:36.625000,11.77
10:02:36.640625,12.00
10:02:36.656250,11.71
10:02:36.671875,10.78
10:02:36.687500,9.25
10:02:36.703125,7.28
10:02:36.718750,5.05
10:02:36.734375,2.74
10:02:36.750000,0.33
10:02:36.765625,-2.24
10:02:36.781250,-4.99
10:02:36.796875,-7.86
10:02:36.812500,-10.70
10:02:36.828125,-13.28
10:02:36.843750,-15.43
10:02:36.859375,-17.06
10:02:36.875000,-18.19
10:02:36.890625,-18.90
10:02:36.906250,-19.28
10:02:36.921875,-19.32
10:02:36.937500,-19.03
10:02:36.953125,-18.38
10:02:36.968750,-17.48
10:02:36.984375,-16.49
10:02:37,-15.62
10:02:37.015625,-15.07
10:02:37.031250,-15.01
10:02:37.046875,-15.41
10:02:37.062500,-16.08
10:02:37.078125,-16.61
10:02:37.093750,-16.41
10:02:37.109375,-14.91
10:02:37.125000,-11.73
10:02:37.140625,-6.89
10:02:37.156250,-0.91
10:02:37.171875,5.30
10:02:37.187500,10.74
10:02:37.203125,14.63
10:02:37.218750,16.63
10:02:37.234375,16.85
10:02:37.250000,15.70
10:02:37.265625,13.74
10:02:37.281250,11.43
10:02:37.296875,9.04
10:02:37.312500,6.72
10:02:37.328125,4.56
10:02:37.343750,2.62
10:02:37.359375,1.00
10:02:37.375000,-0.19
10:02:37.390625,-0.86
10:02:37.406250,-1.01
10:02:37.421875,-0.69
10:02:37.437500,-0.05
10:02:37.453125,0.80
10:02:37.468750,1.70
10:02:37.484375,2.56
10:02:37.500000,3.33
10:02:37.515625,3.89
10:02:37.531250,4.06
10:02:37.546875,3.67
10:02:37.562500,2.57
10:02:37.578125,0.80
10:02:37.593750,-1.44
10:02:37.609375,-3.86
10:02:37.625000,-6.17
10:02:37.640625,-8.10
10:02:37.656250,-9.56
10:02:37.671875,-10.51
10:02:37.687500,-10.98
10:02:37.703125,-10.97
10:02:37.718750,-10.53
10:02:37.734375,-9.39
10:02:37.750000,-7.72
10:02:37.765625,-5.93
10:02:37.781250,-4.61
10:02:37.796875,-4.38
10:02:37.812500,-5.67
10:02:37.828125,-8.64
10:02:37.843750,-13.11
10:02:37.859375,-18.63
10:02:37.875000,-24.57
10:02:37.890625,-30.38
10:02:37.906250,-35.60
10:02:37.921875,-40.00
10:02:37.937500,-43.62
10:02:37.953125,-46.69
10:02:37.968750,-49.48
10:02:37.984375,-52.09
10:02:38,-54.23
10:02:38.015625,-55.19
10:02:38.031250,-54.04
10:02:38.046875,-49.90
10:02:38.062500,-42.36
10:02:38.078125,-31.69
10:02:38.093750,-18.81
10:02:38.109375,-4.99
10:02:38.125000,8.51
10:02:38.140625,20.79
10:02:38.156250,31.40
10:02:38.171875,40.27
10:02:38.187500,47.53
10:02:38.203125,53.36
10:02:38.218750,57.87
10:02:38.234375,61.08
10:02:38.250000,63.01
10:02:38.265625,63.71
10:02:38.281250,63.28
10:02:38.296875,61.90
10:02:38.312500,59.82
10:02:38.328125,57.29
10:02:38.343750,54.58
10:02:38.359375,51.87
10:02:38.375000,49.26
10:02:38.390625,46.76
10:02:38.406250,44.32
10:02:38.421875,41.94
10:02:38.437500,39.57
10:02:38.453125,37.16
10:02:38.468750,34.58
10:02:38.484375,31.62
10:02:38.500000,28.12
10:02:38.515625,24.04
10:02:38.531250,19.50
10:02:38.546875,14.80
10:02:38.562500,10.35
10:02:38.578125,6.55
10:02:38.593750,3.68
10:02:38.609375,1.83
10:02:38.625000,0.92
10:02:38.640625,0.67
10:02:38.656250,0.71
10:02:38.671875,0.68
10:02:38.687500,0.27
10:02:38.703125,-0.68
10:02:38.718750,-2.26
10:02:38.734375,-4.51
10:02:38.750000,-7.44
10:02:38.765625,-11.05
10:02:38.781250,-15.24
10:02:38.796875,-19.73
10:02:38.812500,-24.12
10:02:38.828125,-27.93
10:02:38.843750,-30.83
10:02:38.859375,-32.74
10:02:38.875000,-33.99
10:02:38.890625,-35.18
10:02:38.906250,-36.94
10:02:38.921875,-39.65
10:02:38.937500,-43.11
10:02:38.953125,-46.49
10:02:38.968750,-48.54
10:02:38.984375,-47.97
10:02:39,-43.98
10:02:39.015625,-36.53
10:02:39.031250,-26.45
10:02:39.046875,-15.06
10:02:39.062500,-3.78
10:02:39.078125,6.30
10:02:39.093750,14.67
10:02:39.109375,21.30
10:02:39.125000,26.46
10:02:39.140625,30.43
10:02:39.156250,33.43
10:02:39.171875,35.56
10:02:39.187500,36.90
10:02:39.203125,37.58
10:02:39.218750,37.79
10:02:39.234375,37.74
10:02:39.250000,37.61
10:02:39.265625,37.55
10:02:39.281250,37.73
10:02:39.296875,38.33
10:02:39.312500,39.59
10:02:39.328125,41.67
10:02:39.343750,44.52
10:02:39.359375,47.88
10:02:39.375000,51.25
10:02:39.390625,54.08
10:02:39.406250,55.97
10:02:39.421875,56.78
10:02:39.437500,56.68
10:02:39.453125,56.09
10:02:39.468750,55.48
10:02:39.484375,55.17
10:02:39.500000,55.23
10:02:39.515625,55.43
10:02:39.531250,55.32
10:02:39.546875,54.45
10:02:39.562500,52.58
10:02:39.578125,49.85
10:02:39.593750,46.80
10:02:39.609375,44.10
10:02:39.625000,42.21
10:02:39.640625,41.01
10:02:39.656250,39.71
10:02:39.671875,36.88
10:02:39.687500,30.74
10:02:39.703125,19.46
10:02:39.718750,1.61
10:02:39.734375,-23.36
10:02:39.750000,-54.58
10:02:39.765625,-89.66
10:02:39.781250,-124.74
10:02:39.796875,-155.50
10:02:39.812500,-178.30
10:02:39.828125,-191.17
10:02:39.843750,-194.23
10:02:39.859375,-189.16
10:02:39.875000,-178.17
10:02:39.890625,-163.02
10:02:39.906250,-144.68
10:02:39.921875,-123.67
10:02:39.937500,-100.80
10:02:39.953125,-77.54
10:02:39.968750,-55.89
10:02:39.984375,-37.66
10:02:40,-23.80
10:02:40.015625,-14.07
10:02:40.031250,-7.44
10:02:40.046875,-2.69
10:02:40.062500,1.00
10:02:40.078125,3.84
10:02:40.093750,5.69
10:02:40.109375,6.53
10:02:40.125000,6.80
10:02:40.140625,7.34
10:02:40.156250,9.01
10:02:40.171875,12.17
10:02:40.187500,16.21
10:02:40.203125,19.66
10:02:40.218750,20.55
10:02:40.234375,17.10
10:02:40.250000,8.21
10:02:40.265625,-6.32
10:02:40.281250,-25.72
10:02:40.296875,-48.56
10:02:40.312500,-73.08
10:02:40.328125,-97.37
10:02:40.343750,-119.63
10:02:40.359375,-138.32
10:02:40.375000,-152.37
10:02:40.390625,-161.30
10:02:40.406250,-165.30
10:02:40.421875,-165.07
10:02:40.437500,-161.62
10:02:40.453125,-155.99
10:02:40.468750,-149.14
10:02:40.484375,-141.79
10:02:40.500000,-134.52
10:02:40.515625,-127.68
10:02:40.531250,-121.48
10:02:40.546875,-115.87
10:02:40.562500,-110.51
10:02:40.578125,-104.73
10:02:40.593750,-97.66
10:02:40.609375,-88.42
10:02:40.625000,-76.40
10:02:40.640625,-61.48
10:02:40.656250,-44.09
10:02:40.671875,-25.00
10:02:40.687500,-5.09
10:02:40.703125,14.89
10:02:40.718750,34.41
10:02:40.734375,53.14
10:02:40.750000,70.75
10:02:40.765625,86.89
10:02:40.781250,101.15
10:02:40.796875,113.10
10:02:40.812500,122.36
10:02:40.828125,128.62
10:02:40.843750,131.77
10:02:40.859375,131.92
10:02:40.875000,129.51
10:02:40.890625,125.25
10:02:40.906250,119.98
10:02:40.921875,114.41
10:02:40.937500,108.93
10:02:40.953125,103.54
10:02:40.968750,98.04
10:02:40.984375,92.22
10:02:41,86.04
10:02:41.015625,79.66
10:02:41.031250,73.39
10:02:41.046875,67.46
10:02:41.062500,61.98
10:02:41.078125,56.93
10:02:41.093750,52.19
10:02:41.109375,47.68
10:02:41.125000,43.39
10:02:41.140625,39.44
10:02:41.156250,36.03
10:02:41.171875,33.31
10:02:41.187500,31.27
10:02:41.203125,29.66
10:02:41.218750,28.02
10:02:41.234375,25.78
10:02:41.250000,22.45
10:02:41.265625,17.70
10:02:41.281250,11.51
10:02:41.296875,4.06
10:02:41.312500,-4.19
10:02:41.328125,-12.57
10:02:41.343750,-20.11
10:02:41.359375,-25.67
10:02:41.375000,-28.08
10:02:41.390625,-26.47
10:02:41.406250,-20.65
10:02:41.421875,-11.20
10:02:41.437500,0.65
10:02:41.453125,13.29
10:02:41.468750,25.24
10:02:41.484375,35.43
10:02:41.500000,43.40
10:02:41.515625,49.16
10:02:41.531250,53.01
10:02:41.546875,55.29
10:02:41.562500,56.26
10:02:41.578125,56.03
10:02:41.593750,54.62
10:02:41.609375,52.14
10:02:41.625000,48.80
10:02:41.640625,45.01
10:02:41.656250,41.25
10:02:41.671875,37.93
10:02:41.687500,35.28
10:02:41.703125,33.27
10:02:41.718750,31.66
10:02:41.734375,30.19
10:02:41.750000,28.64
10:02:41.765625,26.87
10:02:41.781250,24.79
10:02:41.796875,22.29
10:02:41.812500,19.21
10:02:41.828125,15.36
10:02:41.843750,10.65
10:02:41.859375,5.17
10:02:41.875000,-0.79
10:02:41.890625,-6.86
10:02:41.906250,-12.73
10:02:41.921875,-18.26
10:02:41.937500,-23.57
10:02:41.953125,-28.89
10:02:41.968750,-34.51
10:02:41.984375,-40.59
10:02:42,-47.18
10:02:42.015625,-54.23
10:02:42.031250,-61.54
10:02:42.046875,-68.81
10:02:42.062500,-75.45
10:02:42.078125,-80.55
10:02:42.093750,-82.96
10:02:42.109375,-81.55
10:02:42.125000,-75.57
10:02:42.140625,-64.99
10:02:42.156250,-50.60
10:02:42.171875,-33.78
10:02:42.187500,-16.08
10:02:42.203125,1.17
10:02:42.218750,17.05
10:02:42.234375,31.11
10:02:42.250000,43.17
10:02:42.265625,53.12
10:02:42.281250,60.86
10:02:42.296875,66.31
10:02:42.312500,69.45
10:02:42.328125,70.37
10:02:42.343750,69.34
10:02:42.359375,66.75
10:02:42.375000,63.15
10:02:42.390625,59.19
10:02:42.406250,55.53
10:02:42.421875,52.66
10:02:42.437500,50.84
10:02:42.453125,49.99
10:02:42.468750,49.76
10:02:42.484375,49.67
10:02:42.500000,49.26
10:02:42.515625,48.21
10:02:42.531250,46.29
10:02:42.546875,43.40
10:02:42.562500,39.46
10:02:42.578125,34.44
10:02:42.593750,28.45
10:02:42.609375,21.71
10:02:42.625000,14.65
10:02:42.640625,7.74
10:02:42.656250,1.36
10:02:42.671875,-4.37
10:02:42.687500,-9.64
10:02:42.703125,-14.80
10:02:42.718750,-20.25
10:02:42.734375,-26.16
10:02:42.750000,-32.52
10:02:42.765625,-39.16
10:02:42.781250,-45.87
10:02:42.796875,-52.49
10:02:42.812500,-58.79
10:02:42.828125,-64.29
10:02:42.843750,-68.23
10:02:42.859375,-69.63
10:02:42.875000,-67.69
10:02:42.890625,-62.08
10:02:42.906250,-53.22
10:02:42.921875,-42.20
10:02:42.937500,-30.40
10:02:42.953125,-19.09
10:02:42.968750,-9.09
10:02:42.984375,-0.70
10:02:43,6.19
10:02:43.015625,11.91
10:02:43.031250,16.85
10:02:43.046875,21.34
10:02:43.062500,25.59
10:02:43.078125,29.71
10:02:43.093750,33.69
10:02:43.109375,37.43
10:02:43.125000,40.81
10:02:43.140625,43.76
10:02:43.156250,46.24
10:02:43.171875,48.30
10:02:43.187500,49.98
10:02:43.203125,51.30
10:02:43.218750,52.22
10:02:43.234375,52.62
10:02:43.250000,52.41
10:02:43.265625,51.45
10:02:43.281250,49.66
10:02:43.296875,47.04
10:02:43.312500,43.66
10:02:43.328125,39.69
10:02:43.343750,35.41
10:02:43.359375,31.12
10:02:43.375000,27.00
10:02:43.390625,23.08
10:02:43.406250,19.21
10:02:43.421875,15.16
10:02:43.437500,10.76
10:02:43.453125,5.99
10:02:43.468750,1.04
10:02:43.484375,-3.83
10:02:43.500000,-8.35
10:02:43.515625,-12.39
10:02:43.531250,-16.09
10:02:43.546875,-19.75
10:02:43.562500,-23.80
10:02:43.578125,-28.59
10:02:43.593750,-34.21
10:02:43.609375,-40.42
10:02:43.625000,-46.53
10:02:43.640625,-51.50
10:02:43.656250,-54.21
10:02:43.671875,-53.72
10:02:43.687500,-49.70
10:02:43.703125,-42.48
10:02:43.718750,-33.02
10:02:43.734375,-22.60
10:02:43.750000,-12.36
10:02:43.765625,-3.11
10:02:43.781250,4.82
10:02:43.796875,11.42
10:02:43.812500,16.89
10:02:43.828125,21.43
10:02:43.843750,25.14
10:02:43.859375,28.09
10:02:43.875000,30.26
10:02:43.890625,31.64
10:02:43.906250,32.18
10:02:43.921875,31.87
10:02:43.937500,30.75
10:02:43.953125,28.92
10:02:43.968750,26.53
10:02:43.984375,23.81
10:02:44,21.00
10:02:44.015625,18.34
10:02:44.031250,16.03
10:02:44.046875,14.19
10:02:44.062500,12.76
10:02:44.078125,11.57
10:02:44.093750,10.30
10:02:44.109375,8.63
10:02:44.125000,6.30
10:02:44.140625,3.27
10:02:44.156250,-0.33
10:02:44.171875,-4.27
10:02:44.187500,-8.28
10:02:44.203125,-12.16
10:02:44.218750,-15.88
10:02:44.234375,-19.54
10:02:44.250000,-23.30
10:02:44.265625,-27.30
10:02:44.281250,-31.55
10:02:44.296875,-35.90
10:02:44.312500,-40.08
10:02:44.328125,-43.83
10:02:44.343750,-46.99
10:02:44.359375,-49.63
10:02:44.375000,-51.96
10:02:44.390625,-54.34
10:02:44.406250,-57.04
10:02:44.421875,-60.15
10:02:44.437500,-63.41
10:02:44.453125,-66.16
10:02:44.468750,-67.38
10:02:44.484375,-65.91
10:02:44.500000,-60.79
10:02:44.515625,-51.61
10:02:44.531250,-38.75
10:02:44.546875,-23.31
10:02:44.562500,-6.85
10:02:44.578125,9.09
10:02:44.593750,23.32
10:02:44.609375,35.21
10:02:44.625000,44.59
10:02:44.640625,51.59
10:02:44.656250,56.41
10:02:44.671875,59.32
10:02:44.687500,60.57
10:02:44.703125,60.49
10:02:44.718750,59.40
10:02:44.734375,57.57
10:02:44.750000,55.18
10:02:44.765625,52.37
10:02:44.781250,49.20
10:02:44.796875,45.78
10:02:44.812500,42.25
10:02:44.828125,38.81
10:02:44.843750,35.61
10:02:44.859375,32.81
10:02:44.875000,30.49
10:02:44.890625,28.67
10:02:44.906250,27.27
10:02:44.921875,26.11
10:02:44.937500,24.96
10:02:44.953125,23.53
10:02:44.968750,21.63
10:02:44.984375,19.18
10:02:45,16.27
10:02:45.015625,13.06
10:02:45.031250,9.75
10:02:45.046875,6.45
10:02:45.062500,3.19
10:02:45.078125,-0.13
10:02:45.093750,-3.61
10:02:45.109375,-7.35
10:02:45.125000,-11.36
10:02:45.140625,-15.55
10:02:45.156250,-19.73
10:02:45.171875,-23.73
10:02:45.187500,-27.40
10:02:45.203125,-30.66
10:02:45.218750,-33.56
10:02:45.234375,-36.28
10:02:45.250000,-39.14
10:02:45.265625,-42.49
10:02:45.281250,-46.59
10:02:45.296875,-51.42
10:02:45.312500,-56.50
10:02:45.328125,-60.89
10:02:45.343750,-63.37
10:02:45.359375,-62.80
10:02:45.375000,-58.54
10:02:45.390625,-50.66
10:02:45.406250,-40.00
10:02:45.421875,-27.81
10:02:45.437500,-15.41
10:02:45.453125,-3.86
10:02:45.468750,6.26
10:02:45.484375,14.72
10:02:45.500000,21.49
10:02:45.515625,26.61
10:02:45.531250,30.15
10:02:45.546875,32.20
10:02:45.562500,32.94
10:02:45.578125,32.60
10:02:45.593750,31.46
10:02:45.609375,29.78
10:02:45.625000,27.78
10:02:45.640625,25.64
10:02:45.656250,23.50
10:02:45.671875,21.55
10:02:45.687500,19.92
10:02:45.703125,18.73
10:02:45.718750,18.00
10:02:45.734375,17.69
10:02:45.750000,17.63
10:02:45.765625,17.64
10:02:45.781250,17.47
10:02:45.796875,16.94
10:02:45.812500,15.88
10:02:45.828125,14.21
10:02:45.843750,11.93
10:02:45.859375,9.11
10:02:45.875000,5.94
10:02:45.890625,2.68
10:02:45.906250,-0.43
10:02:45.921875,-3.22
10:02:45.937500,-5.65
10:02:45.953125,-7.89
10:02:45.968750,-10.19
10:02:45.984375,-12.76
10:02:46,-15.74
10:02:46.015625,-19.04
10:02:46.031250,-22.49
10:02:46.046875,-25.92
10:02:46.062500,-29.22
10:02:46.078125,-32.37
10:02:46.093750,-35.38
10:02:46.109375,-38.27
10:02:46.125000,-41.06
10:02:46.140625,-43.91
10:02:46.156250,-47.07
10:02:46.171875,-50.79
10:02:46.187500,-55.05
10:02:46.203125,-59.33
10:02:46.218750,-62.61
10:02:46.234375,-63.57
10:02:46.250000,-61.16
10:02:46.265625,-54.98
10:02:46.281250,-45.47
10:02:46.296875,-33.80
10:02:46.312500,-21.40
10:02:46.328125,-9.53
10:02:46.343750,1.02
10:02:46.359375,9.92
10:02:46.375000,17.18
10:02:46.390625,22.90
10:02:46.406250,27.19
10:02:46.421875,30.08
10:02:46.437500,31.56
10:02:46.453125,31.66
10:02:46.468750,30.48
10:02:46.484375,28.22
10:02:46.500000,25.20
10:02:46.515625,21.80
10:02:46.531250,18.38
10:02:46.546875,15.18
10:02:46.562500,12.29
10:02:46.578125,9.66
10:02:46.593750,7.18
10:02:46.609375,4.76
10:02:46.625000,2.42
10:02:46.640625,0.21
10:02:46.656250,-1.74
10:02:46.671875,-3.38
10:02:46.687500,-4.68
10:02:46.703125,-5.71
10:02:46.718750,-6.58
10:02:46.734375,-7.39
10:02:46.750000,-8.12
10:02:46.765625,-8.66
10:02:46.781250,-8.75
10:02:46.796875,-8.13
10:02:46.812500,-6.66
10:02:46.828125,-4.42
10:02:46.843750,-1.75
10:02:46.859375,0.86
10:02:46.875000,2.87
10:02:46.890625,3.94
10:02:46.906250,3.94
10:02:46.921875,3.02
10:02:46.937500,1.47
10:02:46.953125,-0.45
10:02:46.968750,-2.62
10:02:46.984375,-5.11
10:02:47,-8.11
10:02:47.015625,-11.89
10:02:47.031250,-16.65
10:02:47.046875,-22.47
10:02:47.062500,-29.19
10:02:47.078125,-36.27
10:02:47.093750,-42.78
10:02:47.109375,-47.44
10:02:47.125000,-48.98
10:02:47.140625,-46.51
10:02:47.156250,-39.87
10:02:47.171875,-29.76
10:02:47.187500,-17.43
10:02:47.203125,-4.36
10:02:47.218750,8.22
10:02:47.234375,19.51
10:02:47.250000,29.13
10:02:47.265625,36.95
10:02:47.281250,42.89
10:02:47.296875,46.93
10:02:47.312500,49.15
10:02:47.328125,49.77
10:02:47.343750,49.14
10:02:47.359375,47.64
10:02:47.375000,45.58
10:02:47.390625,43.16
10:02:47.406250,40.50
10:02:47.421875,37.71
10:02:47.437500,34.93
10:02:47.453125,32.30
10:02:47.468750,29.95
10:02:47.484375,27.98
10:02:47.500000,26.38
10:02:47.515625,25.12
10:02:47.531250,24.06
10:02:47.546875,23.09
10:02:47.562500,22.05
10:02:47.578125,20.83
10:02:47.593750,19.36
10:02:47.609375,17.58
10:02:47.625000,15.44
10:02:47.640625,12.98
10:02:47.656250,10.26
10:02:47.671875,7.38
10:02:47.687500,4.46
10:02:47.703125,1.54
10:02:47.718750,-1.40
10:02:47.734375,-4.48
10:02:47.750000,-7.84
10:02:47.765625,-11.56
10:02:47.781250,-15.57
10:02:47.796875,-19.68
10:02:47.812500,-23.64
10:02:47.828125,-27.21
10:02:47.843750,-30.27
10:02:47.859375,-32.88
10:02:47.875000,-35.27
10:02:47.890625,-37.80
10:02:47.906250,-40.85
10:02:47.921875,-44.73
10:02:47.937500,-49.55
10:02:47.953125,-55.04
10:02:47.968750,-60.50
10:02:47.984375,-64.83
10:02:48,-66.74
10:02:48.015625,-65.18
10:02:48.031250,-59.58
10:02:48.046875,-50.17
10:02:48.062500,-37.81
10:02:48.078125,-23.82
10:02:48.093750,-9.58
10:02:48.109375,3.80
10:02:48.125000,15.58
10:02:48.140625,25.41
10:02:48.156250,33.18
10:02:48.171875,38.90
10:02:48.187500,42.65
10:02:48.203125,44.53
10:02:48.218750,44.77
10:02:48.234375,43.68
10:02:48.250000,41.67
10:02:48.265625,39.19
10:02:48.281250,36.68
10:02:48.296875,34.46
10:02:48.312500,32.65
10:02:48.328125,31.17
10:02:48.343750,29.80
10:02:48.359375,28.36
10:02:48.375000,26.81
10:02:48.390625,25.28
10:02:48.406250,23.99
10:02:48.421875,23.04
10:02:48.437500,22.30
10:02:48.453125,21.47
10:02:48.468750,20.13
10:02:48.484375,18.07
10:02:48.500000,15.30
10:02:48.515625,12.13
10:02:48.531250,8.96
10:02:48.546875,6.12
10:02:48.562500,3.69
10:02:48.578125,1.48
10:02:48.593750,-0.84
10:02:48.609375,-3.63
10:02:48.625000,-7.07
10:02:48.640625,-11.14
10:02:48.656250,-15.62
10:02:48.671875,-20.21
10:02:48.687500,-24.61
10:02:48.703125,-28.66
10:02:48.718750,-32.29
10:02:48.734375,-35.58
10:02:48.750000,-38.67
10:02:48.765625,-41.82
10:02:48.781250,-45.38
10:02:48.796875,-49.66
10:02:48.812500,-54.81
10:02:48.828125,-60.49
10:02:48.843750,-65.77
10:02:48.859375,-69.22
10:02:48.875000,-69.33
10:02:48.890625,-65.06
10:02:48.906250,-56.27
10:02:48.921875,-43.83
10:02:48.937500,-29.28
10:02:48.953125,-14.30
10:02:48.968750,-0.18
10:02:48.984375,12.38
10:02:49,23.12
10:02:49.015625,32.04
10:02:49.031250,39.09
10:02:49.046875,44.14
10:02:49.062500,47.08
10:02:49.078125,47.98
10:02:49.093750,47.19
10:02:49.109375,45.22
10:02:49.125000,42.64
10:02:49.140625,39.86
10:02:49.156250,37.11
10:02:49.171875,34.45
10:02:49.187500,31.91
10:02:49.203125,29.56
10:02:49.218750,27.57
10:02:49.234375,26.12
10:02:49.250000,25.29
10:02:49.265625,25.03
10:02:49.281250,25.06
10:02:49.296875,25.02
10:02:49.312500,24.51
10:02:49.328125,23.29
10:02:49.343750,21.25
10:02:49.359375,18.50
10:02:49.375000,15.26
10:02:49.390625,11.81
10:02:49.406250,8.40
10:02:49.421875,5.15
10:02:49.437500,2.04
10:02:49.453125,-1.08
10:02:49.468750,-4.42
10:02:49.484375,-8.14
10:02:49.500000,-12.25
10:02:49.515625,-16.56
10:02:49.531250,-20.83
10:02:49.546875,-24.78
10:02:49.562500,-28.27
10:02:49.578125,-31.34
10:02:49.593750,-34.19
10:02:49.609375,-37.14
10:02:49.625000,-40.62
10:02:49.640625,-44.96
10:02:49.656250,-50.25
10:02:49.671875,-56.12
10:02:49.687500,-61.64
10:02:49.703125,-65.50
10:02:49.718750,-66.29
10:02:49.734375,-63.03
10:02:49.750000,-55.49
10:02:49.765625,-44.31
10:02:49.781250,-30.76
10:02:49.796875,-16.33
10:02:49.812500,-2.36
10:02:49.828125,10.26
10:02:49.843750,21.06
10:02:49.859375,29.90
10:02:49.875000,36.74
10:02:49.890625,41.62
10:02:49.906250,44.58
10:02:49.921875,45.76
10:02:49.937500,45.41
10:02:49.953125,43.90
10:02:49.968750,41.64
10:02:49.984375,39.01
10:02:50,36.28
10:02:50.015625,33.59
10:02:50.031250,31.01
10:02:50.046875,28.61
10:02:50.062500,26.53
10:02:50.078125,25.00
10:02:50.093750,24.16
10:02:50.109375,24.01
10:02:50.125000,24.30
10:02:50.140625,24.53
10:02:50.156250,24.19
10:02:50.171875,22.91
10:02:50.187500,20.60
10:02:50.203125,17.51
10:02:50.218750,14.05
10:02:50.234375,10.62
10:02:50.250000,7.47
10:02:50.265625,4.60
10:02:50.281250,1.82
10:02:50.296875,-1.18
10:02:50.312500,-4.65
10:02:50.328125,-8.68
10:02:50.343750,-13.17
10:02:50.359375,-17.85
10:02:50.375000,-22.45
10:02:50.390625,-26.77
10:02:50.406250,-30.78
10:02:50.421875,-34.60
10:02:50.437500,-38.48
10:02:50.453125,-42.67
10:02:50.468750,-47.42
10:02:50.484375,-52.82
10:02:50.500000,-58.66
10:02:50.515625,-64.39
10:02:50.531250,-69.01
10:02:50.546875,-71.30
10:02:50.562500,-70.19
10:02:50.578125,-65.08
10:02:50.593750,-56.16
10:02:50.609375,-44.38
10:02:50.625000,-31.16
10:02:50.640625,-17.99
10:02:50.656250,-6.04
10:02:50.671875,4.04
10:02:50.687500,12.00
10:02:50.703125,17.89
10:02:50.718750,21.80
10:02:50.734375,23.80
10:02:50.750000,23.99
10:02:50.765625,22.59
10:02:50.781250,19.98
10:02:50.796875,16.69
10:02:50.812500,13.30
10:02:50.828125,10.31
10:02:50.843750,8.05
10:02:50.859375,6.74
10:02:50.875000,6.50
10:02:50.890625,7.47
10:02:50.906250,9.72
10:02:50.921875,13.23
10:02:50.937500,17.76
10:02:50.953125,22.84
10:02:50.968750,27.81
10:02:50.984375,32.05
10:02:51,35.11
10:02:51.015625,36.80
10:02:51.031250,37.18
10:02:51.046875,36.45
10:02:51.062500,34.82
10:02:51.078125,32.44
10:02:51.093750,29.37
10:02:51.109375,25.59
10:02:51.125000,21.11
10:02:51.140625,16.02
10:02:51.156250,10.55
10:02:51.171875,5.03
10:02:51.187500,-0.20
10:02:51.203125,-4.87
10:02:51.218750,-8.91
10:02:51.234375,-12.49
10:02:51.250000,-16.02
10:02:51.265625,-19.98
10:02:51.281250,-24.80
10:02:51.296875,-30.63
10:02:51.312500,-37.16
10:02:51.328125,-43.58
10:02:51.343750,-48.70
10:02:51.359375,-51.26
10:02:51.375000,-50.25
10:02:51.390625,-45.29
10:02:51.406250,-36.75
10:02:51.421875,-25.64
10:02:51.437500,-13.29
10:02:51.453125,-1.01
10:02:51.468750,10.25
10:02:51.484375,19.93
10:02:51.500000,27.86
10:02:51.515625,34.01
10:02:51.531250,38.39
10:02:51.546875,41.00
10:02:51.562500,41.88
10:02:51.578125,41.18
10:02:51.593750,39.24
10:02:51.609375,36.51
10:02:51.625000,33.55
10:02:51.640625,30.78
10:02:51.656250,28.45
10:02:51.671875,26.59
10:02:51.687500,25.14
10:02:51.703125,24.01
10:02:51.718750,23.23
10:02:51.734375,22.84
10:02:51.750000,22.87
10:02:51.765625,23.18
10:02:51.781250,23.42
10:02:51.796875,23.16
10:02:51.812500,22.05
10:02:51.828125,19.99
10:02:51.843750,17.12
10:02:51.859375,13.81
10:02:51.875000,10.42
10:02:51.890625,7.18
10:02:51.906250,4.11
10:02:51.921875,1.06
10:02:51.937500,-2.19
10:02:51.953125,-5.82
10:02:51.968750,-9.82
10:02:51.984375,-14.04
10:02:52,-18.18
10:02:52.015625,-21.99
10:02:52.031250,-25.28
10:02:52.046875,-28.10
10:02:52.062500,-30.70
10:02:52.078125,-33.48
10:02:52.093750,-36.89
10:02:52.109375,-41.23
10:02:52.125000,-46.49
10:02:52.140625,-52.18
10:02:52.156250,-57.34
10:02:52.171875,-60.75
10:02:52.187500,-61.20
10:02:52.203125,-57.87
10:02:52.218750,-50.64
10:02:52.234375,-40.14
10:02:52.250000,-27.58
10:02:52.265625,-14.40
10:02:52.281250,-1.86
10:02:52.296875,9.22
10:02:52.312500,18.49
10:02:52.328125,25.98
10:02:52.343750,31.84
10:02:52.359375,36.18
10:02:52.375000,39.03
10:02:52.390625,40.40
10:02:52.406250,40.36
10:02:52.421875,39.14
10:02:52.437500,37.12
10:02:52.453125,34.77
10:02:52.468750,32.49
10:02:52.484375,30.55
10:02:52.500000,29.01
10:02:52.515625,27.82
10:02:52.531250,26.89
10:02:52.546875,26.20
10:02:52.562500,25.78
10:02:52.578125,25.67
10:02:52.593750,25.80
10:02:52.609375,25.93
10:02:52.625000,25.70
10:02:52.640625,24.69
10:02:52.656250,22.67
10:02:52.671875,19.64
10:02:52.687500,15.90
10:02:52.703125,11.93
10:02:52.718750,8.18
10:02:52.734375,4.92
10:02:52.750000,2.13
10:02:52.765625,-0.44
10:02:52.781250,-3.15
10:02:52.796875,-6.29
10:02:52.812500,-9.93
10:02:52.828125,-13.87
10:02:52.843750,-17.77
10:02:52.859375,-21.28
10:02:52.875000,-24.18
10:02:52.890625,-26.55
10:02:52.906250,-28.66
10:02:52.921875,-31.01
10:02:52.937500,-34.06
10:02:52.953125,-38.14
10:02:52.968750,-43.26
10:02:52.984375,-48.96
10:02:53,-54.39
10:02:53.015625,-58.38
10:02:53.031250,-59.75
10:02:53.046875,-57.63
10:02:53.062500,-51.78
10:02:53.078125,-42.63
10:02:53.093750,-31.26
10:02:53.109375,-18.98
10:02:53.125000,-7.04
10:02:53.140625,3.71
10:02:53.156250,12.92
10:02:53.171875,20.60
10:02:53.187500,26.93
10:02:53.203125,32.00
10:02:53.218750,35.78
10:02:53.234375,38.12
10:02:53.250000,38.96
10:02:53.265625,38.40
10:02:53.281250,36.81
10:02:53.296875,34.68
10:02:53.312500,32.53
10:02:53.328125,30.73
10:02:53.343750,29.42
10:02:53.359375,28.58
10:02:53.375000,28.06
10:02:53.390625,27.71
10:02:53.406250,27.40
10:02:53.421875,27.09
10:02:53.437500,26.74
10:02:53.453125,26.28
10:02:53.468750,25.62
10:02:53.484375,24.59
10:02:53.500000,23.02
10:02:53.515625,20.77
10:02:53.531250,17.85
10:02:53.546875,14.40
10:02:53.562500,10.73
10:02:53.578125,7.18
10:02:53.593750,3.98
10:02:53.609375,1.19
10:02:53.625000,-1.36
10:02:53.640625,-3.95
10:02:53.656250,-6.86
10:02:53.671875,-10.22
10:02:53.687500,-13.89
10:02:53.703125,-17.62
10:02:53.718750,-21.07
10:02:53.734375,-24.05
10:02:53.750000,-26.54
10:02:53.765625,-28.73
10:02:53.781250,-30.95
10:02:53.796875,-33.60
10:02:53.812500,-36.99
10:02:53.828125,-41.24
10:02:53.843750,-46.19
10:02:53.859375,-51.28
10:02:53.875000,-55.63
10:02:53.890625,-58.18
10:02:53.906250,-57.96
10:02:53.921875,-54.40
10:02:53.937500,-47.50
10:02:53.953125,-37.87
10:02:53.968750,-26.51
10:02:53.984375,-14.57
10:02:54,-3.05
10:02:54.015625,7.34
10:02:54.031250,16.24
10:02:54.046875,23.57
10:02:54.062500,29.35
10:02:54.078125,33.68
10:02:54.093750,36.58
10:02:54.109375,38.08
10:02:54.125000,38.29
10:02:54.140625,37.41
10:02:54.156250,35.78
10:02:54.171875,33.87
10:02:54.187500,32.08
10:02:54.203125,30.71
10:02:54.218750,29.84
10:02:54.234375,29.36
10:02:54.250000,29.09
10:02:54.265625,28.86
10:02:54.281250,28.58
10:02:54.296875,28.30
10:02:54.312500,28.05
10:02:54.328125,27.80
10:02:54.343750,27.40
10:02:54.359375,26.61
10:02:54.375000,25.19
10:02:54.390625,23.00
10:02:54.406250,20.07
10:02:54.421875,16.59
10:02:54.437500,12.83
10:02:54.453125,9.08
10:02:54.468750,5.57
10:02:54.484375,2.42
10:02:54.500000,-0.35
10:02:54.515625,-2.88
10:02:54.531250,-5.35
10:02:54.546875,-7.97
10:02:54.562500,-10.86
10:02:54.578125,-14.02
10:02:54.593750,-17.33
10:02:54.609375,-20.56
10:02:54.625000,-23.53
10:02:54.640625,-26.15
10:02:54.656250,-28.52
10:02:54.671875,-30.90
10:02:54.687500,-33.63
10:02:54.703125,-37.00
10:02:54.718750,-41.18
10:02:54.734375,-46.11
10:02:54.750000,-51.40
10:02:54.765625,-56.40
10:02:54.781250,-60.16
10:02:54.796875,-61.67
10:02:54.812500,-60.10
10:02:54.828125,-55.05
10:02:54.843750,-46.72
10:02:54.859375,-35.87
10:02:54.875000,-23.67
10:02:54.890625,-11.33
10:02:54.906250,0.14
10:02:54.921875,10.15
10:02:54.937500,18.50
10:02:54.953125,25.27
10:02:54.968750,30.62
10:02:54.984375,34.67
10:02:55,37.46
10:02:55.015625,38.99
10:02:55.031250,39.33
10:02:55.046875,38.69
10:02:55.062500,37.37
10:02:55.078125,35.76
10:02:55.093750,34.19
10:02:55.109375,32.88
10:02:55.125000,31.93
10:02:55.140625,31.30
10:02:55.156250,30.93
10:02:55.171875,30.69
10:02:55.187500,30.48
10:02:55.203125,30.21
10:02:55.218750,29.75
10:02:55.234375,28.98
10:02:55.250000,27.81
10:02:55.265625,26.18
10:02:55.281250,24.16
10:02:55.296875,21.83
10:02:55.312500,19.33
10:02:55.328125,16.76
10:02:55.343750,14.16
10:02:55.359375,11.51
10:02:55.375000,8.78
10:02:55.390625,6.00
10:02:55.406250,3.26
10:02:55.421875,0.70
10:02:55.437500,-1.53
10:02:55.453125,-3.47
10:02:55.468750,-5.27
10:02:55.484375,-7.21
10:02:55.500000,-9.52
10:02:55.515625,-12.28
10:02:55.531250,-15.37
10:02:55.546875,-18.52
10:02:55.562500,-21.50
10:02:55.578125,-24.21
10:02:55.593750,-26.69
10:02:55.609375,-29.14
10:02:55.625000,-31.79
10:02:55.640625,-34.82
10:02:55.656250,-38.36
10:02:55.671875,-42.42
10:02:55.687500,-46.84
10:02:55.703125,-51.19
10:02:55.718750,-54.70
10:02:55.734375,-56.45
10:02:55.750000,-55.57
10:02:55.765625,-51.56
10:02:55.781250,-44.52
10:02:55.796875,-35.13
10:02:55.812500,-24.46
10:02:55.828125,-13.60
10:02:55.843750,-3.39
10:02:55.859375,5.69
10:02:55.875000,13.52
10:02:55.890625,20.12
10:02:55.906250,25.52
10:02:55.921875,29.65
10:02:55.937500,32.42
10:02:55.953125,33.79
10:02:55.968750,33.90
10:02:55.984375,33.07
10:02:56,31.71
10:02:56.015625,30.26
10:02:56.031250,29.05
10:02:56.046875,28.21
10:02:56.062500,27.75
10:02:56.078125,27.58
10:02:56.093750,27.63
10:02:56.109375,27.87
10:02:56.125000,28.22
10:02:56.140625,28.59
10:02:56.156250,28.77
10:02:56.171875,28.55
10:02:56.187500,27.75
10:02:56.203125,26.32
10:02:56.218750,24.35
10:02:56.234375,22.04
10:02:56.250000,19.64
10:02:56.265625,17.28
10:02:56.281250,15.00
10:02:56.296875,12.71
10:02:56.312500,10.30
10:02:56.328125,7.66
10:02:56.343750,4.81
10:02:56.359375,1.86
10:02:56.375000,-1.00
10:02:56.390625,-3.54
10:02:56.406250,-5.66
10:02:56.421875,-7.40
10:02:56.437500,-8.93
10:02:56.453125,-10.59
10:02:56.468750,-12.67
10:02:56.484375,-15.39
10:02:56.500000,-18.73
10:02:56.515625,-22.49
10:02:56.531250,-26.31
10:02:56.546875,-29.81
10:02:56.562500,-32.79
10:02:56.578125,-35.26
10:02:56.593750,-37.49
10:02:56.609375,-39.91
10:02:56.625000,-43.00
10:02:56.640625,-47.07
10:02:56.656250,-52.16
10:02:56.671875,-57.88
10:02:56.687500,-63.41
10:02:56.703125,-67.65
10:02:56.718750,-69.39
10:02:56.734375,-67.75
10:02:56.750000,-62.40
10:02:56.765625,-53.66
10:02:56.781250,-42.43
10:02:56.796875,-29.92
10:02:56.812500,-17.33
10:02:56.828125,-5.59
10:02:56.843750,4.68
10:02:56.859375,13.17
10:02:56.875000,19.81
10:02:56.890625,24.69
10:02:56.906250,28.01
10:02:56.921875,30.01
10:02:56.937500,30.97
10:02:56.953125,31.11
10:02:56.968750,30.67
10:02:56.984375,29.81
10:02:57,28.74
10:02:57.015625,27.65
10:02:57.031250,26.67
10:02:57.046875,25.80
10:02:57.062500,24.98
10:02:57.078125,24.07
10:02:57.093750,22.96
10:02:57.109375,21.66
10:02:57.125000,20.26
10:02:57.140625,18.85
10:02:57.156250,17.43
10:02:57.171875,15.88
10:02:57.187500,14.01
10:02:57.203125,11.66
10:02:57.218750,8.85
10:02:57.234375,5.76
10:02:57.250000,2.67
10:02:57.265625,-0.19
10:02:57.281250,-2.77
10:02:57.296875,-5.16
10:02:57.312500,-7.53
10:02:57.328125,-9.96
10:02:57.343750,-12.39
10:02:57.359375,-14.57
10:02:57.375000,-16.25
10:02:57.390625,-17.25
10:02:57.406250,-17.66
10:02:57.421875,-17.76
10:02:57.437500,-18.00
10:02:57.453125,-18.78
10:02:57.468750,-20.38
10:02:57.484375,-22.87
10:02:57.500000,-26.12
10:02:57.515625,-29.88
10:02:57.531250,-33.84
10:02:57.546875,-37.70
10:02:57.562500,-41.28
10:02:57.578125,-44.56
10:02:57.593750,-47.66
10:02:57.609375,-50.85
10:02:57.625000,-54.42
10:02:57.640625,-58.53
10:02:57.656250,-63.03
10:02:57.671875,-67.40
10:02:57.687500,-70.72
10:02:57.703125,-71.96
10:02:57.718750,-70.25
10:02:57.734375,-65.11
10:02:57.750000,-56.70
10:02:57.765625,-45.67
10:02:57.781250,-33.07
10:02:57.796875,-20.05
10:02:57.812500,-7.59
10:02:57.828125,3.58
10:02:57.843750,13.06
10:02:57.859375,20.63
10:02:57.875000,26.28
10:02:57.890625,30.08
10:02:57.906250,32.18
10:02:57.921875,32.82
10:02:57.937500,32.35
10:02:57.953125,31.17
10:02:57.968750,29.76
10:02:57.984375,28.57
10:02:58,27.99
10:02:58.015625,28.23
10:02:58.031250,29.38
10:02:58.046875,31.38
10:02:58.062500,34.05
10:02:58.078125,37.19
10:02:58.093750,40.53
10:02:58.109375,43.82
10:02:58.125000,46.80
10:02:58.140625,49.19
10:02:58.156250,50.74
10:02:58.171875,51.27
10:02:58.187500,50.67
10:02:58.203125,48.98
10:02:58.218750,46.37
10:02:58.234375,43.10
10:02:58.250000,39.48
10:02:58.265625,35.79
10:02:58.281250,32.21
10:02:58.296875,28.82
10:02:58.312500,25.61
10:02:58.328125,22.60
10:02:58.343750,19.86
10:02:58.359375,17.54
10:02:58.375000,15.78
10:02:58.390625,14.57
10:02:58.406250,13.71
10:02:58.421875,12.85
10:02:58.437500,11.65
10:02:58.453125,9.90
10:02:58.468750,7.65
10:02:58.484375,5.14
10:02:58.500000,2.69
10:02:58.515625,0.51
10:02:58.531250,-1.36
10:02:58.546875,-3.09
10:02:58.562500,-4.96
10:02:58.578125,-7.26
10:02:58.593750,-10.22
10:02:58.609375,-13.91
10:02:58.625000,-18.11
10:02:58.640625,-22.26
10:02:58.656250,-25.45
10:02:58.671875,-26.60
10:02:58.687500,-24.79
10:02:58.703125,-19.64
10:02:58.718750,-11.49
10:02:58.734375,-1.34
10:02:58.750000,9.48
10:02:58.765625,19.71
10:02:58.781250,28.53
10:02:58.796875,35.59
10:02:58.812500,40.96
10:02:58.828125,44.82
10:02:58.843750,47.34
10:02:58.859375,48.57
10:02:58.875000,48.52
10:02:58.890625,47.30
10:02:58.906250,45.19
10:02:58.921875,42.61
10:02:58.937500,40.01
10:02:58.953125,37.74
10:02:58.968750,35.97
10:02:58.984375,34.71
10:02:59,33.84
10:02:59.015625,33.21
10:02:59.031250,32.72
10:02:59.046875,32.33
10:02:59.062500,32.01
10:02:59.078125,31.74
10:02:59.093750,31.43
10:02:59.109375,30.93
10:02:59.125000,30.08
10:02:59.140625,28.73
10:02:59.156250,26.82
10:02:59.171875,24.39
10:02:59.187500,21.57
10:02:59.203125,18.60
10:02:59.218750,15.70
10:02:59.234375,13.02
10:02:59.250000,10.62
10:02:59.265625,8.40
10:02:59.281250,6.20
10:02:59.296875,3.85
10:02:59.312500,1.26
10:02:59.328125,-1.58
10:02:59.343750,-4.56
10:02:59.359375,-7.56
10:02:59.375000,-10.49
10:02:59.390625,-13.34
10:02:59.406250,-16.24
10:02:59.421875,-19.33
10:02:59.437500,-22.72
10:02:59.453125,-26.41
10:02:59.468750,-30.21
10:02:59.484375,-33.83
10:02:59.500000,-37.01
10:02:59.515625,-39.70
10:02:59.531250,-42.09
10:02:59.546875,-44.55
10:02:59.562500,-47.47
10:02:59.578125,-51.07
10:02:59.593750,-55.34
10:02:59.609375,-60.04
10:02:59.625000,-64.67
10:02:59.640625,-68.58
10:02:59.656250,-70.97
10:02:59.671875,-71.01
10:02:59.687500,-68.04
10:02:59.703125,-61.81
10:02:59.718750,-52.66
10:02:59.734375,-41.46
10:02:59.750000,-29.39
10:02:59.765625,-17.62
10:02:59.781250,-6.95
10:02:59.796875,2.20
10:02:59.812500,9.73
10:02:59.828125,15.71
10:02:59.843750,20.23
10:02:59.859375,23.39
10:02:59.875000,25.33
10:02:59.890625,26.26
10:02:59.906250,26.45
10:02:59.921875,26.15
10:02:59.937500,25.59
10:02:59.953125,24.97
10:02:59.968750,24.47
10:02:59.984375,24.28
10:03:00,24.52
10:03:00.015625,25.25
10:03:00.031250,26.38
10:03:00.046875,27.70
10:03:00.062500,28.96
10:03:00.078125,29.91
10:03:00.093750,30.36
10:03:00.109375,30.18
10:03:00.125000,29.28
10:03:00.140625,27.65
10:03:00.156250,25.35
10:03:00.171875,22.51
10:03:00.187500,19.38
10:03:00.203125,16.22
10:03:00.218750,13.29
10:03:00.234375,10.71
10:03:00.250000,8.51
10:03:00.265625,6.61
10:03:00.281250,4.88
10:03:00.296875,3.26
10:03:00.312500,1.67
10:03:00.328125,0.09
10:03:00.343750,-1.61
10:03:00.359375,-3.55
10:03:00.375000,-5.91
10:03:00.390625,-8.77
10:03:00.406250,-12.12
10:03:00.421875,-15.78
10:03:00.437500,-19.47
10:03:00.453125,-22.94
10:03:00.468750,-26.02
10:03:00.484375,-28.65
10:03:00.500000,-30.87
10:03:00.515625,-32.84
10:03:00.531250,-34.75
10:03:00.546875,-36.88
10:03:00.562500,-39.45
10:03:00.578125,-42.52
10:03:00.593750,-45.84
10:03:00.609375,-48.79
10:03:00.625000,-50.43
10:03:00.640625,-49.80
10:03:00.656250,-46.29
10:03:00.671875,-39.88
10:03:00.687500,-31.22
10:03:00.703125,-21.36
10:03:00.718750,-11.42
10:03:00.734375,-2.21
10:03:00.750000,5.86
10:03:00.765625,12.75
10:03:00.781250,18.46
10:03:00.796875,22.93
10:03:00.812500,25.92
10:03:00.828125,27.20
10:03:00.843750,26.69
10:03:00.859375,24.65
10:03:00.875000,21.62
10:03:00.890625,18.32
10:03:00.906250,15.42
10:03:00.921875,13.35
10:03:00.937500,12.23
10:03:00.953125,11.88
10:03:00.968750,11.92
10:03:00.984375,11.96
10:03:01,11.70
10:03:01.015625,11.00
10:03:01.031250,9.89
10:03:01.046875,8.61
10:03:01.062500,7.55
10:03:01.078125,7.24
10:03:01.093750,8.18
10:03:01.109375,10.59
10:03:01.125000,14.30
10:03:01.140625,18.69
10:03:01.156250,22.88
10:03:01.171875,26.07
10:03:01.187500,27.84
10:03:01.203125,28.22
10:03:01.218750,27.59
10:03:01.234375,26.35
10:03:01.250000,24.73
10:03:01.265625,22.67
10:03:01.281250,19.98
10:03:01.296875,16.58
10:03:01.312500,12.59
10:03:01.328125,8.34
10:03:01.343750,4.13
10:03:01.359375,0.12
10:03:01.375000,-3.79
10:03:01.390625,-7.86
10:03:01.406250,-12.36
10:03:01.421875,-17.46
10:03:01.437500,-23.12
10:03:01.453125,-29.08
10:03:01.468750,-34.97
10:03:01.484375,-40.28
10:03:01.500000,-44.43
10:03:01.515625,-46.79
10:03:01.531250,-46.79
10:03:01.546875,-44.08
10:03:01.562500,-38.70
10:03:01.578125,-31.14
10:03:01.593750,-22.28
10:03:01.609375,-13.16
10:03:01.625000,-4.65
10:03:01.640625,2.68
10:03:01.656250,8.68
10:03:01.671875,13.46
10:03:01.687500,17.20
10:03:01.703125,20.06
10:03:01.718750,22.07
10:03:01.734375,23.17
10:03:01.750000,23.37
10:03:01.765625,22.70
10:03:01.781250,21.32
10:03:01.796875,19.42
10:03:01.812500,17.24
10:03:01.828125,15.04
10:03:01.843750,13.03
10:03:01.859375,11.45
10:03:01.875000,10.44
10:03:01.890625,10.07
10:03:01.906250,10.26
10:03:01.921875,10.79
10:03:01.937500,11.35
10:03:01.953125,11.56
10:03:01.968750,11.15
10:03:01.984375,9.96
10:03:02,8.06
10:03:02.015625,5.62
10:03:02.031250,2.88
10:03:02.046875,0.00
10:03:02.062500,-2.89
10:03:02.078125,-5.80
10:03:02.093750,-8.74
10:03:02.109375,-11.68
10:03:02.125000,-14.64
10:03:02.140625,-17.58
10:03:02.156250,-20.53
10:03:02.171875,-23.54
10:03:02.187500,-26.69
10:03:02.203125,-30.03
10:03:02.218750,-33.66
10:03:02.234375,-37.68
10:03:02.250000,-42.17
10:03:02.265625,-47.06
10:03:02.281250,-51.95
10:03:02.296875,-56.08
10:03:02.312500,-58.41
10:03:02.328125,-57.97
10:03:02.343750,-54.18
10:03:02.359375,-47.14
10:03:02.375000,-37.63
10:03:02.390625,-26.84
10:03:02.406250,-15.98
10:03:02.421875,-5.98
10:03:02.437500,2.70
10:03:02.453125,10.01
10:03:02.468750,16.09
10:03:02.484375,21.08
10:03:02.500000,25.01
10:03:02.515625,27.81
10:03:02.531250,29.43
10:03:02.546875,29.88
10:03:02.562500,29.38
10:03:02.578125,28.25
10:03:02.593750,26.87
10:03:02.609375,25.58
10:03:02.625000,24.59
10:03:02.640625,23.95
10:03:02.656250,23.62
10:03:02.671875,23.48
10:03:02.687500,23.41
10:03:02.703125,23.30
10:03:02.718750,23.05
10:03:02.734375,22.54
10:03:02.750000,21.66
10:03:02.765625,20.36
10:03:02.781250,18.61
10:03:02.796875,16.41
10:03:02.812500,13.81
10:03:02.828125,10.80
10:03:02.843750,7.39
10:03:02.859375,3.59
10:03:02.875000,-0.51
10:03:02.890625,-4.76
10:03:02.906250,-8.97
10:03:02.921875,-12.97
10:03:02.937500,-16.68
10:03:02.953125,-20.14
10:03:02.968750,-23.52
10:03:02.984375,-27.03
10:03:03,-30.88
10:03:03.015625,-35.18
10:03:03.031250,-39.94
10:03:03.046875,-44.92
10:03:03.062500,-49.59
10:03:03.078125,-53.13
10:03:03.093750,-54.63
10:03:03.109375,-53.28
10:03:03.125000,-48.71
10:03:03.140625,-41.12
10:03:03.156250,-31.30
10:03:03.171875,-20.37
10:03:03.187500,-9.51
10:03:03.203125,0.39
10:03:03.218750,8.85
10:03:03.234375,15.76
10:03:03.250000,21.23
10:03:03.265625,25.42
10:03:03.281250,28.44
10:03:03.296875,30.34
10:03:03.312500,31.18
10:03:03.328125,31.06
10:03:03.343750,30.22
10:03:03.359375,28.90
10:03:03.375000,27.38
10:03:03.390625,25.87
10:03:03.406250,24.49
10:03:03.421875,23.30
10:03:03.437500,22.34
10:03:03.453125,21.60
10:03:03.468750,21.11
10:03:03.484375,20.83
10:03:03.500000,20.68
10:03:03.515625,20.51
10:03:03.531250,20.09
10:03:03.546875,19.20
10:03:03.562500,17.65
10:03:03.578125,15.38
10:03:03.593750,12.44
10:03:03.609375,8.98
10:03:03.625000,5.17
10:03:03.640625,1.16
10:03:03.656250,-2.93
10:03:03.671875,-6.97
10:03:03.687500,-10.86
10:03:03.703125,-14.44
10:03:03.718750,-17.61
10:03:03.734375,-20.40
10:03:03.750000,-23.00
10:03:03.765625,-25.74
10:03:03.781250,-29.02
10:03:03.796875,-33.15
10:03:03.812500,-38.15
10:03:03.828125,-43.70
10:03:03.843750,-49.09
10:03:03.859375,-53.34
10:03:03.875000,-55.41
10:03:03.890625,-54.50
10:03:03.906250,-50.27
10:03:03.921875,-42.95
10:03:03.937500,-33.32
10:03:03.953125,-22.42
10:03:03.968750,-11.33
10:03:03.984375,-0.92
10:03:04,8.30
10:03:04.015625,16.07
10:03:04.031250,22.32
10:03:04.046875,27.09
10:03:04.062500,30.43
10:03:04.078125,32.44
10:03:04.093750,33.32
10:03:04.109375,33.25
10:03:04.125000,32.46
10:03:04.140625,31.12
10:03:04.156250,29.39
10:03:04.171875,27.44
10:03:04.187500,25.54
10:03:04.203125,23.97
10:03:04.218750,22.99
10:03:04.234375,22.70
10:03:04.250000,22.97
10:03:04.265625,23.49
10:03:04.281250,23.84
10:03:04.296875,23.63
10:03:04.312500,22.67
10:03:04.328125,20.95
10:03:04.343750,18.61
10:03:04.359375,15.88
10:03:04.375000,12.96
10:03:04.390625,9.99
10:03:04.406250,7.04
10:03:04.421875,4.09
10:03:04.437500,1.08
10:03:04.453125,-2.10
10:03:04.468750,-5.50
10:03:04.484375,-9.12
10:03:04.500000,-12.84
10:03:04.515625,-16.47
10:03:04.531250,-19.82
10:03:04.546875,-22.79
10:03:04.562500,-25.40
10:03:04.578125,-27.84
10:03:04.593750,-30.37
10:03:04.609375,-33.29
10:03:04.625000,-36.81
10:03:04.640625,-41.00
10:03:04.656250,-45.67
10:03:04.671875,-50.28
10:03:04.687500,-53.97
10:03:04.703125,-55.71
10:03:04.718750,-54.59
10:03:04.734375,-50.11
10:03:04.750000,-42.36
10:03:04.765625,-32.06
10:03:04.781250,-20.33
10:03:04.796875,-8.36
10:03:04.812500,2.88
10:03:04.828125,12.80
10:03:04.843750,21.14
10:03:04.859375,27.84
10:03:04.875000,32.94
10:03:04.890625,36.48
10:03:04.906250,38.51
10:03:04.921875,39.17
10:03:04.937500,38.71
10:03:04.953125,37.47
10:03:04.968750,35.88
10:03:04.984375,34.34
10:03:05,33.12
10:03:05.015625,32.36
10:03:05.031250,31.98
10:03:05.046875,31.81
10:03:05.062500,31.65
10:03:05.078125,31.37
10:03:05.093750,30.98
10:03:05.109375,30.53
10:03:05.125000,30.07
10:03:05.140625,29.51
10:03:05.156250,28.61
10:03:05.171875,27.11
10:03:05.187500,24.81
10:03:05.203125,21.72
10:03:05.218750,18.01
10:03:05.234375,14.04
10:03:05.250000,10.13
10:03:05.265625,6.57
10:03:05.281250,3.44
10:03:05.296875,0.71
10:03:05.312500,-1.80
10:03:05.328125,-4.33
10:03:05.343750,-7.07
10:03:05.359375,-10.15
10:03:05.375000,-13.54
10:03:05.390625,-17.07
10:03:05.406250,-20.52
10:03:05.421875,-23.71
10:03:05.437500,-26.57
10:03:05.453125,-29.22
10:03:05.468750,-31.89
10:03:05.484375,-34.91
10:03:05.500000,-38.52
10:03:05.515625,-42.86
10:03:05.531250,-47.73
10:03:05.546875,-52.63
10:03:05.562500,-56.71
10:03:05.578125,-58.95
10:03:05.593750,-58.40
10:03:05.609375,-54.48
10:03:05.625000,-47.17
10:03:05.640625,-37.07
10:03:05.656250,-25.22
10:03:05.671875,-12.87
10:03:05.687500,-1.10
10:03:05.703125,9.34
10:03:05.718750,18.06
10:03:05.734375,25.01
10:03:05.750000,30.28
10:03:05.765625,34.03
10:03:05.781250,36.43
10:03:05.796875,37.66
10:03:05.812500,37.92
10:03:05.828125,37.48
10:03:05.843750,36.59
10:03:05.859375,35.52
10:03:05.875000,34.43
10:03:05.890625,33.45
10:03:05.906250,32.62
10:03:05.921875,31.94
10:03:05.937500,31.40
10:03:05.953125,30.96
10:03:05.968750,30.57
10:03:05.984375,30.18
10:03:06,29.71
10:03:06.015625,29.08
10:03:06.031250,28.20
10:03:06.046875,26.97
10:03:06.062500,25.32
10:03:06.078125,23.22
10:03:06.093750,20.70
10:03:06.109375,17.81
10:03:06.125000,14.65
10:03:06.140625,11.33
10:03:06.156250,7.97
10:03:06.171875,4.70
10:03:06.187500,1.67
10:03:06.203125,-0.99
10:03:06.218750,-3.24
10:03:06.234375,-5.13
10:03:06.250000,-6.86
10:03:06.265625,-8.71
10:03:06.281250,-10.97
10:03:06.296875,-13.73
10:03:06.312500,-16.93
10:03:06.328125,-20.34
10:03:06.343750,-23.64
10:03:06.359375,-26.65
10:03:06.375000,-29.33
10:03:06.390625,-31.88
10:03:06.406250,-34.58
10:03:06.421875,-37.76
10:03:06.437500,-41.62
10:03:06.453125,-46.13
10:03:06.468750,-50.99
10:03:06.484375,-55.54
10:03:06.500000,-58.82
10:03:06.515625,-59.81
10:03:06.531250,-57.69
10:03:06.546875,-52.14
10:03:06.562500,-43.53
10:03:06.578125,-32.75
10:03:06.593750,-20.97
10:03:06.609375,-9.28
10:03:06.625000,1.57
10:03:06.640625,11.20
10:03:06.656250,19.44
10:03:06.671875,26.24
10:03:06.687500,31.52
10:03:06.703125,35.22
10:03:06.718750,37.34
10:03:06.734375,38.06
10:03:06.750000,37.68
10:03:06.765625,36.58
10:03:06.781250,35.20
10:03:06.796875,33.87
10:03:06.812500,32.85
10:03:06.828125,32.25
10:03:06.843750,32.06
10:03:06.859375,32.17
10:03:06.875000,32.47
10:03:06.890625,32.82
10:03:06.906250,33.13
10:03:06.921875,33.26
10:03:06.937500,33.04
10:03:06.953125,32.24
10:03:06.968750,30.66
10:03:06.984375,28.21
10:03:07,24.95
10:03:07.015625,21.07
10:03:07.031250,16.81
10:03:07.046875,12.41
10:03:07.062500,7.96
10:03:07.078125,3.54
10:03:07.093750,-0.77
10:03:07.109375,-4.85
10:03:07.125000,-8.47
10:03:07.140625,-11.44
10:03:07.156250,-13.69
10:03:07.171875,-15.31
10:03:07.187500,-16.56
10:03:07.203125,-17.75
10:03:07.218750,-19.14
10:03:07.234375,-20.89
10:03:07.250000,-22.95
10:03:07.265625,-25.22
10:03:07.281250,-27.53
10:03:07.296875,-29.73
10:03:07.312500,-31.79
10:03:07.328125,-33.73
10:03:07.343750,-35.71
10:03:07.359375,-37.96
10:03:07.375000,-40.72
10:03:07.390625,-44.17
10:03:07.406250,-48.27
10:03:07.421875,-52.64
10:03:07.437500,-56.51
10:03:07.453125,-58.87
10:03:07.468750,-58.71
10:03:07.484375,-55.31
10:03:07.500000,-48.55
10:03:07.515625,-38.96
10:03:07.531250,-27.54
10:03:07.546875,-15.49
10:03:07.562500,-3.89
10:03:07.578125,6.53
10:03:07.593750,15.38
10:03:07.609375,22.57
10:03:07.625000,28.12
10:03:07.640625,32.13
10:03:07.656250,34.72
10:03:07.671875,36.09
10:03:07.687500,36.50
10:03:07.703125,36.26
10:03:07.718750,35.64
10:03:07.734375,34.83
10:03:07.750000,33.91
10:03:07.765625,32.95
10:03:07.781250,31.96
10:03:07.796875,31.00
10:03:07.812500,30.18
10:03:07.828125,29.56
10:03:07.843750,29.18
10:03:07.859375,28.99
10:03:07.875000,28.89
10:03:07.890625,28.70
10:03:07.906250,28.26
10:03:07.921875,27.41
10:03:07.937500,26.05
10:03:07.953125,24.13
10:03:07.968750,21.71
10:03:07.984375,18.94
10:03:08,16.01
10:03:08.015625,13.07
10:03:08.031250,10.24
10:03:08.046875,7.55
10:03:08.062500,4.97
10:03:08.078125,2.46
10:03:08.093750,0.05
10:03:08.109375,-2.21
10:03:08.125000,-4.30
10:03:08.140625,-6.24
10:03:08.156250,-8.16
10:03:08.171875,-10.25
10:03:08.187500,-12.64
10:03:08.203125,-15.34
10:03:08.218750,-18.20
10:03:08.234375,-20.98
10:03:08.250000,-23.49
10:03:08.265625,-25.62
10:03:08.281250,-27.51
10:03:08.296875,-29.41
10:03:08.312500,-31.67
10:03:08.328125,-34.60
10:03:08.343750,-38.41
10:03:08.359375,-43.07
10:03:08.375000,-48.21
10:03:08.390625,-53.14
10:03:08.406250,-56.85
10:03:08.421875,-58.24
10:03:08.437500,-56.45
10:03:08.453125,-51.12
10:03:08.468750,-42.62
10:03:08.484375,-31.92
10:03:08.500000,-20.33
10:03:08.515625,-9.04
10:03:08.531250,1.12
10:03:08.546875,9.78
10:03:08.562500,16.95
10:03:08.578125,22.75
10:03:08.593750,27.26
10:03:08.609375,30.47
10:03:08.625000,32.36
10:03:08.640625,33.01
10:03:08.656250,32.65
10:03:08.671875,31.66
10:03:08.687500,30.43
10:03:08.703125,29.24
10:03:08.718750,28.27
10:03:08.734375,27.53
10:03:08.750000,27.00
10:03:08.765625,26.68
10:03:08.781250,26.60
10:03:08.796875,26.78
10:03:08.812500,27.17
10:03:08.828125,27.65
10:03:08.843750,28.00
10:03:08.859375,27.99
10:03:08.875000,27.45
10:03:08.890625,26.32
10:03:08.906250,24.62
10:03:08.921875,22.41
10:03:08.937500,19.77
10:03:08.953125,16.79
10:03:08.968750,13.58
10:03:08.984375,10.28
10:03:09,7.07
10:03:09.015625,4.12
10:03:09.031250,1.50
10:03:09.046875,-0.84
10:03:09.062500,-3.01
10:03:09.078125,-5.17
10:03:09.093750,-7.45
10:03:09.109375,-9.92
10:03:09.125000,-12.61
10:03:09.140625,-15.44
10:03:09.156250,-18.34
10:03:09.171875,-21.16
10:03:09.187500,-23.78
10:03:09.203125,-26.10
10:03:09.218750,-28.11
10:03:09.234375,-29.87
10:03:09.250000,-31.60
10:03:09.265625,-33.61
10:03:09.281250,-36.26
10:03:09.296875,-39.77
10:03:09.312500,-44.13
10:03:09.328125,-48.92
10:03:09.343750,-53.30
10:03:09.359375,-56.19
10:03:09.375000,-56.53
10:03:09.390625,-53.63
10:03:09.406250,-47.41
10:03:09.421875,-38.49
10:03:09.437500,-27.91
10:03:09.453125,-16.85
10:03:09.468750,-6.27
10:03:09.484375,3.21
10:03:09.500000,11.35
10:03:09.515625,18.15
10:03:09.531250,23.65
10:03:09.546875,27.90
10:03:09.562500,30.93
10:03:09.578125,32.78
10:03:09.593750,33.53
10:03:09.609375,33.35
10:03:09.625000,32.42
10:03:09.640625,30.96
10:03:09.656250,29.23
10:03:09.671875,27.50
10:03:09.687500,26.00
10:03:09.703125,24.91
10:03:09.718750,24.30
10:03:09.734375,24.18
10:03:09.750000,24.46
10:03:09.765625,25.03
10:03:09.781250,25.75
10:03:09.796875,26.43
10:03:09.812500,26.83
10:03:09.828125,26.70
10:03:09.843750,25.85
10:03:09.859375,24.26
10:03:09.875000,22.08
10:03:09.890625,19.59
10:03:09.906250,17.06
10:03:09.921875,14.68
10:03:09.937500,12.42
10:03:09.953125,10.12
10:03:09.968750,7.58
10:03:09.984375,4.72
10:03:10,1.62
10:03:10.015625,-1.46
10:03:10.031250,-4.25
10:03:10.046875,-6.58
10:03:10.062500,-8.47
10:03:10.078125,-10.13
10:03:10.093750,-11.87
10:03:10.109375,-13.94
10:03:10.125000,-16.43
10:03:10.140625,-19.19
10:03:10.156250,-21.96
10:03:10.171875,-24.47
10:03:10.187500,-26.60
10:03:10.203125,-28.44
10:03:10.218750,-30.23
10:03:10.234375,-32.28
10:03:10.250000,-34.87
10:03:10.265625,-38.17
10:03:10.281250,-42.19
10:03:10.296875,-46.72
10:03:10.312500,-51.24
10:03:10.328125,-54.94
10:03:10.343750,-56.85
10:03:10.359375,-56.06
10:03:10.375000,-52.05
10:03:10.390625,-44.89
10:03:10.406250,-35.24
10:03:10.421875,-24.16
10:03:10.437500,-12.75
10:03:10.453125,-1.90
10:03:10.468750,7.81
10:03:10.484375,16.11
10:03:10.500000,22.88
10:03:10.515625,28.07
10:03:10.531250,31.65
10:03:10.546875,33.66
10:03:10.562500,34.27
10:03:10.578125,33.77
10:03:10.593750,32.60
10:03:10.609375,31.18
10:03:10.625000,29.86
10:03:10.640625,28.84
10:03:10.656250,28.15
10:03:10.671875,27.71
10:03:10.687500,27.41
10:03:10.703125,27.24
10:03:10.718750,27.24
10:03:10.734375,27.46
10:03:10.750000,27.86
10:03:10.765625,28.29
10:03:10.781250,28.48
10:03:10.796875,28.16
10:03:10.812500,27.20
10:03:10.828125,25.61
10:03:10.843750,23.58
10:03:10.859375,21.35
10:03:10.875000,19.11
10:03:10.890625,16.92
10:03:10.906250,14.71
10:03:10.921875,12.33
10:03:10.937500,9.68
10:03:10.953125,6.76
10:03:10.968750,3.69
10:03:10.984375,0.65
10:03:11,-2.19
10:03:11.015625,-4.76
10:03:11.031250,-7.14
10:03:11.046875,-9.42
10:03:11.062500,-11.76
10:03:11.078125,-14.20
10:03:11.093750,-16.71
10:03:11.109375,-19.20
10:03:11.125000,-21.60
10:03:11.140625,-23.91
10:03:11.156250,-26.19
10:03:11.171875,-28.56
10:03:11.187500,-31.18
10:03:11.203125,-34.21
10:03:11.218750,-37.79
10:03:11.234375,-41.97
10:03:11.250000,-46.62
10:03:11.265625,-51.31
10:03:11.281250,-55.30
10:03:11.296875,-57.67
10:03:11.312500,-57.48
10:03:11.328125,-54.08
10:03:11.343750,-47.34
10:03:11.359375,-37.75
10:03:11.375000,-26.23
10:03:11.390625,-13.98
10:03:11.406250,-2.07
10:03:11.421875,8.66
10:03:11.437500,17.76
10:03:11.453125,25.04
10:03:11.468750,30.47
10:03:11.484375,34.10
10:03:11.500000,36.05
10:03:11.515625,36.49
10:03:11.531250,35.71
10:03:11.546875,34.10
10:03:11.562500,32.08
10:03:11.578125,30.10
10:03:11.593750,28.47
10:03:11.609375,27.34
10:03:11.625000,26.70
10:03:11.640625,26.44
10:03:11.656250,26.42
10:03:11.671875,26.55
10:03:11.687500,26.80
10:03:11.703125,27.13
10:03:11.718750,27.49
10:03:11.734375,27.67
10:03:11.750000,27.44
10:03:11.765625,26.62
10:03:11.781250,25.17
10:03:11.796875,23.20
10:03:11.812500,20.92
10:03:11.828125,18.52
10:03:11.843750,16.04
10:03:11.859375,13.44
10:03:11.875000,10.63
10:03:11.890625,7.57
10:03:11.906250,4.34
10:03:11.921875,1.11
10:03:11.937500,-1.92
10:03:11.953125,-4.62
10:03:11.968750,-6.95
10:03:11.984375,-9.03
10:03:12,-11.04
10:03:12.015625,-13.22
10:03:12.031250,-15.71
10:03:12.046875,-18.54
10:03:12.062500,-21.58
10:03:12.078125,-24.57
10:03:12.093750,-27.24
10:03:12.109375,-29.47
10:03:12.125000,-31.33
10:03:12.140625,-33.13
10:03:12.156250,-35.28
10:03:12.171875,-38.21
10:03:12.187500,-42.16
10:03:12.203125,-47.12
10:03:12.218750,-52.73
10:03:12.234375,-58.21
10:03:12.250000,-62.52
10:03:12.265625,-64.50
10:03:12.281250,-63.18
10:03:12.296875,-58.09
10:03:12.312500,-49.46
10:03:12.328125,-38.14
10:03:12.343750,-25.36
10:03:12.359375,-12.41
10:03:12.375000,-0.32
10:03:12.390625,10.29
10:03:12.406250,19.14
10:03:12.421875,26.23
10:03:12.437500,31.67
10:03:12.453125,35.58
10:03:12.468750,38.10
10:03:12.484375,39.36
10:03:12.500000,39.52
10:03:12.515625,38.77
10:03:12.531250,37.36
10:03:12.546875,35.61
10:03:12.562500,33.80
10:03:12.578125,32.21
10:03:12.593750,31.03
10:03:12.609375,30.33
10:03:12.625000,30.11
10:03:12.640625,30.33
10:03:12.656250,30.87
10:03:12.671875,31.56
10:03:12.687500,32.16
10:03:12.703125,32.42
10:03:12.718750,32.10
10:03:12.734375,31.05
10:03:12.750000,29.29
10:03:12.765625,26.95
10:03:12.781250,24.24
10:03:12.796875,21.34
10:03:12.812500,18.37
10:03:12.828125,15.32
10:03:12.843750,12.17
10:03:12.859375,8.87
10:03:12.875000,5.48
10:03:12.890625,2.12
10:03:12.906250,-1.01
10:03:12.921875,-3.74
10:03:12.937500,-6.08
10:03:12.953125,-8.16
10:03:12.968750,-10.26
10:03:12.984375,-12.59
10:03:13,-15.23
10:03:13.015625,-18.06
10:03:13.031250,-20.86
10:03:13.046875,-23.42
10:03:13.062500,-25.69
10:03:13.078125,-27.79
10:03:13.093750,-29.97
10:03:13.109375,-32.45
10:03:13.125000,-35.42
10:03:13.140625,-39.00
10:03:13.156250,-43.24
10:03:13.171875,-48.05
10:03:13.187500,-53.13
10:03:13.203125,-57.81
10:03:13.218750,-61.13
10:03:13.234375,-61.97
10:03:13.250000,-59.48
10:03:13.265625,-53.37
10:03:13.281250,-44.02
10:03:13.296875,-32.46
10:03:13.312500,-19.95
10:03:13.328125,-7.72
10:03:13.343750,3.38
10:03:13.359375,12.90
10:03:13.375000,20.74
10:03:13.390625,27.01
10:03:13.406250,31.82
10:03:13.421875,35.25
10:03:13.437500,37.34
10:03:13.453125,38.17
10:03:13.468750,37.87
10:03:13.484375,36.71
10:03:13.500000,35.07
10:03:13.515625,33.32
10:03:13.531250,31.81
10:03:13.546875,30.74
10:03:13.562500,30.18
10:03:13.578125,30.09
10:03:13.593750,30.37
10:03:13.609375,30.88
10:03:13.625000,31.43
10:03:13.640625,31.80
10:03:13.656250,31.80
10:03:13.671875,31.25
10:03:13.687500,30.10
10:03:13.703125,28.42
10:03:13.718750,26.35
10:03:13.734375,24.04
10:03:13.750000,21.60
10:03:13.765625,19.06
10:03:13.781250,16.37
10:03:13.796875,13.51
10:03:13.812500,10.45
10:03:13.828125,7.23
10:03:13.843750,3.98
10:03:13.859375,0.78
10:03:13.875000,-2.27
10:03:13.890625,-5.11
10:03:13.906250,-7.76
10:03:13.921875,-10.30
10:03:13.937500,-12.83
10:03:13.953125,-15.43
10:03:13.968750,-18.11
10:03:13.984375,-20.86
10:03:14,-23.59
10:03:14.015625,-26.30
10:03:14.031250,-29.01
10:03:14.046875,-31.84
10:03:14.062500,-34.97
10:03:14.078125,-38.61
10:03:14.093750,-42.89
10:03:14.109375,-47.77
10:03:14.125000,-52.86
10:03:14.140625,-57.47
10:03:14.156250,-60.66
10:03:14.171875,-61.44
10:03:14.187500,-59.07
10:03:14.203125,-53.30
10:03:14.218750,-44.46
10:03:14.234375,-33.34
10:03:14.250000,-21.05
10:03:14.265625,-8.70
10:03:14.281250,2.79
10:03:14.296875,12.81
10:03:14.312500,21.06
10:03:14.328125,27.48
10:03:14.343750,32.20
10:03:14.359375,35.41
10:03:14.375000,37.32
10:03:14.390625,38.13
10:03:14.406250,38.03
10:03:14.421875,37.26
10:03:14.437500,36.10
10:03:14.453125,34.84
10:03:14.468750,33.72
10:03:14.484375,32.87
10:03:14.500000,32.30
10:03:14.515625,31.95
10:03:14.531250,31.77
10:03:14.546875,31.77
10:03:14.562500,31.91
10:03:14.578125,32.17
10:03:14.593750,32.40
10:03:14.609375,32.36
10:03:14.625000,31.83
10:03:14.640625,30.69
10:03:14.656250,28.92
10:03:14.671875,26.67
10:03:14.687500,24.11
10:03:14.703125,21.38
10:03:14.718750,18.58
10:03:14.734375,15.69
10:03:14.750000,12.70
10:03:14.765625,9.59
10:03:14.781250,6.39
10:03:14.796875,3.23
10:03:14.812500,0.24
10:03:14.828125,-2.47
10:03:14.843750,-4.92
10:03:14.859375,-7.24
10:03:14.875000,-9.64
10:03:14.890625,-12.29
10:03:14.906250,-15.25
10:03:14.921875,-18.37
10:03:14.937500,-21.41
10:03:14.953125,-24.15
10:03:14.968750,-26.51
10:03:14.984375,-28.61
10:03:15,-30.77
10:03:15.015625,-33.40
10:03:15.031250,-36.84
10:03:15.046875,-41.24
10:03:15.062500,-46.38
10:03:15.078125,-51.69
10:03:15.093750,-56.24
10:03:15.109375,-58.98
10:03:15.125000,-58.98
10:03:15.140625,-55.72
10:03:15.156250,-49.27
10:03:15.171875,-40.28
10:03:15.187500,-29.75
10:03:15.203125,-18.83
10:03:15.218750,-8.55
10:03:15.234375,0.32
10:03:15.250000,7.35
10:03:15.265625,12.37
10:03:15.281250,15.50
10:03:15.296875,17.03
10:03:15.312500,17.37
10:03:15.328125,16.95
10:03:15.343750,16.12
10:03:15.359375,15.09
10:03:15.375000,13.99
10:03:15.390625,12.95
10:03:15.406250,12.14
10:03:15.421875,11.80
10:03:15.437500,12.21
10:03:15.453125,13.53
10:03:15.468750,15.83
10:03:15.484375,18.96
10:03:15.500000,22.70
10:03:15.515625,26.77
10:03:15.531250,30.88
10:03:15.546875,34.69
10:03:15.562500,37.70
10:03:15.578125,39.23
10:03:15.593750,38.51
10:03:15.609375,34.99
10:03:15.625000,28.65
10:03:15.640625,20.13
10:03:15.656250,10.65
10:03:15.671875,1.55
10:03:15.687500,-6.18
10:03:15.703125,-12.15
10:03:15.718750,-16.58
10:03:15.734375,-19.96
10:03:15.750000,-22.70
10:03:15.765625,-24.90
10:03:15.781250,-26.38
10:03:15.796875,-26.88
10:03:15.812500,-26.25
10:03:15.828125,-24.55
10:03:15.843750,-21.98
10:03:15.859375,-18.83
10:03:15.875000,-15.39
10:03:15.890625,-11.94
10:03:15.906250,-8.81
10:03:15.921875,-6.39
10:03:15.937500,-5.16
10:03:15.953125,-5.65
10:03:15.968750,-8.25
10:03:15.984375,-13.08
10:03:16,-19.72
10:03:16.015625,-27.19
10:03:16.031250,-33.99
10:03:16.046875,-38.54
10:03:16.062500,-39.70
10:03:16.078125,-37.00
10:03:16.093750,-30.74
10:03:16.109375,-21.64
10:03:16.125000,-10.46
10:03:16.140625,2.24
10:03:16.156250,16.07
10:03:16.171875,30.74
10:03:16.187500,45.89
10:03:16.203125,61.01
10:03:16.218750,75.34
10:03:16.234375,87.92
10:03:16.250000,97.73
10:03:16.265625,103.81
10:03:16.281250,105.70
10:03:16.296875,103.72
10:03:16.312500,99.26
10:03:16.328125,94.38
10:03:16.343750,90.98
10:03:16.359375,89.96
10:03:16.375000,90.84
10:03:16.390625,92.02
10:03:16.406250,91.38
10:03:16.421875,86.98
10:03:16.437500,77.48
10:03:16.453125,62.60
10:03:16.468750,42.85
10:03:16.484375,19.03
10:03:16.500000,-7.87
10:03:16.515625,-36.34
10:03:16.531250,-63.98
10:03:16.546875,-87.53
10:03:16.562500,-103.68
10:03:16.578125,-110.09
10:03:16.593750,-105.83
10:03:16.609375,-92.22
10:03:16.625000,-72.89
10:03:16.640625,-52.92
10:03:16.656250,-37.12
10:03:16.671875,-28.22
10:03:16.687500,-26.36
10:03:16.703125,-29.63
10:03:16.718750,-35.40
10:03:16.734375,-40.55
10:03:16.750000,-42.40
10:03:16.765625,-39.08
10:03:16.781250,-29.81
10:03:16.796875,-14.59
10:03:16.812500,6.11
10:03:16.828125,31.20
10:03:16.843750,58.86
10:03:16.859375,82.39
10:03:16.875000,94.77
10:03:16.890625,92.76
10:03:16.906250,79.36
10:03:16.921875,60.86
10:03:16.937500,42.13
10:03:16.953125,24.85
10:03:16.968750,8.47
10:03:16.984375,-8.03
10:03:17,-24.87
10:03:17.015625,-40.44
10:03:17.031250,-52.19
10:03:17.046875,-58.09
10:03:17.062500,-57.91
10:03:17.078125,-53.26
10:03:17.093750,-46.70
10:03:17.109375,-40.66
10:03:17.125000,-36.73
10:03:17.140625,-35.15
10:03:17.156250,-34.42
10:03:17.171875,-32.43
10:03:17.187500,-27.82
10:03:17.203125,-20.92
10:03:17.218750,-13.44
10:03:17.234375,-7.21
10:03:17.250000,-3.06
10:03:17.265625,-0.51
10:03:17.281250,1.72
10:03:17.296875,5.00
10:03:17.312500,9.68
10:03:17.328125,14.55
10:03:17.343750,17.46
10:03:17.359375,16.62
10:03:17.375000,11.89
10:03:17.390625,5.08
10:03:17.406250,-1.19
10:03:17.421875,-4.79
10:03:17.437500,-4.95
10:03:17.453125,-2.41
10:03:17.468750,0.97
10:03:17.484375,3.37
10:03:17.500000,3.62
10:03:17.515625,1.34
10:03:17.531250,-3.40
10:03:17.546875,-10.62
10:03:17.562500,-20.23
10:03:17.578125,-31.31
10:03:17.593750,-41.82
10:03:17.609375,-48.93
10:03:17.625000,-50.08
10:03:17.640625,-44.29
10:03:17.656250,-32.90
10:03:17.671875,-19.07
10:03:17.687500,-6.61
10:03:17.703125,2.06
10:03:17.718750,6.99
10:03:17.734375,10.24
10:03:17.750000,14.15
10:03:17.765625,19.83
10:03:17.781250,26.63
10:03:17.796875,32.72
10:03:17.812500,36.46
10:03:17.828125,37.03
10:03:17.843750,35.38
10:03:17.859375,33.81
10:03:17.875000,34.49
10:03:17.890625,38.02
10:03:17.906250,43.19
10:03:17.921875,47.82
10:03:17.937500,50.00
10:03:17.953125,49.07
10:03:17.968750,45.06
10:03:17.984375,39.14
10:03:18,33.36
10:03:18.015625,29.55
10:03:18.031250,28.31
10:03:18.046875,28.51
10:03:18.062500,29.14
10:03:18.078125,29.47
10:03:18.093750,28.98
10:03:18.109375,25.77
10:03:18.125000,17.64
10:03:18.140625,3.22
10:03:18.156250,-17.48
10:03:18.171875,-43.02
10:03:18.187500,-70.69
10:03:18.203125,-97.13
10:03:18.218750,-119.69
10:03:18.234375,-130.68
10:03:18.250000,-127.53
10:03:18.265625,-114.92
10:03:18.281250,-100.17
10:03:18.296875,-86.59
10:03:18.312500,-72.67
10:03:18.328125,-55.74
10:03:18.343750,-35.37
10:03:18.359375,-14.29
10:03:18.375000,3.33
10:03:18.390625,13.29
10:03:18.406250,14.53
10:03:18.421875,9.80
10:03:18.437500,3.71
10:03:18.453125,-0.26
10:03:18.468750,-1.31
10:03:18.484375,-0.84
10:03:18.500000,-1.05
10:03:18.515625,-3.28
10:03:18.531250,-8.21
10:03:18.546875,-14.96
10:03:18.562500,-21.22
10:03:18.578125,-24.53
10:03:18.593750,-23.51
10:03:18.609375,-18.37
10:03:18.625000,-10.46
10:03:18.640625,-1.60
10:03:18.656250,6.53
10:03:18.671875,12.35
10:03:18.687500,15.29
10:03:18.703125,16.12
10:03:18.718750,16.30
10:03:18.734375,17.01
10:03:18.750000,18.50
10:03:18.765625,20.18
10:03:18.781250,21.11
10:03:18.796875,20.72
10:03:18.812500,18.85
10:03:18.828125,16.05
10:03:18.843750,13.32
10:03:18.859375,11.52
10:03:18.875000,10.91
10:03:18.890625,11.06
10:03:18.906250,11.36
10:03:18.921875,11.39
10:03:18.937500,11.10
10:03:18.953125,10.56
10:03:18.968750,9.92
10:03:18.984375,9.17
10:03:19,8.15
10:03:19.015625,6.56
10:03:19.031250,4.12
10:03:19.046875,0.76
10:03:19.062500,-3.32
10:03:19.078125,-7.74
10:03:19.093750,-12.02
10:03:19.109375,-15.81
10:03:19.125000,-18.93
10:03:19.140625,-21.41
10:03:19.156250,-23.43
10:03:19.171875,-25.28
10:03:19.187500,-27.24
10:03:19.203125,-29.50
10:03:19.218750,-32.11
10:03:19.234375,-34.87
10:03:19.250000,-37.46
10:03:19.265625,-39.53
10:03:19.281250,-40.82
10:03:19.296875,-41.22
10:03:19.312500,-40.88
10:03:19.328125,-40.12
10:03:19.343750,-39.32
10:03:19.359375,-38.80
10:03:19.375000,-38.72
10:03:19.390625,-39.11
10:03:19.406250,-39.90
10:03:19.421875,-40.91
10:03:19.437500,-41.84
10:03:19.453125,-42.14
10:03:19.468750,-40.96
10:03:19.484375,-37.33
10:03:19.500000,-30.40
10:03:19.515625,-19.85
10:03:19.531250,-6.07
10:03:19.546875,9.82
10:03:19.562500,26.31
10:03:19.578125,41.89
10:03:19.593750,55.40
10:03:19.609375,66.20
10:03:19.625000,74.10
10:03:19.640625,79.17
10:03:19.656250,81.58
10:03:19.671875,81.54
10:03:19.687500,79.34
10:03:19.703125,75.41
10:03:19.718750,70.28
10:03:19.734375,64.52
10:03:19.750000,58.65
10:03:19.765625,53.07
10:03:19.781250,48.05
10:03:19.796875,43.76
10:03:19.812500,40.23
10:03:19.828125,37.46
10:03:19.843750,35.37
10:03:19.859375,33.91
10:03:19.875000,32.99
10:03:19.890625,32.60
10:03:19.906250,32.65
10:03:19.921875,33.00
10:03:19.937500,33.37
10:03:19.953125,33.34
10:03:19.968750,32.48
10:03:19.984375,30.45
10:03:20,27.12
10:03:20.015625,22.61
10:03:20.031250,17.26
10:03:20.046875,11.51
10:03:20.062500,5.76
10:03:20.078125,0.38
10:03:20.093750,-4.35
10:03:20.109375,-8.16
10:03:20.125000,-10.92
10:03:20.140625,-12.74
10:03:20.156250,-14.02
10:03:20.171875,-15.50
10:03:20.187500,-17.95
10:03:20.203125,-21.95
10:03:20.218750,-27.54
10:03:20.234375,-34.27
10:03:20.250000,-41.23
10:03:20.265625,-47.45
10:03:20.281250,-52.03
10:03:20.296875,-54.36
10:03:20.312500,-54.10
10:03:20.328125,-51.13
10:03:20.343750,-45.51
10:03:20.359375,-37.45
10:03:20.375000,-27.38
10:03:20.390625,-15.86
10:03:20.406250,-3.58
10:03:20.421875,8.73
10:03:20.437500,20.37
10:03:20.453125,30.69
10:03:20.468750,39.17
10:03:20.484375,45.48
10:03:20.500000,49.57
10:03:20.515625,51.61
10:03:20.531250,51.93
10:03:20.546875,50.89
10:03:20.562500,48.81
10:03:20.578125,45.93
10:03:20.593750,42.52
10:03:20.609375,38.89
10:03:20.625000,35.44
10:03:20.640625,32.57
10:03:20.656250,30.56
10:03:20.671875,29.50
10:03:20.687500,29.25
10:03:20.703125,29.45
10:03:20.718750,29.68
10:03:20.734375,29.55
10:03:20.750000,28.77
10:03:20.765625,27.20
10:03:20.781250,24.82
10:03:20.796875,21.68
10:03:20.812500,17.88
10:03:20.828125,13.63
10:03:20.843750,9.13
10:03:20.859375,4.65
10:03:20.875000,0.37
10:03:20.890625,-3.65
10:03:20.906250,-7.48
10:03:20.921875,-11.28
10:03:20.937500,-15.22
10:03:20.953125,-19.34
10:03:20.968750,-23.52
10:03:20.984375,-27.60
10:03:21,-31.40
10:03:21.015625,-34.82
10:03:21.031250,-37.96
10:03:21.046875,-41.04
10:03:21.062500,-44.38
10:03:21.078125,-48.29
10:03:21.093750,-52.91
10:03:21.109375,-58.09
10:03:21.125000,-63.25
10:03:21.140625,-67.46
10:03:21.156250,-69.60
10:03:21.171875,-68.71
10:03:21.187500,-64.31
10:03:21.203125,-56.61
10:03:21.218750,-46.46
10:03:21.234375,-35.07
10:03:21.250000,-23.67
10:03:21.265625,-13.22
10:03:21.281250,-4.18
10:03:21.296875,3.37
10:03:21.312500,9.66
10:03:21.328125,14.98
10:03:21.343750,19.55
10:03:21.359375,23.44
10:03:21.375000,26.58
10:03:21.390625,28.84
10:03:21.406250,30.14
10:03:21.421875,30.55
10:03:21.437500,30.28
10:03:21.453125,29.66
10:03:21.468750,29.03
10:03:21.484375,28.57
10:03:21.500000,28.33
10:03:21.515625,28.24
10:03:21.531250,28.19
10:03:21.546875,28.10
10:03:21.562500,27.94
10:03:21.578125,27.71
10:03:21.593750,27.37
10:03:21.609375,26.79
10:03:21.625000,25.84
10:03:21.640625,24.40
10:03:21.656250,22.46
10:03:21.671875,20.13
10:03:21.687500,17.61
10:03:21.703125,15.08
10:03:21.718750,12.69
10:03:21.734375,10.43
10:03:21.750000,8.21
10:03:21.765625,5.81
10:03:21.781250,3.07
10:03:21.796875,-0.14
10:03:21.812500,-3.80
10:03:21.828125,-7.77
10:03:21.843750,-11.79
10:03:21.859375,-15.61
10:03:21.875000,-19.01
10:03:21.890625,-21.93
10:03:21.906250,-24.43
10:03:21.921875,-26.69
10:03:21.937500,-28.96
10:03:21.953125,-31.48
10:03:21.968750,-34.44
10:03:21.984375,-37.93
10:03:22,-41.89
10:03:22.015625,-46.03
10:03:22.031250,-49.79
10:03:22.046875,-52.41
10:03:22.062500,-53.08
10:03:22.078125,-51.17
10:03:22.093750,-46.40
10:03:22.109375,-39.04
10:03:22.125000,-29.80
10:03:22.140625,-19.66
10:03:22.156250,-9.60
10:03:22.171875,-0.36
10:03:22.187500,7.61
10:03:22.203125,14.16
10:03:22.218750,19.27
10:03:22.234375,22.96
10:03:22.250000,25.29
10:03:22.265625,26.33
10:03:22.281250,26.31
10:03:22.296875,25.57
10:03:22.312500,24.51
10:03:22.328125,23.52
10:03:22.343750,22.82
10:03:22.359375,22.45
10:03:22.375000,22.30
10:03:22.390625,22.19
10:03:22.406250,22.00
10:03:22.421875,21.72
10:03:22.437500,21.41
10:03:22.453125,21.13
10:03:22.468750,20.84
10:03:22.484375,20.38
10:03:22.500000,19.52
10:03:22.515625,18.06
10:03:22.531250,15.97
10:03:22.546875,13.35
10:03:22.562500,10.47
10:03:22.578125,7.60
10:03:22.593750,4.88
10:03:22.609375,2.31
10:03:22.625000,-0.28
10:03:22.640625,-3.09
10:03:22.656250,-6.19
10:03:22.671875,-9.50
10:03:22.687500,-12.79
10:03:22.703125,-15.78
10:03:22.718750,-18.25
10:03:22.734375,-20.14
10:03:22.750000,-21.57
10:03:22.765625,-22.83
10:03:22.781250,-24.32
10:03:22.796875,-26.42
10:03:22.812500,-29.35
10:03:22.828125,-33.03
10:03:22.843750,-36.99
10:03:22.859375,-40.37
10:03:22.875000,-42.12
10:03:22.890625,-41.37
10:03:22.906250,-37.71
10:03:22.921875,-31.32
10:03:22.937500,-22.95
10:03:22.953125,-13.59
10:03:22.968750,-4.21
10:03:22.984375,4.48
10:03:23,12.09
10:03:23.015625,18.46
10:03:23.031250,23.55
10:03:23.046875,27.36
10:03:23.062500,29.90
10:03:23.078125,31.21
10:03:23.093750,31.39
10:03:23.109375,30.57
10:03:23.125000,28.93
10:03:23.140625,26.68
10:03:23.156250,24.06
10:03:23.171875,21.35
10:03:23.187500,18.82
10:03:23.203125,16.72
10:03:23.218750,15.25
10:03:23.234375,14.51
10:03:23.250000,14.49
10:03:23.265625,15.08
10:03:23.281250,16.00
10:03:23.296875,16.90
10:03:23.312500,17.36
10:03:23.328125,17.05
10:03:23.343750,15.78
10:03:23.359375,13.59
10:03:23.375000,10.72
10:03:23.390625,7.50
10:03:23.406250,4.22
10:03:23.421875,1.00
10:03:23.437500,-2.24
10:03:23.453125,-5.72
10:03:23.468750,-9.67
10:03:23.484375,-14.16
10:03:23.500000,-19.02
10:03:23.515625,-23.91
10:03:23.531250,-28.40
10:03:23.546875,-32.18
10:03:23.562500,-35.15
10:03:23.578125,-37.48
10:03:23.593750,-39.53
10:03:23.609375,-41.71
10:03:23.625000,-44.37
10:03:23.640625,-47.68
10:03:23.656250,-51.51
10:03:23.671875,-55.40
10:03:23.687500,-58.61
10:03:23.703125,-60.20
10:03:23.718750,-59.33
10:03:23.734375,-55.46
10:03:23.750000,-48.57
10:03:23.765625,-39.20
10:03:23.781250,-28.31
10:03:23.796875,-16.94
10:03:23.812500,-6.04
10:03:23.828125,3.79
10:03:23.843750,12.27
10:03:23.859375,19.35
10:03:23.875000,25.13
10:03:23.890625,29.74
10:03:23.906250,33.26
10:03:23.921875,35.77
10:03:23.937500,37.34
10:03:23.953125,38.05
10:03:23.968750,38.05
10:03:23.984375,37.54
10:03:24,36.73
10:03:24.015625,35.81
10:03:24.031250,34.89
10:03:24.046875,34.01
10:03:24.062500,33.18
10:03:24.078125,32.39
10:03:24.093750,31.68
10:03:24.109375,31.10
10:03:24.125000,30.60
10:03:24.140625,30.03
10:03:24.156250,29.10
10:03:24.171875,27.51
10:03:24.187500,25.06
10:03:24.203125,21.74
10:03:24.218750,17.80
10:03:24.234375,13.60
10:03:24.250000,9.55
10:03:24.265625,5.91
10:03:24.281250,2.72
10:03:24.296875,-0.14
10:03:24.312500,-2.90
10:03:24.328125,-5.72
10:03:24.343750,-8.64
10:03:24.359375,-11.53
10:03:24.375000,-14.19
10:03:24.390625,-16.47
10:03:24.406250,-18.35
10:03:24.421875,-19.96
10:03:24.437500,-21.49
10:03:24.453125,-23.07
10:03:24.468750,-24.77
10:03:24.484375,-26.57
10:03:24.500000,-28.52
10:03:24.515625,-30.77
10:03:24.531250,-33.56
10:03:24.546875,-37.07
10:03:24.562500,-41.18
10:03:24.578125,-45.37
10:03:24.593750,-48.68
10:03:24.609375,-50.04
10:03:24.625000,-48.55
10:03:24.640625,-43.86
10:03:24.656250,-36.27
10:03:24.671875,-26.66
10:03:24.687500,-16.16
10:03:24.703125,-5.81
10:03:24.718750,3.67
10:03:24.734375,11.97
10:03:24.750000,19.02
10:03:24.765625,24.83
10:03:24.781250,29.37
10:03:24.796875,32.55
10:03:24.812500,34.29
10:03:24.828125,34.66
10:03:24.843750,33.91
10:03:24.859375,32.46
10:03:24.875000,30.75
10:03:24.890625,29.10
10:03:24.906250,27.72
10:03:24.921875,26.65
10:03:24.937500,25.85
10:03:24.953125,25.27
10:03:24.968750,24.87
10:03:24.984375,24.63
10:03:25,24.55
10:03:25.015625,24.61
10:03:25.031250,24.74
10:03:25.046875,24.82
10:03:25.062500,24.67
10:03:25.078125,24.07
10:03:25.093750,22.85
10:03:25.109375,20.94
10:03:25.125000,18.35
10:03:25.140625,15.25
10:03:25.156250,11.83
10:03:25.171875,8.25
10:03:25.187500,4.59
10:03:25.203125,0.92
10:03:25.218750,-2.72
10:03:25.234375,-6.18
10:03:25.250000,-9.22
10:03:25.265625,-11.64
10:03:25.281250,-13.38
10:03:25.296875,-14.62
10:03:25.312500,-15.83
10:03:25.328125,-17.63
10:03:25.343750,-20.61
10:03:25.359375,-25.11
10:03:25.375000,-31.05
10:03:25.390625,-38.03
10:03:25.406250,-45.28
10:03:25.421875,-51.86
10:03:25.437500,-56.75
10:03:25.453125,-59.05
10:03:25.468750,-58.10
10:03:25.484375,-53.66
10:03:25.500000,-46.02
10:03:25.515625,-35.94
10:03:25.531250,-24.52
10:03:25.546875,-12.90
10:03:25.562500,-2.02
10:03:25.578125,7.52
10:03:25.593750,15.53
10:03:25.609375,22.04
10:03:25.625000,27.18
10:03:25.640625,31.03
10:03:25.656250,33.61
10:03:25.671875,34.90
10:03:25.687500,34.90
10:03:25.703125,33.72
10:03:25.718750,31.55
10:03:25.734375,28.70
10:03:25.750000,25.49
10:03:25.765625,22.21
10:03:25.781250,19.08
10:03:25.796875,16.24
10:03:25.812500,13.81
10:03:25.828125,11.88
10:03:25.843750,10.50
10:03:25.859375,9.66
10:03:25.875000,9.23
10:03:25.890625,9.00
10:03:25.906250,8.71
10:03:25.921875,8.10
10:03:25.937500,7.02
10:03:25.953125,5.43
10:03:25.968750,3.42
10:03:25.984375,1.17
10:03:26,-1.14
10:03:26.015625,-3.41
10:03:26.031250,-5.69
10:03:26.046875,-8.12
10:03:26.062500,-10.85
10:03:26.078125,-13.92
10:03:26.093750,-17.21
10:03:26.109375,-20.42
10:03:26.125000,-23.25
10:03:26.140625,-25.50
10:03:26.156250,-27.24
10:03:26.171875,-28.77
10:03:26.187500,-30.52
10:03:26.203125,-32.93
10:03:26.218750,-36.29
10:03:26.234375,-40.70
10:03:26.250000,-45.95
10:03:26.265625,-51.49
10:03:26.281250,-56.43
10:03:26.296875,-59.60
10:03:26.312500,-59.86
10:03:26.328125,-56.46
10:03:26.343750,-49.33
10:03:26.359375,-39.21
10:03:26.375000,-27.37
10:03:26.390625,-15.25
10:03:26.406250,-4.00
10:03:26.421875,5.74
10:03:26.437500,13.88
10:03:26.453125,20.63
10:03:26.468750,26.24
10:03:26.484375,30.86
10:03:26.500000,34.50
10:03:26.515625,37.15
10:03:26.531250,38.91
10:03:26.546875,39.98
10:03:26.562500,40.65
10:03:26.578125,41.09
10:03:26.593750,41.31
10:03:26.609375,41.08
10:03:26.625000,40.10
10:03:26.640625,38.25
10:03:26.656250,35.70
10:03:26.671875,32.89
10:03:26.687500,30.38
10:03:26.703125,28.52
10:03:26.718750,27.29
10:03:26.734375,26.30
10:03:26.750000,25.01
10:03:26.765625,23.01
10:03:26.781250,20.14
10:03:26.796875,16.57
10:03:26.812500,12.57
10:03:26.828125,8.39
10:03:26.843750,4.16
10:03:26.859375,-0.06
10:03:26.875000,-4.18
10:03:26.890625,-8.00
10:03:26.906250,-11.28
10:03:26.921875,-13.78
10:03:26.937500,-15.42
10:03:26.953125,-16.34
10:03:26.968750,-16.80
10:03:26.984375,-17.13
10:03:27,-17.64
10:03:27.015625,-18.47
10:03:27.031250,-19.66
10:03:27.046875,-21.15
10:03:27.062500,-22.86
10:03:27.078125,-24.75
10:03:27.093750,-26.88
10:03:27.109375,-29.47
10:03:27.125000,-32.75
10:03:27.140625,-36.93
10:03:27.156250,-41.95
10:03:27.171875,-47.35
10:03:27.187500,-52.27
10:03:27.203125,-55.52
10:03:27.218750,-55.92
10:03:27.234375,-52.68
10:03:27.250000,-45.65
10:03:27.265625,-35.41
10:03:27.281250,-23.06
10:03:27.296875,-9.92
10:03:27.312500,2.89
10:03:27.328125,14.58
10:03:27.343750,24.77
10:03:27.359375,33.36
10:03:27.375000,40.35
10:03:27.390625,45.70
10:03:27.406250,49.32
10:03:27.421875,51.15
10:03:27.437500,51.26
10:03:27.453125,49.90
10:03:27.468750,47.50
10:03:27.484375,44.58
10:03:27.500000,41.60
10:03:27.515625,38.88
10:03:27.531250,36.61
10:03:27.546875,34.82
10:03:27.562500,33.47
10:03:27.578125,32.53
10:03:27.593750,31.97
10:03:27.609375,31.72
10:03:27.625000,31.67
10:03:27.640625,31.62
10:03:27.656250,31.33
10:03:27.671875,30.59
10:03:27.687500,29.23
10:03:27.703125,27.19
10:03:27.718750,24.53
10:03:27.734375,21.41
10:03:27.750000,18.05
10:03:27.765625,14.66
10:03:27.781250,11.40
10:03:27.796875,8.32
10:03:27.812500,5.38
10:03:27.828125,2.43
10:03:27.843750,-0.66
10:03:27.859375,-4.00
10:03:27.875000,-7.57
10:03:27.890625,-11.22
10:03:27.906250,-14.78
10:03:27.921875,-18.09
10:03:27.937500,-21.07
10:03:27.953125,-23.79
10:03:27.968750,-26.45
10:03:27.984375,-29.25
10:03:28,-32.41
10:03:28.015625,-36.07
10:03:28.031250,-40.31
10:03:28.046875,-45.04
10:03:28.062500,-49.96
10:03:28.078125,-54.48
10:03:28.093750,-57.74
10:03:28.109375,-58.82
10:03:28.125000,-56.91
10:03:28.140625,-51.69
10:03:28.156250,-43.47
10:03:28.171875,-33.08
10:03:28.187500,-21.67
10:03:28.203125,-10.34
10:03:28.218750,0.16
10:03:28.234375,9.44
10:03:28.250000,17.38
10:03:28.265625,23.94
10:03:28.281250,29.00
10:03:28.296875,32.39
10:03:28.312500,34.02
10:03:28.328125,34.04
10:03:28.343750,32.85
10:03:28.359375,31.02
10:03:28.375000,29.09
10:03:28.390625,27.40
10:03:28.406250,26.09
10:03:28.421875,25.11
10:03:28.437500,24.39
10:03:28.453125,23.90
10:03:28.468750,23.69
10:03:28.484375,23.76
10:03:28.500000,24.01
10:03:28.515625,24.22
10:03:28.531250,24.07
10:03:28.546875,23.30
10:03:28.562500,21.80
10:03:28.578125,19.63
10:03:28.593750,17.03
10:03:28.609375,14.22
10:03:28.625000,11.34
10:03:28.640625,8.37
10:03:28.656250,5.19
10:03:28.671875,1.70
10:03:28.687500,-2.12
10:03:28.703125,-6.10
10:03:28.718750,-9.96
10:03:28.734375,-13.46
10:03:28.750000,-16.46
10:03:28.765625,-19.07
10:03:28.781250,-21.50
10:03:28.796875,-24.11
10:03:28.812500,-27.20
10:03:28.828125,-31.01
10:03:28.843750,-35.63
10:03:28.859375,-40.97
10:03:28.875000,-46.63
10:03:28.890625,-51.89
10:03:28.906250,-55.72
10:03:28.921875,-57.06
10:03:28.937500,-55.11
10:03:28.953125,-49.62
10:03:28.968750,-41.02
10:03:28.984375,-30.27
10:03:29,-18.55
10:03:29.015625,-6.91
10:03:29.031250,3.91
10:03:29.046875,13.52
10:03:29.062500,21.70
10:03:29.078125,28.32
10:03:29.093750,33.25
10:03:29.109375,36.41
10:03:29.125000,37.86
10:03:29.140625,37.83
10:03:29.156250,36.71
10:03:29.171875,34.95
10:03:29.187500,32.98
10:03:29.203125,31.12
10:03:29.218750,29.58
10:03:29.234375,28.45
10:03:29.250000,27.67
10:03:29.265625,27.12
10:03:29.281250,26.63
10:03:29.296875,26.14
10:03:29.312500,25.64
10:03:29.328125,25.23
10:03:29.343750,24.93
10:03:29.359375,24.62
10:03:29.375000,24.03
10:03:29.390625,22.79
10:03:29.406250,20.66
10:03:29.421875,17.62
10:03:29.437500,13.93
10:03:29.453125,9.99
10:03:29.468750,6.19
10:03:29.484375,2.69
10:03:29.500000,-0.55
10:03:29.515625,-3.75
10:03:29.531250,-7.19
10:03:29.546875,-10.99
10:03:29.562500,-15.12
10:03:29.578125,-19.37
10:03:29.593750,-23.41
10:03:29.609375,-26.94
10:03:29.625000,-29.82
10:03:29.640625,-32.12
10:03:29.656250,-34.16
10:03:29.671875,-36.40
10:03:29.687500,-39.30
10:03:29.703125,-43.15
10:03:29.718750,-47.96
10:03:29.734375,-53.31
10:03:29.750000,-58.46
10:03:29.765625,-62.39
10:03:29.781250,-64.04
10:03:29.796875,-62.57
10:03:29.812500,-57.62
10:03:29.828125,-49.38
10:03:29.843750,-38.62
10:03:29.859375,-26.43
10:03:29.875000,-13.96
10:03:29.890625,-2.16
10:03:29.906250,8.42
10:03:29.921875,17.52
10:03:29.937500,25.15
10:03:29.953125,31.35
10:03:29.968750,36.17
10:03:29.984375,39.58
10:03:30,41.61
10:03:30.015625,42.41
10:03:30.031250,42.25
10:03:30.046875,41.50
10:03:30.062500,40.49
10:03:30.078125,39.42
10:03:30.093750,38.32
10:03:30.109375,37.17
10:03:30.125000,35.96
10:03:30.140625,34.77
10:03:30.156250,33.72
10:03:30.171875,32.97
10:03:30.187500,32.52
10:03:30.203125,32.27
10:03:30.218750,31.97
10:03:30.234375,31.38
10:03:30.250000,30.35
10:03:30.265625,28.81
10:03:30.281250,26.83
10:03:30.296875,24.47
10:03:30.312500,21.79
10:03:30.328125,18.78
10:03:30.343750,15.45
10:03:30.359375,11.83
10:03:30.375000,8.02
10:03:30.390625,4.23
10:03:30.406250,0.67
10:03:30.421875,-2.52
10:03:30.437500,-5.31
10:03:30.453125,-7.81
10:03:30.468750,-10.23
10:03:30.484375,-12.79
10:03:30.500000,-15.57
10:03:30.515625,-18.55
10:03:30.531250,-21.59
10:03:30.546875,-24.53
10:03:30.562500,-27.26
10:03:30.578125,-29.80
10:03:30.593750,-32.26
10:03:30.609375,-34.85
10:03:30.625000,-37.83
10:03:30.640625,-41.46
10:03:30.656250,-45.90
10:03:30.671875,-51.10
10:03:30.687500,-56.62
10:03:30.703125,-61.62
10:03:30.718750,-64.97
10:03:30.734375,-65.51
10:03:30.750000,-62.43
10:03:30.765625,-55.59
10:03:30.781250,-45.61
10:03:30.796875,-33.65
10:03:30.812500,-21.02
10:03:30.828125,-8.83
10:03:30.843750,2.28
10:03:30.859375,12.06
10:03:30.875000,20.49
10:03:30.890625,27.52
10:03:30.906250,33.06
10:03:30.921875,37.00
10:03:30.937500,39.31
10:03:30.953125,40.15
10:03:30.968750,39.84
10:03:30.984375,38.74
10:03:31,37.18
10:03:31.015625,35.44
10:03:31.031250,33.77
10:03:31.046875,32.36
10:03:31.062500,31.40
10:03:31.078125,30.96
10:03:31.093750,30.97
10:03:31.109375,31.25
10:03:31.125000,31.54
10:03:31.140625,31.64
10:03:31.156250,31.45
10:03:31.171875,30.90
10:03:31.187500,29.98
10:03:31.203125,28.59
10:03:31.218750,26.64
10:03:31.234375,24.05
10:03:31.250000,20.89
10:03:31.265625,17.35
10:03:31.281250,13.71
10:03:31.296875,10.22
10:03:31.312500,6.96
10:03:31.328125,3.89
10:03:31.343750,0.88
10:03:31.359375,-2.16
10:03:31.375000,-5.25
10:03:31.390625,-8.31
10:03:31.406250,-11.26
10:03:31.421875,-14.05
10:03:31.437500,-16.68
10:03:31.453125,-19.18
10:03:31.468750,-21.54
10:03:31.484375,-23.71
10:03:31.500000,-25.68
10:03:31.515625,-27.52
10:03:31.531250,-29.48
10:03:31.546875,-31.92
10:03:31.562500,-35.16
10:03:31.578125,-39.24
10:03:31.593750,-43.76
10:03:31.609375,-47.88
10:03:31.625000,-50.48
10:03:31.640625,-50.51
10:03:31.656250,-47.36
10:03:31.671875,-41.04
10:03:31.687500,-32.16
10:03:31.703125,-21.73
10:03:31.718750,-10.84
10:03:31.734375,-0.38
10:03:31.750000,9.09
10:03:31.765625,17.23
10:03:31.781250,23.84
10:03:31.796875,28.74
10:03:31.812500,31.75
10:03:31.828125,32.83
10:03:31.843750,32.14
10:03:31.859375,30.16
10:03:31.875000,27.51
10:03:31.890625,24.83
10:03:31.906250,22.58
10:03:31.921875,20.93
10:03:31.937500,19.83
10:03:31.953125,19.11
10:03:31.968750,18.64
10:03:31.984375,18.41
10:03:32,18.51
10:03:32.015625,19.00
10:03:32.031250,19.79
10:03:32.046875,20.61
10:03:32.062500,21.03
10:03:32.078125,20.65
10:03:32.093750,19.26
10:03:32.109375,16.91
10:03:32.125000,13.91
10:03:32.140625,10.62
10:03:32.156250,7.36
10:03:32.171875,4.21
10:03:32.187500,1.09
10:03:32.203125,-2.18
10:03:32.218750,-5.73
10:03:32.234375,-9.55
10:03:32.250000,-13.49
10:03:32.265625,-17.31
10:03:32.281250,-20.79
10:03:32.296875,-23.81
10:03:32.312500,-26.33
10:03:32.328125,-28.45
10:03:32.343750,-30.36
10:03:32.359375,-32.36
10:03:32.375000,-34.79
10:03:32.390625,-38.04
10:03:32.406250,-42.32
10:03:32.421875,-47.60
10:03:32.437500,-53.43
10:03:32.453125,-58.94
10:03:32.468750,-62.96
10:03:32.484375,-64.34
10:03:32.500000,-62.28
10:03:32.515625,-56.62
10:03:32.531250,-47.84
10:03:32.546875,-36.91
10:03:32.562500,-24.97
10:03:32.578125,-13.00
10:03:32.593750,-1.67
10:03:32.609375,8.63
10:03:32.625000,17.67
10:03:32.640625,25.30
10:03:32.656250,31.35
10:03:32.671875,35.75
10:03:32.687500,38.56
10:03:32.703125,40.05
10:03:32.718750,40.55
10:03:32.734375,40.40
10:03:32.750000,39.84
10:03:32.765625,38.99
10:03:32.781250,37.90
10:03:32.796875,36.63
10:03:32.812500,35.28
10:03:32.828125,33.99
10:03:32.843750,32.89
10:03:32.859375,32.07
10:03:32.875000,31.52
10:03:32.890625,31.15
10:03:32.906250,30.84
10:03:32.921875,30.42
10:03:32.937500,29.71
10:03:32.953125,28.54
10:03:32.968750,26.77
10:03:32.984375,24.31
10:03:33,21.19
10:03:33.015625,17.55
10:03:33.031250,13.67
10:03:33.046875,9.79
10:03:33.062500,6.11
10:03:33.078125,2.67
10:03:33.093750,-0.67
10:03:33.109375,-4.09
10:03:33.125000,-7.73
10:03:33.140625,-11.64
10:03:33.156250,-15.67
10:03:33.171875,-19.58
10:03:33.187500,-23.15
10:03:33.203125,-26.29
10:03:33.218750,-29.05
10:03:33.234375,-31.65
10:03:33.250000,-34.42
10:03:33.265625,-37.68
10:03:33.281250,-41.70
10:03:33.296875,-46.61
10:03:33.312500,-52.29
10:03:33.328125,-58.26
10:03:33.343750,-63.68
10:03:33.359375,-67.43
10:03:33.375000,-68.39
10:03:33.390625,-65.76
10:03:33.406250,-59.38
10:03:33.421875,-49.76
10:03:33.437500,-37.96
10:03:33.453125,-25.22
10:03:33.468750,-12.63
10:03:33.484375,-0.92
10:03:33.500000,9.53
10:03:33.515625,18.58
10:03:33.531250,26.21
10:03:33.546875,32.36
10:03:33.562500,36.99
10:03:33.578125,40.15
10:03:33.593750,41.99
10:03:33.609375,42.77
10:03:33.625000,42.77
10:03:33.640625,42.27
10:03:33.656250,41.47
10:03:33.671875,40.49
10:03:33.687500,39.41
10:03:33.703125,38.29
10:03:33.718750,37.20
10:03:33.734375,36.25
10:03:33.750000,35.48
10:03:33.765625,34.89
10:03:33.781250,34.41
10:03:33.796875,33.90
10:03:33.812500,33.21
10:03:33.828125,32.23
10:03:33.843750,30.84
10:03:33.859375,28.96
10:03:33.875000,26.53
10:03:33.890625,23.53
10:03:33.906250,20.03
10:03:33.921875,16.18
10:03:33.937500,12.20
10:03:33.953125,8.27
10:03:33.968750,4.48
10:03:33.984375,0.79
10:03:34,-2.89
10:03:34.015625,-6.65
10:03:34.031250,-10.50
10:03:34.046875,-14.29
10:03:34.062500,-17.86
10:03:34.078125,-21.04
10:03:34.093750,-23.81
10:03:34.109375,-26.27
10:03:34.125000,-28.67
10:03:34.140625,-31.30
10:03:34.156250,-34.42
10:03:34.171875,-38.22
10:03:34.187500,-42.75
10:03:34.203125,-47.87
10:03:34.218750,-53.16
10:03:34.234375,-57.92
10:03:34.250000,-61.18
10:03:34.265625,-61.97
10:03:34.281250,-59.56
10:03:34.296875,-53.70
10:03:34.312500,-44.75
10:03:34.328125,-33.59
10:03:34.343750,-21.39
10:03:34.359375,-9.28
10:03:34.375000,1.87
10:03:34.390625,11.56
10:03:34.406250,19.59
10:03:34.421875,25.94
10:03:34.437500,30.67
10:03:34.453125,33.83
10:03:34.468750,35.53
10:03:34.484375,35.94
10:03:34.500000,35.34
10:03:34.515625,34.11
10:03:34.531250,32.61
10:03:34.546875,31.13
10:03:34.562500,29.83
10:03:34.578125,28.73
10:03:34.593750,27.78
10:03:34.609375,26.97
10:03:34.625000,26.32
10:03:34.640625,25.84
10:03:34.656250,25.54
10:03:34.671875,25.33
10:03:34.687500,25.01
10:03:34.703125,24.31
10:03:34.718750,23.02
10:03:34.734375,21.00
10:03:34.750000,18.30
10:03:34.765625,15.11
10:03:34.781250,11.71
10:03:34.796875,8.36
10:03:34.812500,5.19
10:03:34.828125,2.16
10:03:34.843750,-0.89
10:03:34.859375,-4.14
10:03:34.875000,-7.71
10:03:34.890625,-11.55
10:03:34.906250,-15.47
10:03:34.921875,-19.21
10:03:34.937500,-22.62
10:03:34.953125,-25.66
10:03:34.968750,-28.49
10:03:34.984375,-31.37
10:03:35,-34.58
10:03:35.015625,-38.30
10:03:35.031250,-42.47
10:03:35.046875,-46.75
10:03:35.062500,-50.50
10:03:35.078125,-52.90
10:03:35.093750,-53.14
10:03:35.109375,-50.61
10:03:35.125000,-45.15
10:03:35.140625,-37.06
10:03:35.156250,-27.04
10:03:35.171875,-16.00
10:03:35.187500,-4.87
10:03:35.203125,5.63
10:03:35.218750,14.98
10:03:35.234375,22.85
10:03:35.250000,29.05
10:03:35.265625,33.43
10:03:35.281250,35.95
10:03:35.296875,36.69
10:03:35.312500,35.94
10:03:35.328125,34.16
10:03:35.343750,31.87
10:03:35.359375,29.58
10:03:35.375000,27.63
10:03:35.390625,26.22
10:03:35.406250,25.37
10:03:35.421875,24.96
10:03:35.437500,24.89
10:03:35.453125,25.01
10:03:35.468750,25.22
10:03:35.484375,25.37
10:03:35.500000,25.27
10:03:35.515625,24.68
10:03:35.531250,23.34
10:03:35.546875,21.11
10:03:35.562500,18.01
10:03:35.578125,14.30
10:03:35.593750,10.34
10:03:35.609375,6.50
10:03:35.625000,2.98
10:03:35.640625,-0.22
10:03:35.656250,-3.34
10:03:35.671875,-6.65
10:03:35.687500,-10.32
10:03:35.703125,-14.32
10:03:35.718750,-18.45
10:03:35.734375,-22.44
10:03:35.750000,-26.10
10:03:35.765625,-29.39
10:03:35.781250,-32.44
10:03:35.796875,-35.52
10:03:35.812500,-38.94
10:03:35.828125,-43.02
10:03:35.843750,-47.91
10:03:35.859375,-53.41
10:03:35.875000,-58.92
10:03:35.890625,-63.37
10:03:35.906250,-65.52
10:03:35.921875,-64.28
10:03:35.937500,-59.15
10:03:35.953125,-50.39
10:03:35.968750,-38.96
10:03:35.984375,-26.18
10:03:36,-13.30
10:03:36.015625,-1.22
10:03:36.031250,9.61
10:03:36.046875,19.01
10:03:36.062500,26.87
10:03:36.078125,33.10
10:03:36.093750,37.61
10:03:36.109375,40.40
10:03:36.125000,41.68
10:03:36.140625,41.82
10:03:36.156250,41.23
10:03:36.171875,40.28
10:03:36.187500,39.18
10:03:36.203125,38.07
10:03:36.218750,37.00
10:03:36.234375,36.02
10:03:36.250000,35.22
10:03:36.265625,34.67
10:03:36.281250,34.37
10:03:36.296875,34.24
10:03:36.312500,34.11
10:03:36.328125,33.75
10:03:36.343750,32.87
10:03:36.359375,31.26
10:03:36.375000,28.84
10:03:36.390625,25.66
10:03:36.406250,21.96
10:03:36.421875,18.06
10:03:36.437500,14.24
10:03:36.453125,10.69
10:03:36.468750,7.36
10:03:36.484375,4.09
10:03:36.500000,0.66
10:03:36.515625,-3.07
10:03:36.531250,-7.05
10:03:36.546875,-11.06
10:03:36.562500,-14.81
10:03:36.578125,-18.10
10:03:36.593750,-20.90
10:03:36.609375,-23.37
10:03:36.625000,-25.82
10:03:36.640625,-28.60
10:03:36.656250,-32.00
10:03:36.671875,-36.25
10:03:36.687500,-41.42
10:03:36.703125,-47.32
10:03:36.718750,-53.40
10:03:36.734375,-58.67
10:03:36.750000,-61.89
10:03:36.765625,-61.89
10:03:36.781250,-57.96
10:03:36.796875,-50.17
10:03:36.812500,-39.34
10:03:36.828125,-26.79
10:03:36.843750,-13.91
10:03:36.859375,-1.79
10:03:36.875000,8.96
10:03:36.890625,18.10
10:03:36.906250,25.64
10:03:36.921875,31.60
10:03:36.937500,35.98
10:03:36.953125,38.80
10:03:36.968750,40.18
10:03:36.984375,40.39
10:03:37,39.83
10:03:37.015625,38.93
10:03:37.031250,38.02
10:03:37.046875,37.25
10:03:37.062500,36.65
10:03:37.078125,36.10
10:03:37.093750,35.49
10:03:37.109375,34.79
10:03:37.125000,34.03
10:03:37.140625,33.31
10:03:37.156250,32.68
10:03:37.171875,32.08
10:03:37.187500,31.34
10:03:37.203125,30.27
10:03:37.218750,28.70
10:03:37.234375,26.60
10:03:37.250000,24.00
10:03:37.265625,21.04
10:03:37.281250,17.86
10:03:37.296875,14.61
10:03:37.312500,11.41
10:03:37.328125,8.33
10:03:37.343750,5.43
10:03:37.359375,2.68
10:03:37.375000,0.01
10:03:37.390625,-2.75
10:03:37.406250,-5.76
10:03:37.421875,-9.13
10:03:37.437500,-12.83
10:03:37.453125,-16.69
10:03:37.468750,-20.42
10:03:37.484375,-23.81
10:03:37.500000,-26.72
10:03:37.515625,-29.22
10:03:37.531250,-31.51
10:03:37.546875,-33.93
10:03:37.562500,-36.77
10:03:37.578125,-40.28
10:03:37.593750,-44.47
10:03:37.609375,-49.12
10:03:37.625000,-53.70
10:03:37.640625,-57.36
10:03:37.656250,-59.13
10:03:37.671875,-58.11
10:03:37.687500,-53.80
10:03:37.703125,-46.28
10:03:37.718750,-36.24
10:03:37.734375,-24.76
10:03:37.750000,-13.03
10:03:37.765625,-2.03
10:03:37.781250,7.66
10:03:37.796875,15.82
10:03:37.812500,22.48
10:03:37.828125,27.67
10:03:37.843750,31.40
10:03:37.859375,33.59
10:03:37.875000,34.29
10:03:37.890625,33.70
10:03:37.906250,32.25
10:03:37.921875,30.48
10:03:37.937500,28.91
10:03:37.953125,27.82
10:03:37.968750,27.23
10:03:37.984375,26.92
10:03:38,26.62
10:03:38.015625,26.14
10:03:38.031250,25.46
10:03:38.046875,24.75
10:03:38.062500,24.23
10:03:38.078125,24.06
10:03:38.093750,24.25
10:03:38.109375,24.63
10:03:38.125000,24.89
10:03:38.140625,24.71
10:03:38.156250,23.81
10:03:38.171875,22.09
10:03:38.187500,19.60
10:03:38.203125,16.55
10:03:38.218750,13.15
10:03:38.234375,9.52
10:03:38.250000,5.66
10:03:38.265625,1.48
10:03:38.281250,-3.10
10:03:38.296875,-7.98
10:03:38.312500,-12.97
10:03:38.328125,-17.75
10:03:38.343750,-22.02
10:03:38.359375,-25.60
10:03:38.375000,-28.53
10:03:38.390625,-31.01
10:03:38.406250,-33.34
10:03:38.421875,-35.86
10:03:38.437500,-38.91
10:03:38.453125,-42.72
10:03:38.468750,-47.37
10:03:38.484375,-52.56
10:03:38.500000,-57.61
10:03:38.515625,-61.54
10:03:38.531250,-63.32
10:03:38.546875,-62.17
10:03:38.562500,-57.81
10:03:38.578125,-50.61
10:03:38.593750,-41.39
10:03:38.609375,-31.22
10:03:38.625000,-20.89
10:03:38.640625,-10.93
10:03:38.656250,-1.69
10:03:38.671875,6.43
10:03:38.687500,12.92
10:03:38.703125,17.25
10:03:38.718750,19.00
10:03:38.734375,18.03
10:03:38.750000,14.62
10:03:38.765625,9.75
10:03:38.781250,4.58
10:03:38.796875,0.03
10:03:38.812500,-3.56
10:03:38.828125,-6.29
10:03:38.843750,-8.48
10:03:38.859375,-10.40
10:03:38.875000,-12.29
10:03:38.890625,-14.34
10:03:38.906250,-16.18
10:03:38.921875,-17.31
10:03:38.937500,-17.33
10:03:38.953125,-16.08
10:03:38.968750,-13.38
10:03:38.984375,-9.08
10:03:39,-3.12
10:03:39.015625,4.06
10:03:39.031250,11.65
10:03:39.046875,19.47
10:03:39.062500,27.74
10:03:39.078125,36.83
10:03:39.093750,46.94
10:03:39.109375,58.01
10:03:39.125000,69.79
10:03:39.140625,81.88
10:03:39.156250,93.78
10:03:39.171875,100.61
10:03:39.187500,98.65
10:03:39.203125,87.41
10:03:39.218750,70.28
10:03:39.234375,51.96
10:03:39.250000,35.51
10:03:39.265625,21.73
10:03:39.281250,10.19
10:03:39.296875,0.26
10:03:39.312500,-8.44
10:03:39.328125,-15.29
10:03:39.343750,-19.58
10:03:39.359375,-21.19
10:03:39.375000,-20.74
10:03:39.390625,-19.17
10:03:39.406250,-17.15
10:03:39.421875,-14.95
10:03:39.437500,-12.62
10:03:39.453125,-10.36
10:03:39.468750,-7.97
10:03:39.484375,-5.38
10:03:39.500000,-2.74
10:03:39.515625,-0.40
10:03:39.531250,1.31
10:03:39.546875,2.29
10:03:39.562500,2.69
10:03:39.578125,2.71
10:03:39.593750,2.50
10:03:39.609375,2.48
10:03:39.625000,2.97
10:03:39.640625,3.98
10:03:39.656250,5.15
10:03:39.671875,5.86
10:03:39.687500,5.68
10:03:39.703125,4.54
10:03:39.718750,2.72
10:03:39.734375,0.68
10:03:39.750000,-0.97
10:03:39.765625,-1.80
10:03:39.781250,-1.95
10:03:39.796875,-1.85
10:03:39.812500,-2.10
10:03:39.828125,-3.01
10:03:39.843750,-4.48
10:03:39.859375,-6.06
10:03:39.875000,-7.20
10:03:39.890625,-7.48
10:03:39.906250,-6.87
10:03:39.921875,-5.80
10:03:39.937500,-4.82
10:03:39.953125,-4.48
10:03:39.968750,-4.84
10:03:39.984375,-5.57
10:03:40,-6.13
10:03:40.015625,-6.17
10:03:40.031250,-5.67
10:03:40.046875,-4.99
10:03:40.062500,-4.59
10:03:40.078125,-4.71
10:03:40.093750,-5.41
10:03:40.109375,-6.41
10:03:40.125000,-7.28
10:03:40.140625,-7.78
10:03:40.156250,-7.88
10:03:40.171875,-7.77
10:03:40.187500,-7.68
10:03:40.203125,-7.74
10:03:40.218750,-7.86
10:03:40.234375,-8.10
10:03:40.250000,-8.43
10:03:40.265625,-8.83
10:03:40.281250,-9.28
10:03:40.296875,-9.71
10:03:40.312500,-10.07
10:03:40.328125,-10.38
10:03:40.343750,-10.89
10:03:40.359375,-10.82
10:03:40.375000,-10.24
10:03:40.390625,-9.44
10:03:40.406250,-8.76
10:03:40.421875,-8.41
10:03:40.437500,-8.54
10:03:40.453125,-9.22
10:03:40.468750,-10.66
10:03:40.484375,-13.08
10:03:40.500000,-16.64
10:03:40.515625,-21.46
10:03:40.531250,-27.23
10:03:40.546875,-33.20
10:03:40.562500,-38.40
10:03:40.578125,-41.79
10:03:40.593750,-42.52
10:03:40.609375,-40.11
10:03:40.625000,-34.52
10:03:40.640625,-26.13
10:03:40.656250,-15.86
10:03:40.671875,-4.79
10:03:40.687500,6.06
10:03:40.703125,15.87
10:03:40.718750,24.15
10:03:40.734375,30.73
10:03:40.750000,35.62
10:03:40.765625,38.92
10:03:40.781250,40.70
10:03:40.796875,41.03
10:03:40.812500,40.15
10:03:40.828125,38.49
10:03:40.843750,36.57
10:03:40.859375,34.78
10:03:40.875000,33.21
10:03:40.890625,31.62
10:03:40.906250,29.59
10:03:40.921875,26.74
10:03:40.937500,22.96
10:03:40.953125,18.53
10:03:40.968750,13.92
10:03:40.984375,9.63
10:03:41,5.93
10:03:41.015625,2.88
10:03:41.031250,0.42
10:03:41.046875,-1.62
10:03:41.062500,-3.48
10:03:41.078125,-5.65
10:03:41.093750,-8.76
10:03:41.109375,-13.45
10:03:41.125000,-20.17
10:03:41.140625,-28.81
10:03:41.156250,-38.75
10:03:41.171875,-48.97
10:03:41.187500,-58.43
10:03:41.203125,-66.27
10:03:41.218750,-71.90
10:03:41.234375,-74.85
10:03:41.250000,-74.72
10:03:41.265625,-71.25
10:03:41.281250,-64.51
10:03:41.296875,-54.95
10:03:41.312500,-43.43
10:03:41.328125,-31.11
10:03:41.343750,-19.10
10:03:41.359375,-8.15
10:03:41.375000,1.39
10:03:41.390625,9.49
10:03:41.406250,16.07
10:03:41.421875,21.08
10:03:41.437500,24.67
10:03:41.453125,27.18
10:03:41.468750,28.93
10:03:41.484375,30.08
10:03:41.500000,30.67
10:03:41.515625,30.80
10:03:41.531250,30.66
10:03:41.546875,30.37
10:03:41.562500,30.30
10:03:41.578125,31.29
10:03:41.593750,34.24
10:03:41.609375,39.48
10:03:41.625000,46.47
10:03:41.640625,54.04
10:03:41.656250,60.90
10:03:41.671875,66.16
10:03:41.687500,68.99
10:03:41.703125,69.30
10:03:41.718750,68.03
10:03:41.734375,66.64
10:03:41.750000,66.11
10:03:41.765625,66.41
10:03:41.781250,66.67
10:03:41.796875,65.53
10:03:41.812500,61.55
10:03:41.828125,52.88
10:03:41.843750,38.32
10:03:41.859375,18.31
10:03:41.875000,-5.14
10:03:41.890625,-29.40
10:03:41.906250,-51.95
10:03:41.921875,-70.66
10:03:41.937500,-84.22
10:03:41.953125,-88.10
10:03:41.968750,-80.70
10:03:41.984375,-66.83
10:03:42,-54.70
10:03:42.015625,-49.35
10:03:42.031250,-50.47
10:03:42.046875,-54.25
10:03:42.062500,-56.24
10:03:42.078125,-53.41
10:03:42.093750,-45.16
10:03:42.109375,-33.79
10:03:42.125000,-22.61
10:03:42.140625,-13.91
10:03:42.156250,-8.18
10:03:42.171875,-4.86
10:03:42.187500,-3.04
10:03:42.203125,-2.00
10:03:42.218750,-1.31
10:03:42.234375,-0.90
10:03:42.250000,-1.40
10:03:42.265625,-3.32
10:03:42.281250,-6.32
10:03:42.296875,-9.29
10:03:42.312500,-11.16
10:03:42.328125,-11.42
10:03:42.343750,-10.19
10:03:42.359375,-7.97
10:03:42.375000,-5.64
10:03:42.390625,-3.87
10:03:42.406250,-3.01
10:03:42.421875,-2.60
10:03:42.437500,-1.72
10:03:42.453125,0.35
10:03:42.468750,3.62
10:03:42.484375,7.46
10:03:42.500000,10.89
10:03:42.515625,13.08
10:03:42.531250,13.47
10:03:42.546875,11.98
10:03:42.562500,9.16
10:03:42.578125,5.87
10:03:42.593750,2.80
10:03:42.609375,0.28
10:03:42.625000,-1.71
10:03:42.640625,-3.36
10:03:42.656250,-4.93
10:03:42.671875,-6.62
10:03:42.687500,-8.60
10:03:42.703125,-10.88
10:03:42.718750,-13.32
10:03:42.734375,-15.81
10:03:42.750000,-18.23
10:03:42.765625,-20.44
10:03:42.781250,-22.35
10:03:42.796875,-23.96
10:03:42.812500,-25.33
10:03:42.828125,-26.65
10:03:42.843750,-28.19
10:03:42.859375,-30.25
10:03:42.875000,-33.10
10:03:42.890625,-36.86
10:03:42.906250,-41.45
10:03:42.921875,-46.45
10:03:42.937500,-51.04
10:03:42.953125,-54.06
10:03:42.968750,-54.23
10:03:42.984375,-50.51
10:03:43,-42.52
10:03:43.015625,-30.71
10:03:43.031250,-16.30
10:03:43.046875,-0.95
10:03:43.062500,13.76
10:03:43.078125,26.72
10:03:43.093750,37.49
10:03:43.109375,46.11
10:03:43.125000,52.83
10:03:43.140625,57.83
10:03:43.156250,61.15
10:03:43.171875,62.78
10:03:43.187500,62.80
10:03:43.203125,61.55
10:03:43.218750,59.55
10:03:43.234375,57.39
10:03:43.250000,55.56
10:03:43.265625,54.23
10:03:43.281250,53.32
10:03:43.296875,52.57
10:03:43.312500,51.68
10:03:43.328125,50.46
10:03:43.343750,48.88
10:03:43.359375,47.04
10:03:43.375000,45.11
10:03:43.390625,43.21
10:03:43.406250,41.32
10:03:43.421875,39.22
10:03:43.437500,36.61
10:03:43.453125,33.16
10:03:43.468750,28.71
10:03:43.484375,23.42
10:03:43.500000,17.74
10:03:43.515625,12.24
10:03:43.531250,7.44
10:03:43.546875,3.52
10:03:43.562500,0.36
10:03:43.578125,-2.39
10:03:43.593750,-5.09
10:03:43.609375,-7.96
10:03:43.625000,-11.04
10:03:43.640625,-14.28
10:03:43.656250,-17.60
10:03:43.671875,-20.91
10:03:43.687500,-24.20
10:03:43.703125,-27.42
10:03:43.718750,-30.51
10:03:43.734375,-33.51
10:03:43.750000,-36.56
10:03:43.765625,-39.91
10:03:43.781250,-43.88
10:03:43.796875,-48.63
10:03:43.812500,-54.02
10:03:43.828125,-59.40
10:03:43.843750,-63.72
10:03:43.859375,-65.68
10:03:43.875000,-64.13
10:03:43.890625,-58.48
10:03:43.906250,-48.88
10:03:43.921875,-36.32
10:03:43.937500,-22.28
10:03:43.953125,-8.32
10:03:43.968750,4.37
10:03:43.984375,15.17
10:03:44,24.00
10:03:44.015625,31.03
10:03:44.031250,36.44
10:03:44.046875,40.25
10:03:44.062500,42.36
10:03:44.078125,42.75
10:03:44.093750,41.68
10:03:44.109375,39.67
10:03:44.125000,37.42
10:03:44.140625,35.51
10:03:44.156250,34.18
10:03:44.171875,33.31
10:03:44.187500,32.60
10:03:44.203125,31.77
10:03:44.218750,30.79
10:03:44.234375,29.87
10:03:44.250000,29.32
10:03:44.265625,29.27
10:03:44.281250,29.56
10:03:44.296875,29.73
10:03:44.312500,29.24
10:03:44.328125,27.71
10:03:44.343750,25.09
10:03:44.359375,21.68
10:03:44.375000,17.92
10:03:44.390625,14.24
10:03:44.406250,10.87
10:03:44.421875,7.79
10:03:44.437500,4.82
10:03:44.453125,1.74
10:03:44.468750,-1.58
10:03:44.484375,-5.11
10:03:44.500000,-8.67
10:03:44.515625,-11.99
10:03:44.531250,-14.84
10:03:44.546875,-17.12
10:03:44.562500,-18.95
10:03:44.578125,-20.63
10:03:44.593750,-22.52
10:03:44.609375,-24.97
10:03:44.625000,-28.20
10:03:44.640625,-32.24
10:03:44.656250,-36.93
10:03:44.671875,-41.92
10:03:44.687500,-46.59
10:03:44.703125,-50.13
10:03:44.718750,-51.64
10:03:44.734375,-50.31
10:03:44.750000,-45.73
10:03:44.765625,-38.11
10:03:44.781250,-28.23
10:03:44.796875,-17.25
10:03:44.812500,-6.29
10:03:44.828125,3.80
10:03:44.843750,12.60
10:03:44.859375,19.97
10:03:44.875000,25.84
10:03:44.890625,30.08
10:03:44.906250,32.51
10:03:44.921875,33.07
10:03:44.937500,31.97
10:03:44.953125,29.71
10:03:44.968750,27.00
10:03:44.984375,24.49
10:03:45,22.57
10:03:45.015625,21.31
10:03:45.031250,20.52
10:03:45.046875,19.97
10:03:45.062500,19.53
10:03:45.078125,19.23
10:03:45.093750,19.18
10:03:45.109375,19.45
10:03:45.125000,19.95
10:03:45.140625,20.40
10:03:45.156250,20.44
10:03:45.171875,19.72
10:03:45.187500,18.14
10:03:45.203125,15.84
10:03:45.218750,13.12
10:03:45.234375,10.34
10:03:45.250000,7.70
10:03:45.265625,5.16
10:03:45.281250,2.53
10:03:45.296875,-0.51
10:03:45.312500,-4.14
10:03:45.328125,-8.35
10:03:45.343750,-12.89
10:03:45.359375,-17.39
10:03:45.375000,-21.45
10:03:45.390625,-24.83
10:03:45.406250,-27.52
10:03:45.421875,-29.71
10:03:45.437500,-31.75
10:03:45.453125,-34.04
10:03:45.468750,-36.96
10:03:45.484375,-40.80
10:03:45.500000,-45.57
10:03:45.515625,-50.91
10:03:45.531250,-56.01
10:03:45.546875,-59.68
10:03:45.562500,-60.65
10:03:45.578125,-58.02
10:03:45.593750,-51.55
10:03:45.609375,-41.84
10:03:45.625000,-30.07
10:03:45.640625,-17.62
10:03:45.656250,-5.64
10:03:45.671875,5.12
10:03:45.687500,14.39
10:03:45.703125,22.13
10:03:45.718750,28.39
10:03:45.734375,33.16
10:03:45.750000,36.44
10:03:45.765625,38.28
10:03:45.781250,38.84
10:03:45.796875,38.39
10:03:45.812500,37.24
10:03:45.828125,35.71
10:03:45.843750,34.04
10:03:45.859375,32.44
10:03:45.875000,31.05
10:03:45.890625,29.94
10:03:45.906250,29.11
10:03:45.921875,28.55
10:03:45.937500,28.25
10:03:45.953125,28.16
10:03:45.968750,28.23
10:03:45.984375,28.30
10:03:46,28.16
10:03:46.015625,27.49
10:03:46.031250,26.01
10:03:46.046875,23.58
10:03:46.062500,20.23
10:03:46.078125,16.27
10:03:46.093750,12.14
10:03:46.109375,8.27
10:03:46.125000,4.94
10:03:46.140625,2.14
10:03:46.156250,-0.37
10:03:46.171875,-2.96
10:03:46.187500,-5.94
10:03:46.203125,-9.40
10:03:46.218750,-13.20
10:03:46.234375,-17.08
10:03:46.250000,-20.75
10:03:46.265625,-24.08
10:03:46.281250,-27.09
10:03:46.296875,-29.97
10:03:46.312500,-32.94
10:03:46.328125,-36.19
10:03:46.343750,-39.89
10:03:46.359375,-44.13
10:03:46.375000,-48.89
10:03:46.390625,-53.89
10:03:46.406250,-58.48
10:03:46.421875,-61.66
10:03:46.437500,-62.34
10:03:46.453125,-59.59
10:03:46.468750,-53.11
10:03:46.484375,-43.38
10:03:46.500000,-31.52
10:03:46.515625,-18.99
10:03:46.531250,-7.07
10:03:46.546875,3.43
10:03:46.562500,12.27
10:03:46.578125,19.57
10:03:46.593750,25.56
10:03:46.609375,30.36
10:03:46.625000,33.91
10:03:46.640625,36.10
10:03:46.656250,36.93
10:03:46.671875,36.60
10:03:46.687500,35.52
10:03:46.703125,34.22
10:03:46.718750,33.09
10:03:46.734375,32.34
10:03:46.750000,31.95
10:03:46.765625,31.80
10:03:46.781250,31.74
10:03:46.796875,31.69
10:03:46.812500,31.64
10:03:46.828125,31.58
10:03:46.843750,31.45
10:03:46.859375,31.14
10:03:46.875000,30.46
10:03:46.890625,29.21
10:03:46.906250,27.29
10:03:46.921875,24.68
10:03:46.937500,21.51
10:03:46.953125,17.97
10:03:46.968750,14.32
10:03:46.984375,10.79
10:03:47,7.50
10:03:47.015625,4.49
10:03:47.031250,1.67
10:03:47.046875,-1.11
10:03:47.062500,-4.02
10:03:47.078125,-7.20
10:03:47.093750,-10.69
10:03:47.109375,-14.46
10:03:47.125000,-18.33
10:03:47.140625,-22.10
10:03:47.156250,-25.55
10:03:47.171875,-28.60
10:03:47.187500,-31.28
10:03:47.203125,-33.80
10:03:47.218750,-36.45
10:03:47.234375,-39.58
10:03:47.250000,-43.45
10:03:47.265625,-48.15
10:03:47.281250,-53.44
10:03:47.296875,-58.69
10:03:47.312500,-62.93
10:03:47.328125,-65.01
10:03:47.343750,-63.97
10:03:47.359375,-59.40
10:03:47.375000,-51.61
10:03:47.390625,-41.53
10:03:47.406250,-30.43
10:03:47.421875,-19.47
10:03:47.437500,-9.47
10:03:47.453125,-0.84
10:03:47.468750,6.30
10:03:47.484375,11.95
10:03:47.500000,16.10
10:03:47.515625,18.67
10:03:47.531250,19.72
10:03:47.546875,19.47
10:03:47.562500,18.23
10:03:47.578125,16.37
10:03:47.593750,14.17
10:03:47.609375,11.82
10:03:47.625000,9.41
10:03:47.640625,6.92
10:03:47.656250,4.30
10:03:47.671875,1.61
10:03:47.687500,-0.91
10:03:47.703125,-3.05
10:03:47.718750,-4.77
10:03:47.734375,-6.30
10:03:47.750000,-8.03
10:03:47.765625,-10.35
10:03:47.781250,-13.52
10:03:47.796875,-17.52
10:03:47.812500,-21.91
10:03:47.828125,-25.93
10:03:47.843750,-28.89
10:03:47.859375,-30.55
10:03:47.875000,-31.07
10:03:47.890625,-30.73
10:03:47.906250,-29.64
10:03:47.921875,-27.74
10:03:47.937500,-24.83
10:03:47.953125,-20.61
10:03:47.968750,-14.81
10:03:47.984375,-7.42
10:03:48,1.26
10:03:48.015625,10.82
10:03:48.031250,21.04
10:03:48.046875,31.84
10:03:48.062500,42.98
10:03:48.078125,52.70
10:03:48.093750,58.38
10:03:48.109375,58.47
10:03:48.125000,54.00
10:03:48.140625,47.68
10:03:48.156250,41.87
10:03:48.171875,37.42
10:03:48.187500,33.85
10:03:48.203125,30.18
10:03:48.218750,25.92
10:03:48.234375,21.63
10:03:48.250000,18.58
10:03:48.265625,17.83
10:03:48.281250,19.37
10:03:48.296875,22.06
10:03:48.312500,24.26
10:03:48.328125,24.79
10:03:48.343750,23.31
10:03:48.359375,20.42
10:03:48.375000,17.27
10:03:48.390625,14.94
10:03:48.406250,13.80
10:03:48.421875,13.46
10:03:48.437500,13.06
10:03:48.453125,11.89
10:03:48.468750,9.95
10:03:48.484375,7.33
10:03:48.500000,4.38
10:03:48.515625,1.51
10:03:48.531250,-1.05
10:03:48.546875,-3.28
10:03:48.562500,-5.29
10:03:48.578125,-7.17
10:03:48.593750,-8.85
10:03:48.609375,-10.17
10:03:48.625000,-10.99
10:03:48.640625,-11.35
10:03:48.656250,-11.37
10:03:48.671875,-11.18
10:03:48.687500,-10.78
10:03:48.703125,-10.14
10:03:48.718750,-9.29
10:03:48.734375,-8.41
10:03:48.750000,-7.76
10:03:48.765625,-7.52
10:03:48.781250,-7.59
10:03:48.796875,-7.66
10:03:48.812500,-7.34
10:03:48.828125,-6.44
10:03:48.843750,-5.21
10:03:48.859375,-3.80
10:03:48.875000,-2.75
10:03:48.890625,-2.42
10:03:48.906250,-2.87
10:03:48.921875,-3.78
10:03:48.937500,-4.74
10:03:48.953125,-5.58
10:03:48.968750,-6.44
10:03:48.984375,-7.76
10:03:49,-10.06
10:03:49.015625,-13.75
10:03:49.031250,-18.92
10:03:49.046875,-25.30
10:03:49.062500,-32.30
10:03:49.078125,-38.98
10:03:49.093750,-44.23
10:03:49.109375,-46.98
10:03:49.125000,-46.47
10:03:49.140625,-42.53
10:03:49.156250,-35.70
10:03:49.171875,-26.93
10:03:49.187500,-17.28
10:03:49.203125,-7.50
10:03:49.218750,2.08
10:03:49.234375,11.37
10:03:49.250000,20.33
10:03:49.265625,28.74
10:03:49.281250,36.25
10:03:49.296875,42.49
10:03:49.312500,47.28
10:03:49.328125,50.67
10:03:49.343750,52.80
10:03:49.359375,53.75
10:03:49.375000,53.44
10:03:49.390625,51.79
10:03:49.406250,48.83
10:03:49.421875,44.83
10:03:49.437500,40.30
10:03:49.453125,35.78
10:03:49.468750,31.69
10:03:49.484375,28.16
10:03:49.500000,25.10
10:03:49.515625,22.34
10:03:49.531250,19.71
10:03:49.546875,17.09
10:03:49.562500,14.37
10:03:49.578125,11.44
10:03:49.593750,8.11
10:03:49.609375,4.26
10:03:49.625000,-0.19
10:03:49.640625,-5.18
10:03:49.656250,-10.58
10:03:49.671875,-16.23
10:03:49.687500,-22.04
10:03:49.703125,-27.96
10:03:49.718750,-33.95
10:03:49.734375,-39.84
10:03:49.750000,-45.27
10:03:49.765625,-49.70
10:03:49.781250,-52.61
10:03:49.796875,-53.71
10:03:49.812500,-53.18
10:03:49.828125,-51.67
10:03:49.843750,-50.13
10:03:49.859375,-49.41
10:03:49.875000,-49.91
10:03:49.890625,-51.26
10:03:49.906250,-52.41
10:03:49.921875,-51.88
10:03:49.937500,-48.32
10:03:49.953125,-40.91
10:03:49.968750,-29.67
10:03:49.984375,-15.47
10:03:50,0.21
10:03:50.015625,15.65
10:03:50.031250,29.28
10:03:50.046875,39.87
10:03:50.062500,46.75
10:03:50.078125,49.83
10:03:50.093750,49.53
10:03:50.109375,46.70
10:03:50.125000,42.52
10:03:50.140625,38.20
10:03:50.156250,34.68
10:03:50.171875,32.46
10:03:50.187500,31.44
10:03:50.203125,31.15
10:03:50.218750,31.00
10:03:50.234375,30.65
10:03:50.250000,30.09
10:03:50.265625,29.56
10:03:50.281250,29.26
10:03:50.296875,29.20
10:03:50.312500,29.10
10:03:50.328125,28.61
10:03:50.343750,27.54
10:03:50.359375,26.05
10:03:50.375000,24.61
10:03:50.390625,23.84
10:03:50.406250,24.22
10:03:50.421875,25.88
10:03:50.437500,28.58
10:03:50.453125,31.74
10:03:50.468750,34.56
10:03:50.484375,36.17
10:03:50.500000,35.80
10:03:50.515625,32.86
10:03:50.531250,27.17
10:03:50.546875,19.05
10:03:50.562500,9.24
10:03:50.578125,-1.29
10:03:50.593750,-11.64
10:03:50.609375,-21.31
10:03:50.625000,-30.25
10:03:50.640625,-38.70
10:03:50.656250,-46.79
10:03:50.671875,-54.28
10:03:50.687500,-60.42
10:03:50.703125,-64.20
10:03:50.718750,-64.80
10:03:50.734375,-61.86
10:03:50.750000,-55.68
10:03:50.765625,-47.04
10:03:50.781250,-36.90
10:03:50.796875,-26.19
10:03:50.812500,-15.83
10:03:50.828125,-6.67
10:03:50.843750,0.54
10:03:50.859375,5.30
10:03:50.875000,7.64
10:03:50.890625,8.17
10:03:50.906250,7.87
10:03:50.921875,7.63
10:03:50.937500,7.90
10:03:50.953125,8.51
10:03:50.968750,8.92
10:03:50.984375,8.52
10:03:51,6.92
10:03:51.015625,3.99
10:03:51.031250,-0.22
10:03:51.046875,-5.51
10:03:51.062500,-11.45
10:03:51.078125,-17.19
10:03:51.093750,-21.56
10:03:51.109375,-23.40
10:03:51.125000,-22.10
10:03:51.140625,-18.12
10:03:51.156250,-12.90
10:03:51.171875,-8.33
10:03:51.187500,-5.96
10:03:51.203125,-6.34
10:03:51.218750,-9.02
10:03:51.234375,-13.00
10:03:51.250000,-17.38
10:03:51.265625,-21.88
10:03:51.281250,-26.81
10:03:51.296875,-32.72
10:03:51.312500,-40.00
10:03:51.328125,-48.69
10:03:51.343750,-58.60
10:03:51.359375,-69.31
10:03:51.375000,-80.12
10:03:51.390625,-89.77
10:03:51.406250,-96.49
10:03:51.421875,-98.28
10:03:51.437500,-93.70
10:03:51.453125,-82.62
10:03:51.468750,-66.43
10:03:51.484375,-47.60
10:03:51.500000,-28.78
10:03:51.515625,-11.79
10:03:51.531250,2.76
10:03:51.546875,15.18
10:03:51.562500,26.09
10:03:51.578125,35.68
10:03:51.593750,43.57
10:03:51.609375,49.06
10:03:51.625000,51.72
10:03:51.640625,51.70
10:03:51.656250,49.86
10:03:51.671875,47.33
10:03:51.687500,45.00
10:03:51.703125,42.99
10:03:51.718750,40.54
10:03:51.734375,36.40
10:03:51.750000,29.68
10:03:51.765625,20.54
10:03:51.781250,10.48
10:03:51.796875,1.77
10:03:51.812500,-3.66
10:03:51.828125,-5.23
10:03:51.843750,-4.17
10:03:51.859375,-2.91
10:03:51.875000,-3.90
10:03:51.890625,-8.38
10:03:51.906250,-15.90
10:03:51.921875,-24.66
10:03:51.937500,-32.50
10:03:51.953125,-37.97
10:03:51.968750,-40.90
10:03:51.984375,-42.27
10:03:52,-43.67
10:03:52.015625,-46.55
10:03:52.031250,-51.69
10:03:52.046875,-59.02
10:03:52.062500,-67.62
10:03:52.078125,-75.94
10:03:52.093750,-82.18
10:03:52.109375,-84.70
10:03:52.125000,-82.39
10:03:52.140625,-74.99
10:03:52.156250,-63.20
10:03:52.171875,-48.39
10:03:52.187500,-32.22
10:03:52.203125,-16.08
10:03:52.218750,-0.80
10:03:52.234375,13.46
10:03:52.250000,26.93
10:03:52.265625,39.89
10:03:52.281250,52.45
10:03:52.296875,64.46
10:03:52.312500,75.66
10:03:52.328125,85.76
10:03:52.343750,94.42
10:03:52.359375,101.07
10:03:52.375000,104.85
10:03:52.390625,104.71
10:03:52.406250,99.83
10:03:52.421875,90.06
10:03:52.437500,76.18
10:03:52.453125,59.82
10:03:52.468750,43.05
10:03:52.484375,27.84
10:03:52.500000,15.61
10:03:52.515625,7.05
10:03:52.531250,2.16
10:03:52.546875,0.41
10:03:52.562500,0.92
10:03:52.578125,2.64
10:03:52.593750,4.57
10:03:52.609375,5.96
10:03:52.625000,6.41
10:03:52.640625,5.89
10:03:52.656250,4.56
10:03:52.671875,2.48
10:03:52.687500,-0.62
10:03:52.703125,-5.26
10:03:52.718750,-11.98
10:03:52.734375,-20.81
10:03:52.750000,-31.05
10:03:52.765625,-41.18
10:03:52.781250,-49.25
10:03:52.796875,-53.42
10:03:52.812500,-52.54
10:03:52.828125,-46.45
10:03:52.843750,-35.93
10:03:52.859375,-22.38
10:03:52.875000,-7.37
10:03:52.890625,7.66
10:03:52.906250,21.64
10:03:52.921875,33.85
10:03:52.937500,43.89
10:03:52.953125,51.61
10:03:52.968750,57.02
10:03:52.984375,60.29
10:03:53,61.71
10:03:53.015625,61.68
10:03:53.031250,60.62
10:03:53.046875,58.96
10:03:53.062500,57.01
10:03:53.078125,54.99
10:03:53.093750,53.00
10:03:53.109375,51.13
10:03:53.125000,49.46
10:03:53.140625,48.15
10:03:53.156250,47.31
10:03:53.171875,46.92
10:03:53.187500,46.76
10:03:53.203125,46.27
10:03:53.218750,44.83
10:03:53.234375,41.87
10:03:53.250000,37.14
10:03:53.265625,30.80
10:03:53.281250,23.32
10:03:53.296875,15.33
10:03:53.312500,7.29
10:03:53.328125,-0.53
10:03:53.343750,-8.22
10:03:53.359375,-16.10
10:03:53.375000,-24.61
10:03:53.390625,-34.10
10:03:53.406250,-44.66
10:03:53.421875,-55.87
10:03:53.437500,-66.76
10:03:53.453125,-75.92
10:03:53.468750,-81.73
10:03:53.484375,-82.82
10:03:53.500000,-78.46
10:03:53.515625,-68.85
10:03:53.531250,-55.15
10:03:53.546875,-39.12
10:03:53.562500,-22.75
10:03:53.578125,-7.67
10:03:53.593750,5.11
10:03:53.609375,15.34
10:03:53.625000,23.35
10:03:53.640625,29.72
10:03:53.656250,34.95
10:03:53.671875,39.19
10:03:53.687500,42.31
10:03:53.703125,43.99
10:03:53.718750,44.04
10:03:53.734375,42.59
10:03:53.750000,40.15
10:03:53.765625,37.43
10:03:53.781250,35.12
10:03:53.796875,33.63
10:03:53.812500,33.02
10:03:53.828125,33.09
10:03:53.843750,33.51
10:03:53.859375,34.01
10:03:53.875000,34.39
10:03:53.890625,34.49
10:03:53.906250,34.15
10:03:53.921875,33.12
10:03:53.937500,31.24
10:03:53.953125,28.50
10:03:53.968750,25.06
10:03:53.984375,21.22
10:03:54,17.23
10:03:54.015625,13.14
10:03:54.031250,8.83
10:03:54.046875,4.06
10:03:54.062500,-1.28
10:03:54.078125,-7.05
10:03:54.093750,-12.88
10:03:54.109375,-18.27
10:03:54.125000,-22.90
10:03:54.140625,-26.72
10:03:54.156250,-30.10
10:03:54.171875,-33.67
10:03:54.187500,-38.13
10:03:54.203125,-44.06
10:03:54.218750,-51.66
10:03:54.234375,-60.60
10:03:54.250000,-69.98
10:03:54.265625,-78.31
10:03:54.281250,-83.81
10:03:54.296875,-84.77
10:03:54.312500,-80.08
10:03:54.328125,-69.62
10:03:54.343750,-54.43
10:03:54.359375,-36.44
10:03:54.375000,-17.91
10:03:54.390625,-0.79
10:03:54.406250,13.74
10:03:54.421875,25.43
10:03:54.437500,34.66
10:03:54.453125,42.06
10:03:54.468750,48.10
10:03:54.484375,52.90
10:03:54.500000,56.37
10:03:54.515625,58.34
10:03:54.531250,58.90
10:03:54.546875,58.36
10:03:54.562500,57.17
10:03:54.578125,55.65
10:03:54.593750,53.86
10:03:54.609375,51.64
10:03:54.625000,48.82
10:03:54.640625,45.50
10:03:54.656250,42.09
10:03:54.671875,39.19
10:03:54.687500,37.19
10:03:54.703125,36.00
10:03:54.718750,35.08
10:03:54.734375,33.66
10:03:54.750000,31.15
10:03:54.765625,27.45
10:03:54.781250,22.95
10:03:54.796875,18.29
10:03:54.812500,13.98
10:03:54.828125,10.25
10:03:54.843750,6.98
10:03:54.859375,3.92
10:03:54.875000,0.91
10:03:54.890625,-2.04
10:03:54.906250,-4.73
10:03:54.921875,-7.00
10:03:54.937500,-8.77
10:03:54.953125,-10.15
10:03:54.968750,-11.47
10:03:54.984375,-13.11
10:03:55,-15.42
10:03:55.015625,-18.49
10:03:55.031250,-22.13
10:03:55.046875,-25.89
10:03:55.062500,-29.22
10:03:55.078125,-31.71
10:03:55.093750,-33.29
10:03:55.109375,-34.32
10:03:55.125000,-35.45
10:03:55.140625,-37.46
10:03:55.156250,-41.00
10:03:55.171875,-46.36
10:03:55.187500,-53.34
10:03:55.203125,-61.18
10:03:55.218750,-68.56
10:03:55.234375,-73.79
10:03:55.250000,-75.25
10:03:55.265625,-71.82
10:03:55.281250,-63.29
10:03:55.296875,-50.57
10:03:55.312500,-35.41
10:03:55.328125,-19.85
10:03:55.343750,-5.57
10:03:55.359375,6.47
10:03:55.375000,16.14
10:03:55.390625,23.75
10:03:55.406250,29.68
10:03:55.421875,34.03
10:03:55.437500,36.64
10:03:55.453125,37.32
10:03:55.468750,36.11
10:03:55.484375,33.42
10:03:55.500000,29.95
10:03:55.515625,26.44
10:03:55.531250,23.48
10:03:55.546875,21.31
10:03:55.562500,19.91
10:03:55.578125,19.14
10:03:55.593750,18.85
10:03:55.609375,19.01
10:03:55.625000,19.63
10:03:55.640625,20.66
10:03:55.656250,21.83
10:03:55.671875,22.66
10:03:55.687500,22.60
10:03:55.703125,21.24
10:03:55.718750,18.50
10:03:55.734375,14.71
10:03:55.750000,10.53
10:03:55.765625,6.68
10:03:55.781250,3.77
10:03:55.796875,2.12
10:03:55.812500,1.71
10:03:55.828125,2.31
10:03:55.843750,3.52
10:03:55.859375,4.86
10:03:55.875000,5.86
10:03:55.890625,6.15
10:03:55.906250,5.54
10:03:55.921875,4.12
10:03:55.937500,2.19
10:03:55.953125,0.11
10:03:55.968750,-1.87
10:03:55.984375,-3.79
10:03:56,-5.94
10:03:56.015625,-8.79
10:03:56.031250,-12.77
10:03:56.046875,-18.08
10:03:56.062500,-24.64
10:03:56.078125,-31.98
10:03:56.093750,-39.43
10:03:56.109375,-46.17
10:03:56.125000,-51.40
10:03:56.140625,-54.53
10:03:56.156250,-55.18
10:03:56.171875,-53.28
10:03:56.187500,-48.97
10:03:56.203125,-42.58
10:03:56.218750,-34.53
10:03:56.234375,-25.34
10:03:56.250000,-15.63
10:03:56.265625,-6.01
10:03:56.281250,2.91
10:03:56.296875,10.71
10:03:56.312500,17.07
10:03:56.328125,21.91
10:03:56.343750,25.23
10:03:56.359375,27.18
10:03:56.375000,27.96
10:03:56.390625,27.91
10:03:56.406250,27.46
10:03:56.421875,27.11
10:03:56.437500,27.34
10:03:56.453125,28.44
10:03:56.468750,30.43
10:03:56.484375,33.02
10:03:56.500000,35.75
10:03:56.515625,38.10
10:03:56.531250,39.74
10:03:56.546875,40.58
10:03:56.562500,40.73
10:03:56.578125,40.39
10:03:56.593750,39.68
10:03:56.609375,38.59
10:03:56.625000,36.94
10:03:56.640625,34.62
10:03:56.656250,31.61
10:03:56.671875,28.09
10:03:56.687500,24.39
10:03:56.703125,20.83
10:03:56.718750,17.63
10:03:56.734375,14.87
10:03:56.750000,12.46
10:03:56.765625,10.23
10:03:56.781250,7.97
10:03:56.796875,5.46
10:03:56.812500,2.51
10:03:56.828125,-0.92
10:03:56.843750,-4.75
10:03:56.859375,-8.67
10:03:56.875000,-12.35
10:03:56.890625,-15.54
10:03:56.906250,-18.24
10:03:56.921875,-20.82
10:03:56.937500,-23.86
10:03:56.953125,-28.03
10:03:56.968750,-33.85
10:03:56.984375,-41.55
10:03:57,-50.90
10:03:57.015625,-61.24
10:03:57.031250,-71.45
10:03:57.046875,-80.11
10:03:57.062500,-85.85
10:03:57.078125,-87.68
10:03:57.093750,-85.39
10:03:57.109375,-79.61
10:03:57.125000,-71.58
10:03:57.140625,-62.67
10:03:57.156250,-53.93
10:03:57.171875,-45.82
10:03:57.187500,-38.37
10:03:57.203125,-31.48
10:03:57.218750,-25.23
10:03:57.234375,-19.90
10:03:57.250000,-15.84
10:03:57.265625,-13.12
10:03:57.281250,-11.46
10:03:57.296875,-10.23
10:03:57.312500,-8.72
10:03:57.328125,-6.34
10:03:57.343750,-2.73
10:03:57.359375,2.20
10:03:57.375000,8.24
10:03:57.390625,14.95
10:03:57.406250,21.68
10:03:57.421875,27.67
10:03:57.437500,32.25
10:03:57.453125,35.11
10:03:57.468750,36.39
10:03:57.484375,36.58
10:03:57.500000,36.35
10:03:57.515625,36.18
10:03:57.531250,36.20
10:03:57.546875,36.22
