13:05:55,-0.00
13:05:55.015625,-0.00
13:05:55.031250,-0.00
13:05:55.046875,-0.00
13:05:55.062500,-0.00
13:05:55.078125,-0.00
13:05:55.093750,-0.00
13:05:55.109375,-0.00
13:05:55.125000,-0.00
13:05:55.140625,-0.01
13:05:55.156250,-0.00
13:05:55.171875,0.00
13:05:55.187500,0.01
13:05:55.203125,0.01
13:05:55.218750,-0.00
13:05:55.234375,-0.03
13:05:55.250000,-0.05
13:05:55.265625,-0.05
13:05:55.281250,-0.00
13:05:55.296875,0.13
13:05:55.312500,0.36
13:05:55.328125,0.66
13:05:55.343750,1.01
13:05:55.359375,1.37
13:05:55.375000,1.72
13:05:55.390625,2.06
13:05:55.406250,2.40
13:05:55.421875,2.77
13:05:55.437500,3.24
13:05:55.453125,3.80
13:05:55.468750,4.42
13:05:55.484375,5.06
13:05:55.500000,5.66
13:05:55.515625,6.20
13:05:55.531250,6.68
13:05:55.546875,7.15
13:05:55.562500,7.64
13:05:55.578125,8.31
13:05:55.593750,9.14
13:05:55.609375,10.09
13:05:55.625000,11.04
13:05:55.640625,11.88
13:05:55.656250,12.56
13:05:55.671875,13.14
13:05:55.687500,13.76
13:05:55.703125,14.58
13:05:55.718750,15.96
13:05:55.734375,17.91
13:05:55.750000,20.32
13:05:55.765625,22.90
13:05:55.781250,25.38
13:05:55.796875,27.58
13:05:55.812500,29.57
13:05:55.828125,31.68
13:05:55.843750,34.20
13:05:55.859375,37.81
13:05:55.875000,42.54
13:05:55.890625,48.15
13:05:55.906250,54.10
13:05:55.921875,59.83
13:05:55.937500,64.97
13:05:55.953125,69.58
13:05:55.968750,74.14
13:05:55.984375,79.19
13:05:56,85.71
13:05:56.015625,93.76
13:05:56.031250,103.00
13:05:56.046875,112.62
13:05:56.062500,121.73
13:05:56.078125,129.77
13:05:56.093750,136.75
13:05:56.109375,144.29
13:05:56.125000,150.58
13:05:56.140625,157.77
13:05:56.156250,166.64
13:05:56.171875,177.95
13:05:56.187500,191.79
13:05:56.203125,206.97
13:05:56.218750,220.57
13:05:56.234375,228.25
13:05:56.250000,225.36
13:05:56.265625,208.37
13:05:56.281250,176.87
13:05:56.296875,132.76
13:05:56.312500,80.05
13:05:56.328125,23.07
13:05:56.343750,-34.94
13:05:56.359375,-92.44
13:05:56.375000,-149.16
13:05:56.390625,-205.23
13:05:56.406250,-260.49
13:05:56.421875,-313.74
13:05:56.437500,-363.87
13:05:56.453125,-409.83
13:05:56.468750,-450.91
13:05:56.484375,-486.50
13:05:56.500000,-515.74
13:05:56.515625,-537.23
13:05:56.531250,-549.22
13:05:56.546875,-550.04
13:05:56.562500,-538.37
13:05:56.578125,-514.20
13:05:56.593750,-478.67
13:05:56.609375,-433.88
13:05:56.625000,-382.45
13:05:56.640625,-327.02
13:05:56.656250,-269.84
13:05:56.671875,-212.63
13:05:56.687500,-156.70
13:05:56.703125,-102.95
13:05:56.718750,-52.37
13:05:56.734375,-5.90
13:05:56.750000,35.58
13:05:56.765625,71.43
13:05:56.781250,101.35
13:05:56.796875,125.50
13:05:56.812500,144.38
13:05:56.828125,158.68
13:05:56.843750,169.15
13:05:56.859375,176.37
13:05:56.875000,180.75
13:05:56.890625,182.57
13:05:56.906250,182.07
13:05:56.921875,179.51
13:05:56.937500,175.23
13:05:56.953125,169.65
13:05:56.968750,163.18
13:05:56.984375,156.15
13:05:57,148.81
13:05:57.015625,141.30
13:05:57.031250,133.69
13:05:57.046875,126.02
13:05:57.062500,118.33
13:05:57.078125,110.69
13:05:57.093750,103.16
13:05:57.109375,95.80
13:05:57.125000,88.68
13:05:57.140625,81.83
13:05:57.156250,75.25
13:05:57.171875,68.95
13:05:57.187500,62.95
13:05:57.203125,57.25
13:05:57.218750,51.86
13:05:57.234375,46.78
13:05:57.250000,42.03
13:05:57.265625,37.59
13:05:57.281250,33.45
13:05:57.296875,29.61
13:05:57.312500,26.07
13:05:57.328125,22.81
13:05:57.343750,19.82
13:05:57.359375,17.11
13:05:57.375000,14.67
13:05:57.390625,12.48
13:05:57.406250,10.54
13:05:57.421875,8.83
13:05:57.437500,7.35
13:05:57.453125,6.07
13:05:57.468750,4.97
13:05:57.484375,4.05
13:05:57.500000,3.27
13:05:57.515625,2.62
13:05:57.531250,2.09
13:05:57.546875,1.65
13:05:57.562500,1.30
13:05:57.578125,1.01
13:05:57.593750,0.79
13:05:57.609375,0.61
13:05:57.625000,0.47
13:05:57.640625,0.37
13:05:57.656250,0.29
13:05:57.671875,0.23
13:05:57.687500,0.19
13:05:57.703125,0.16
13:05:57.718750,0.15
13:05:57.734375,0.14
13:05:57.750000,0.15
13:05:57.765625,0.17
13:05:57.781250,0.19
13:05:57.796875,0.22
13:05:57.812500,0.25
13:05:57.828125,0.29
13:05:57.843750,0.33
13:05:57.859375,0.37
13:05:57.875000,0.41
13:05:57.890625,0.46
13:05:57.906250,0.51
13:05:57.921875,0.56
13:05:57.937500,0.61
13:05:57.953125,0.66
13:05:57.968750,0.72
13:05:57.984375,0.78
13:05:58,0.85
13:05:58.015625,0.92
13:05:58.031250,1.00
13:05:58.046875,1.09
13:05:58.062500,1.18
13:05:58.078125,1.29
13:05:58.093750,1.41
13:05:58.109375,1.55
13:05:58.125000,1.70
13:05:58.140625,1.87
13:05:58.156250,2.07
13:05:58.171875,2.28
13:05:58.187500,2.51
13:05:58.203125,2.77
13:05:58.218750,3.06
13:05:58.234375,3.38
13:05:58.250000,3.73
13:05:58.265625,4.11
13:05:58.281250,4.52
13:05:58.296875,4.97
13:05:58.312500,5.46
13:05:58.328125,5.98
13:05:58.343750,6.54
13:05:58.359375,7.15
13:05:58.375000,7.80
13:05:58.390625,8.49
13:05:58.406250,9.23
13:05:58.421875,10.01
13:05:58.437500,10.83
13:05:58.453125,11.71
13:05:58.468750,12.62
13:05:58.484375,13.59
13:05:58.500000,14.61
13:05:58.515625,15.70
13:05:58.531250,16.85
13:05:58.546875,18.06
13:05:58.562500,19.32
13:05:58.578125,20.61
13:05:58.593750,21.86
13:05:58.609375,23.03
13:05:58.625000,24.02
13:05:58.640625,24.71
13:05:58.656250,24.99
13:05:58.671875,24.72
13:05:58.687500,23.82
13:05:58.703125,22.21
13:05:58.718750,19.88
13:05:58.734375,16.85
13:05:58.750000,13.19
13:05:58.765625,9.04
13:05:58.781250,4.60
13:05:58.796875,0.05
13:05:58.812500,-4.38
13:05:58.828125,-8.47
13:05:58.843750,-12.05
13:05:58.859375,-14.98
13:05:58.875000,-17.18
13:05:58.890625,-18.65
13:05:58.906250,-19.42
13:05:58.921875,-19.60
13:05:58.937500,-19.27
13:05:58.953125,-18.55
13:05:58.968750,-17.50
13:05:58.984375,-16.19
13:05:59,-14.70
13:05:59.015625,-13.06
13:05:59.031250,-11.37
13:05:59.046875,-9.66
13:05:59.062500,-7.98
13:05:59.078125,-6.40
13:05:59.093750,-4.87
13:05:59.109375,-3.35
13:05:59.125000,-1.78
13:05:59.140625,-0.12
13:05:59.156250,1.65
13:05:59.171875,3.48
13:05:59.187500,5.38
13:05:59.203125,7.21
13:05:59.218750,8.91
13:05:59.234375,10.55
13:05:59.250000,12.23
13:05:59.265625,14.09
13:05:59.281250,16.20
13:05:59.296875,18.55
13:05:59.312500,21.04
13:05:59.328125,23.60
13:05:59.343750,25.88
13:05:59.359375,27.76
13:05:59.375000,29.37
13:05:59.390625,30.97
13:05:59.406250,32.85
13:05:59.421875,35.19
13:05:59.437500,37.94
13:05:59.453125,40.87
13:05:59.468750,43.76
13:05:59.484375,45.97
13:05:59.500000,47.30
13:05:59.515625,47.98
13:05:59.531250,48.50
13:05:59.546875,49.37
13:05:59.562500,50.87
13:05:59.578125,52.84
13:05:59.593750,54.77
13:05:59.609375,56.09
13:05:59.625000,55.73
13:05:59.640625,53.26
13:05:59.656250,48.84
13:05:59.671875,42.93
13:05:59.687500,35.91
13:05:59.703125,27.62
13:05:59.718750,17.01
13:05:59.734375,1.90
13:05:59.750000,-15.72
13:05:59.765625,-36.04
13:05:59.781250,-59.44
13:05:59.796875,-86.18
13:05:59.812500,-115.96
13:05:59.828125,-147.45
13:05:59.843750,-178.01
13:05:59.859375,-203.96
13:05:59.875000,-221.54
13:05:59.890625,-228.19
13:05:59.906250,-224.30
13:05:59.921875,-212.35
13:05:59.937500,-196.00
13:05:59.953125,-178.64
13:05:59.968750,-162.12
13:05:59.984375,-146.41
13:06:00,-130.37
13:06:00.015625,-112.84
13:06:00.031250,-93.49
13:06:00.046875,-73.48
13:06:00.062500,-54.27
13:06:00.078125,-36.89
13:06:00.093750,-21.57
13:06:00.109375,-7.88
13:06:00.125000,4.81
13:06:00.140625,16.87
13:06:00.156250,28.21
13:06:00.171875,38.41
13:06:00.187500,46.73
13:06:00.203125,52.92
13:06:00.218750,57.20
13:06:00.234375,60.15
13:06:00.250000,62.43
13:06:00.265625,64.45
13:06:00.281250,66.30
13:06:00.296875,67.73
13:06:00.312500,68.47
13:06:00.328125,68.23
13:06:00.343750,67.04
13:06:00.359375,65.28
13:06:00.375000,63.44
13:06:00.390625,61.95
13:06:00.406250,61.03
13:06:00.421875,60.58
13:06:00.437500,60.24
13:06:00.453125,59.56
13:06:00.468750,58.10
13:06:00.484375,55.66
13:06:00.500000,52.40
13:06:00.515625,48.70
13:06:00.531250,45.01
13:06:00.546875,41.68
13:06:00.562500,38.77
13:06:00.578125,36.14
13:06:00.593750,33.50
13:06:00.609375,30.61
13:06:00.625000,27.46
13:06:00.640625,24.19
13:06:00.656250,21.05
13:06:00.671875,18.25
13:06:00.687500,15.83
13:06:00.703125,13.63
13:06:00.718750,11.37
13:06:00.734375,8.85
13:06:00.750000,6.07
13:06:00.765625,3.21
13:06:00.781250,0.53
13:06:00.796875,-1.82
13:06:00.812500,-3.92
13:06:00.828125,-6.03
13:06:00.843750,-8.50
13:06:00.859375,-11.55
13:06:00.875000,-15.14
13:06:00.890625,-18.98
13:06:00.906250,-22.65
13:06:00.921875,-25.80
13:06:00.937500,-28.28
13:06:00.953125,-30.24
13:06:00.968750,-32.05
13:06:00.984375,-34.19
13:06:01,-37.07
13:06:01.015625,-40.93
13:06:01.031250,-45.74
13:06:01.046875,-51.16
13:06:01.062500,-56.57
13:06:01.078125,-61.09
13:06:01.093750,-63.80
13:06:01.109375,-63.85
13:06:01.125000,-60.75
13:06:01.140625,-54.46
13:06:01.156250,-45.50
13:06:01.171875,-34.77
13:06:01.187500,-23.35
13:06:01.203125,-12.23
13:06:01.218750,-2.05
13:06:01.234375,6.85
13:06:01.250000,14.44
13:06:01.265625,20.78
13:06:01.281250,25.91
13:06:01.296875,29.88
13:06:01.312500,32.78
13:06:01.328125,34.88
13:06:01.343750,36.62
13:06:01.359375,38.53
13:06:01.375000,41.08
13:06:01.390625,44.49
13:06:01.406250,48.67
13:06:01.421875,53.29
13:06:01.437500,57.96
13:06:01.453125,62.45
13:06:01.468750,66.72
13:06:01.484375,71.00
13:06:01.500000,75.47
13:06:01.515625,80.17
13:06:01.531250,84.78
13:06:01.546875,88.71
13:06:01.562500,91.32
13:06:01.578125,92.20
13:06:01.593750,91.31
13:06:01.609375,88.98
13:06:01.625000,85.73
13:06:01.640625,81.93
13:06:01.656250,77.70
13:06:01.671875,72.92
13:06:01.687500,67.42
13:06:01.703125,61.20
13:06:01.718750,54.47
13:06:01.734375,47.54
13:06:01.750000,40.67
13:06:01.765625,33.96
13:06:01.781250,27.36
13:06:01.796875,20.87
13:06:01.812500,14.68
13:06:01.828125,9.21
13:06:01.843750,4.98
13:06:01.859375,2.40
13:06:01.875000,1.69
13:06:01.890625,2.73
13:06:01.906250,5.26
13:06:01.921875,8.83
13:06:01.937500,12.93
13:06:01.953125,17.05
13:06:01.968750,20.71
13:06:01.984375,23.67
13:06:02,25.98
13:06:02.015625,28.02
13:06:02.031250,30.29
13:06:02.046875,33.20
13:06:02.062500,36.83
13:06:02.078125,40.86
13:06:02.093750,44.72
13:06:02.109375,47.90
13:06:02.125000,50.27
13:06:02.140625,52.25
13:06:02.156250,54.75
13:06:02.171875,58.81
13:06:02.187500,65.17
13:06:02.203125,73.96
13:06:02.218750,84.52
13:06:02.234375,95.57
13:06:02.250000,105.67
13:06:02.265625,113.68
13:06:02.281250,119.11
13:06:02.296875,122.07
13:06:02.312500,123.00
13:06:02.328125,122.22
13:06:02.343750,119.65
13:06:02.359375,114.81
13:06:02.375000,107.14
13:06:02.390625,96.39
13:06:02.406250,82.76
13:06:02.421875,66.83
13:06:02.437500,49.25
13:06:02.453125,30.43
13:06:02.468750,10.32
13:06:02.484375,-11.41
13:06:02.500000,-35.16
13:06:02.515625,-61.31
13:06:02.531250,-90.16
13:06:02.546875,-121.93
13:06:02.562500,-156.55
13:06:02.578125,-193.17
13:06:02.593750,-229.65
13:06:02.609375,-262.52
13:06:02.625000,-287.56
13:06:02.640625,-301.12
13:06:02.656250,-301.43
13:06:02.671875,-289.36
13:06:02.687500,-268.20
13:06:02.703125,-242.44
13:06:02.718750,-216.28
13:06:02.734375,-192.51
13:06:02.750000,-172.15
13:06:02.765625,-155.03
13:06:02.781250,-140.58
13:06:02.796875,-128.40
13:06:02.812500,-118.35
13:06:02.828125,-110.16
13:06:02.843750,-103.04
13:06:02.859375,-95.72
13:06:02.875000,-86.82
13:06:02.890625,-75.50
13:06:02.906250,-61.80
13:06:02.921875,-46.73
13:06:02.937500,-31.68
13:06:02.953125,-17.80
13:06:02.968750,-5.59
13:06:02.984375,5.11
13:06:03,14.79
13:06:03.015625,23.76
13:06:03.031250,31.95
13:06:03.046875,38.92
13:06:03.062500,44.15
13:06:03.078125,47.30
13:06:03.093750,48.29
13:06:03.109375,47.29
13:06:03.125000,44.62
13:06:03.140625,40.72
13:06:03.156250,36.09
13:06:03.171875,31.25
13:06:03.187500,26.54
13:06:03.203125,22.12
13:06:03.218750,17.86
13:06:03.234375,13.50
13:06:03.250000,8.71
13:06:03.265625,3.30
13:06:03.281250,-2.78
13:06:03.296875,-9.38
13:06:03.312500,-16.14
13:06:03.328125,-22.53
13:06:03.343750,-27.82
13:06:03.359375,-31.31
13:06:03.375000,-32.51
13:06:03.390625,-31.35
13:06:03.406250,-28.18
13:06:03.421875,-23.62
13:06:03.437500,-18.23
13:06:03.453125,-12.30
13:06:03.468750,-5.83
13:06:03.484375,1.27
13:06:03.500000,8.98
13:06:03.515625,17.01
13:06:03.531250,24.86
13:06:03.546875,32.02
13:06:03.562500,38.11
13:06:03.578125,43.04
13:06:03.593750,47.00
13:06:03.609375,50.27
13:06:03.625000,53.12
13:06:03.640625,55.66
13:06:03.656250,57.83
13:06:03.671875,59.43
13:06:03.687500,60.19
13:06:03.703125,59.93
13:06:03.718750,58.68
13:06:03.734375,56.69
13:06:03.750000,54.36
13:06:03.765625,52.05
13:06:03.781250,50.04
13:06:03.796875,48.45
13:06:03.812500,47.26
13:06:03.828125,46.39
13:06:03.843750,45.69
13:06:03.859375,44.86
13:06:03.875000,43.46
13:06:03.890625,40.85
13:06:03.906250,36.49
13:06:03.921875,29.99
13:06:03.937500,21.41
13:06:03.953125,11.20
13:06:03.968750,-0.03
13:06:03.984375,-11.66
13:06:04,-23.29
13:06:04.015625,-34.66
13:06:04.031250,-45.52
13:06:04.046875,-55.47
13:06:04.062500,-63.99
13:06:04.078125,-70.44
13:06:04.093750,-74.31
13:06:04.109375,-75.28
13:06:04.125000,-73.29
13:06:04.140625,-68.46
13:06:04.156250,-61.10
13:06:04.171875,-51.61
13:06:04.187500,-40.48
13:06:04.203125,-28.27
13:06:04.218750,-15.59
13:06:04.234375,-2.98
13:06:04.250000,9.11
13:06:04.265625,20.38
13:06:04.281250,30.62
13:06:04.296875,39.65
13:06:04.312500,47.26
13:06:04.328125,53.27
13:06:04.343750,57.52
13:06:04.359375,60.08
13:06:04.375000,61.13
13:06:04.390625,60.92
13:06:04.406250,59.71
13:06:04.421875,57.59
13:06:04.437500,54.57
13:06:04.453125,50.54
13:06:04.468750,45.35
13:06:04.484375,38.75
13:06:04.500000,30.36
13:06:04.515625,19.58
13:06:04.531250,5.90
13:06:04.546875,-10.96
13:06:04.562500,-30.67
13:06:04.578125,-52.18
13:06:04.593750,-73.92
13:06:04.609375,-94.15
13:06:04.625000,-111.44
13:06:04.640625,-124.98
13:06:04.656250,-134.61
13:06:04.671875,-140.67
13:06:04.687500,-143.73
13:06:04.703125,-144.23
13:06:04.718750,-142.38
13:06:04.734375,-138.10
13:06:04.750000,-131.16
13:06:04.765625,-121.42
13:06:04.781250,-108.99
13:06:04.796875,-94.36
13:06:04.812500,-78.38
13:06:04.828125,-62.07
13:06:04.843750,-46.36
13:06:04.859375,-31.89
13:06:04.875000,-18.95
13:06:04.890625,-7.60
13:06:04.906250,2.22
13:06:04.921875,10.52
13:06:04.937500,17.28
13:06:04.953125,22.56
13:06:04.968750,26.61
13:06:04.984375,29.89
13:06:05,32.98
13:06:05.015625,36.24
13:06:05.031250,39.70
13:06:05.046875,42.97
13:06:05.062500,45.43
13:06:05.078125,46.54
13:06:05.093750,46.22
13:06:05.109375,44.88
13:06:05.125000,43.32
13:06:05.140625,42.28
13:06:05.156250,42.03
13:06:05.171875,42.26
13:06:05.187500,42.16
13:06:05.203125,40.70
13:06:05.218750,37.07
13:06:05.234375,30.87
13:06:05.250000,22.13
13:06:05.265625,11.18
13:06:05.281250,-1.57
13:06:05.296875,-15.63
13:06:05.312500,-30.52
13:06:05.328125,-45.66
13:06:05.343750,-60.57
13:06:05.359375,-74.96
13:06:05.375000,-88.93
13:06:05.390625,-102.87
13:06:05.406250,-117.31
13:06:05.421875,-132.52
13:06:05.437500,-148.18
13:06:05.453125,-163.48
13:06:05.468750,-177.24
13:06:05.484375,-188.32
13:06:05.500000,-195.87
13:06:05.515625,-199.42
13:06:05.531250,-198.65
13:06:05.546875,-193.36
13:06:05.562500,-183.45
13:06:05.578125,-169.02
13:06:05.593750,-150.60
13:06:05.609375,-129.26
13:06:05.625000,-106.53
13:06:05.640625,-84.15
13:06:05.656250,-63.80
13:06:05.671875,-46.69
13:06:05.687500,-33.25
13:06:05.703125,-23.02
13:06:05.718750,-14.67
13:06:05.734375,-6.45
13:06:05.750000,3.25
13:06:05.765625,15.23
13:06:05.781250,29.03
13:06:05.796875,42.98
13:06:05.812500,54.67
13:06:05.828125,61.70
13:06:05.843750,62.23
13:06:05.859375,55.48
13:06:05.875000,41.87
13:06:05.890625,23.23
13:06:05.906250,2.67
13:06:05.921875,-15.59
13:06:05.937500,-27.04
13:06:05.953125,-27.95
13:06:05.968750,-16.38
13:06:05.984375,7.42
13:06:06,41.40
13:06:06.015625,82.70
13:06:06.031250,128.47
13:06:06.046875,176.16
13:06:06.062500,223.06
13:06:06.078125,265.88
13:06:06.093750,300.71
13:06:06.109375,323.89
13:06:06.125000,333.31
13:06:06.140625,329.23
13:06:06.156250,314.27
13:06:06.171875,292.31
13:06:06.187500,267.01
13:06:06.203125,240.77
13:06:06.218750,214.56
13:06:06.234375,188.50
13:06:06.250000,162.60
13:06:06.265625,137.11
13:06:06.281250,112.52
13:06:06.296875,89.07
13:06:06.312500,66.54
13:06:06.328125,44.16
13:06:06.343750,20.94
13:06:06.359375,-3.82
13:06:06.375000,-30.18
13:06:06.390625,-57.23
13:06:06.406250,-83.23
13:06:06.421875,-106.13
13:06:06.437500,-124.25
13:06:06.453125,-136.87
13:06:06.468750,-144.44
13:06:06.484375,-148.15
13:06:06.500000,-149.05
13:06:06.515625,-147.41
13:06:06.531250,-142.56
13:06:06.546875,-133.52
13:06:06.562500,-120.02
13:06:06.578125,-103.15
13:06:06.593750,-85.25
13:06:06.609375,-68.87
13:06:06.625000,-55.75
13:06:06.640625,-45.88
13:06:06.656250,-37.80
13:06:06.671875,-29.49
13:06:06.687500,-19.59
13:06:06.703125,-8.08
13:06:06.718750,3.83
13:06:06.734375,14.36
13:06:06.750000,22.19
13:06:06.765625,26.88
13:06:06.781250,28.98
13:06:06.796875,29.47
13:06:06.812500,29.33
13:06:06.828125,29.10
13:06:06.843750,28.95
13:06:06.859375,28.85
13:06:06.875000,28.83
13:06:06.890625,29.12
13:06:06.906250,29.99
13:06:06.921875,31.54
13:06:06.937500,33.49
13:06:06.953125,35.20
13:06:06.968750,35.81
13:06:06.984375,34.60
13:06:07,31.24
13:06:07.015625,25.96
13:06:07.031250,19.43
13:06:07.046875,12.54
13:06:07.062500,6.12
13:06:07.078125,0.73
13:06:07.093750,-3.43
13:06:07.109375,-6.42
13:06:07.125000,-8.47
13:06:07.140625,-9.94
13:06:07.156250,-11.17
13:06:07.171875,-12.36
13:06:07.187500,-13.63
13:06:07.203125,-14.88
13:06:07.218750,-15.93
13:06:07.234375,-16.53
13:06:07.250000,-16.53
13:06:07.265625,-15.86
13:06:07.281250,-14.54
13:06:07.296875,-12.64
13:06:07.312500,-10.19
13:06:07.328125,-7.30
13:06:07.343750,-4.11
13:06:07.359375,-0.86
13:06:07.375000,2.11
13:06:07.390625,4.49
13:06:07.406250,6.15
13:06:07.421875,7.07
13:06:07.437500,7.40
13:06:07.453125,7.37
13:06:07.468750,7.16
13:06:07.484375,6.88
13:06:07.500000,6.57
13:06:07.515625,6.26
13:06:07.531250,5.94
13:06:07.546875,5.55
13:06:07.562500,4.92
13:06:07.578125,3.91
13:06:07.593750,2.34
13:06:07.609375,0.18
13:06:07.625000,-2.43
13:06:07.640625,-5.27
13:06:07.656250,-8.13
13:06:07.671875,-10.83
13:06:07.687500,-13.30
13:06:07.703125,-15.58
13:06:07.718750,-17.72
13:06:07.734375,-19.78
13:06:07.750000,-21.85
13:06:07.765625,-24.05
13:06:07.781250,-26.50
13:06:07.796875,-29.33
13:06:07.812500,-32.61
13:06:07.828125,-36.34
13:06:07.843750,-40.42
13:06:07.859375,-44.68
13:06:07.875000,-48.97
13:06:07.890625,-53.08
13:06:07.906250,-56.89
13:06:07.921875,-60.25
13:06:07.937500,-63.00
13:06:07.953125,-64.95
13:06:07.968750,-65.89
13:06:07.984375,-65.69
13:06:08,-64.34
13:06:08.015625,-61.98
13:06:08.031250,-58.80
13:06:08.046875,-54.97
13:06:08.062500,-50.65
13:06:08.078125,-45.94
13:06:08.093750,-41.11
13:06:08.109375,-36.61
13:06:08.125000,-33.00
13:06:08.140625,-30.69
13:06:08.156250,-29.77
13:06:08.171875,-29.86
13:06:08.187500,-30.24
13:06:08.203125,-30.11
13:06:08.218750,-28.74
13:06:08.234375,-25.57
13:06:08.250000,-20.27
13:06:08.265625,-12.74
13:06:08.281250,-3.19
13:06:08.296875,7.76
13:06:08.312500,19.20
13:06:08.328125,30.03
13:06:08.343750,39.20
13:06:08.359375,45.90
13:06:08.375000,49.73
13:06:08.390625,50.73
13:06:08.406250,49.29
13:06:08.421875,46.20
13:06:08.437500,42.44
13:06:08.453125,39.02
13:06:08.468750,36.61
13:06:08.484375,35.30
13:06:08.500000,34.53
13:06:08.515625,33.27
13:06:08.531250,30.56
13:06:08.546875,25.80
13:06:08.562500,19.05
13:06:08.578125,10.77
13:06:08.593750,1.55
13:06:08.609375,-8.19
13:06:08.625000,-18.19
13:06:08.640625,-28.19
13:06:08.656250,-37.68
13:06:08.671875,-45.64
13:06:08.687500,-50.82
13:06:08.703125,-52.01
13:06:08.718750,-48.55
13:06:08.734375,-40.64
13:06:08.750000,-29.38
13:06:08.765625,-16.36
13:06:08.781250,-3.23
13:06:08.796875,8.81
13:06:08.812500,19.24
13:06:08.828125,28.12
13:06:08.843750,35.87
13:06:08.859375,42.87
13:06:08.875000,49.35
13:06:08.890625,55.28
13:06:08.906250,60.56
13:06:08.921875,65.17
13:06:08.937500,69.19
13:06:08.953125,72.85
13:06:08.968750,76.31
13:06:08.984375,79.51
13:06:09,82.28
13:06:09.015625,84.33
13:06:09.031250,85.45
13:06:09.046875,85.56
13:06:09.062500,84.63
13:06:09.078125,82.56
13:06:09.093750,79.15
13:06:09.109375,74.05
13:06:09.125000,67.08
13:06:09.140625,58.32
13:06:09.156250,48.28
13:06:09.171875,37.71
13:06:09.187500,27.33
13:06:09.203125,17.60
13:06:09.218750,8.59
13:06:09.234375,0.04
13:06:09.250000,-8.42
13:06:09.265625,-17.00
13:06:09.281250,-25.69
13:06:09.296875,-34.25
13:06:09.312500,-42.35
13:06:09.328125,-49.80
13:06:09.343750,-56.65
13:06:09.359375,-63.34
13:06:09.375000,-70.59
13:06:09.390625,-79.17
13:06:09.406250,-89.55
13:06:09.421875,-101.36
13:06:09.437500,-113.07
13:06:09.453125,-122.02
13:06:09.468750,-124.87
13:06:09.484375,-118.56
13:06:09.500000,-101.29
13:06:09.515625,-73.18
13:06:09.531250,-36.47
13:06:09.546875,5.07
13:06:09.562500,46.97
13:06:09.578125,85.19
13:06:09.593750,116.95
13:06:09.609375,141.14
13:06:09.625000,158.18
13:06:09.640625,169.42
13:06:09.656250,176.34
13:06:09.671875,179.81
13:06:09.687500,179.76
13:06:09.703125,175.29
13:06:09.718750,165.22
13:06:09.734375,148.73
13:06:09.750000,125.94
13:06:09.765625,98.04
13:06:09.781250,67.11
13:06:09.796875,35.55
13:06:09.812500,5.64
13:06:09.828125,-20.86
13:06:09.843750,-42.83
13:06:09.859375,-59.76
13:06:09.875000,-71.72
13:06:09.890625,-79.09
13:06:09.906250,-82.52
13:06:09.921875,-82.76
13:06:09.937500,-80.56
13:06:09.953125,-76.67
13:06:09.968750,-71.76
13:06:09.984375,-66.36
13:06:10,-60.81
13:06:10.015625,-55.23
13:06:10.031250,-49.57
13:06:10.046875,-43.77
13:06:10.062500,-37.90
13:06:10.078125,-32.26
13:06:10.093750,-27.32
13:06:10.109375,-23.60
13:06:10.125000,-21.40
13:06:10.140625,-20.68
13:06:10.156250,-21.02
13:06:10.171875,-21.82
13:06:10.187500,-22.46
13:06:10.203125,-22.54
13:06:10.218750,-22.06
13:06:10.234375,-21.40
13:06:10.250000,-21.28
13:06:10.265625,-22.41
13:06:10.281250,-25.27
13:06:10.296875,-29.74
13:06:10.312500,-35.13
13:06:10.328125,-40.43
13:06:10.343750,-44.69
13:06:10.359375,-47.59
13:06:10.375000,-49.56
13:06:10.390625,-51.69
13:06:10.406250,-55.24
13:06:10.421875,-61.16
13:06:10.437500,-69.60
13:06:10.453125,-79.91
13:06:10.468750,-90.67
13:06:10.484375,-100.10
13:06:10.500000,-106.40
13:06:10.515625,-108.17
13:06:10.531250,-104.78
13:06:10.546875,-96.60
13:06:10.562500,-84.90
13:06:10.578125,-71.44
13:06:10.593750,-57.81
13:06:10.609375,-44.72
13:06:10.625000,-31.65
13:06:10.640625,-17.02
13:06:10.656250,1.05
13:06:10.671875,23.66
13:06:10.687500,50.29
13:06:10.703125,78.65
13:06:10.718750,105.21
13:06:10.734375,126.42
13:06:10.750000,139.96
13:06:10.765625,145.48
13:06:10.781250,144.48
13:06:10.796875,139.54
13:06:10.812500,133.29
13:06:10.828125,127.56
13:06:10.843750,123.19
13:06:10.859375,120.28
13:06:10.875000,118.63
13:06:10.890625,118.09
13:06:10.906250,118.68
13:06:10.921875,120.40
13:06:10.937500,123.13
13:06:10.953125,126.52
13:06:10.968750,130.15
13:06:10.984375,133.59
13:06:11,136.50
13:06:11.015625,138.66
13:06:11.031250,139.91
13:06:11.046875,140.03
13:06:11.062500,138.72
13:06:11.078125,135.63
13:06:11.093750,130.38
13:06:11.109375,122.72
13:06:11.125000,112.55
13:06:11.140625,100.00
13:06:11.156250,85.25
13:06:11.171875,68.62
13:06:11.187500,50.47
13:06:11.203125,31.42
13:06:11.218750,12.32
13:06:11.234375,-5.67
13:06:11.250000,-21.39
13:06:11.265625,-34.13
13:06:11.281250,-43.93
13:06:11.296875,-51.79
13:06:11.312500,-59.36
13:06:11.328125,-68.42
13:06:11.343750,-80.40
13:06:11.359375,-96.05
13:06:11.375000,-115.51
13:06:11.390625,-138.38
13:06:11.406250,-163.85
13:06:11.421875,-190.56
13:06:11.437500,-216.50
13:06:11.453125,-238.88
13:06:11.468750,-254.58
13:06:11.484375,-260.76
13:06:11.500000,-255.76
13:06:11.515625,-239.61
13:06:11.531250,-213.99
13:06:11.546875,-181.67
13:06:11.562500,-145.56
13:06:11.578125,-108.05
13:06:11.593750,-70.73
13:06:11.609375,-34.62
13:06:11.625000,-0.53
13:06:11.640625,30.76
13:06:11.656250,58.72
13:06:11.671875,83.24
13:06:11.687500,104.67
13:06:11.703125,123.32
13:06:11.718750,138.85
13:06:11.734375,149.86
13:06:11.750000,154.25
13:06:11.765625,150.45
13:06:11.781250,138.64
13:06:11.796875,121.52
13:06:11.812500,103.65
13:06:11.828125,89.83
13:06:11.843750,83.23
13:06:11.859375,84.28
13:06:11.875000,91.06
13:06:11.890625,100.76
13:06:11.906250,111.22
13:06:11.921875,121.70
13:06:11.937500,132.50
13:06:11.953125,143.87
13:06:11.968750,155.13
13:06:11.984375,164.68
13:06:12,170.70
13:06:12.015625,172.15
13:06:12.031250,169.13
13:06:12.046875,162.56
13:06:12.062500,153.25
13:06:12.078125,141.33
13:06:12.093750,126.22
13:06:12.109375,107.33
13:06:12.125000,84.80
13:06:12.140625,59.82
13:06:12.156250,34.30
13:06:12.171875,10.10
13:06:12.187500,-11.64
13:06:12.203125,-30.72
13:06:12.218750,-47.53
13:06:12.234375,-62.59
13:06:12.250000,-76.24
13:06:12.265625,-88.53
13:06:12.281250,-99.44
13:06:12.296875,-109.15
13:06:12.312500,-117.96
13:06:12.328125,-126.30
13:06:12.343750,-134.38
13:06:12.359375,-142.25
13:06:12.375000,-149.73
13:06:12.390625,-156.51
13:06:12.406250,-162.16
13:06:12.421875,-166.05
13:06:12.437500,-167.32
13:06:12.453125,-165.04
13:06:12.468750,-158.55
13:06:12.484375,-147.78
13:06:12.500000,-133.38
13:06:12.515625,-116.63
13:06:12.531250,-98.97
13:06:12.546875,-81.60
13:06:12.562500,-65.26
13:06:12.578125,-50.24
13:06:12.593750,-36.61
13:06:12.609375,-24.50
13:06:12.625000,-14.07
13:06:12.640625,-5.43
13:06:12.656250,1.55
13:06:12.671875,7.31
13:06:12.687500,12.50
13:06:12.703125,17.71
13:06:12.718750,23.24
13:06:12.734375,28.97
13:06:12.750000,34.50
13:06:12.765625,39.37
13:06:12.781250,43.34
13:06:12.796875,46.49
13:06:12.812500,49.14
13:06:12.828125,51.62
13:06:12.843750,54.04
13:06:12.859375,56.20
13:06:12.875000,57.72
13:06:12.890625,58.26
13:06:12.906250,57.66
13:06:12.921875,56.11
13:06:12.937500,53.95
13:06:12.953125,51.63
13:06:12.968750,49.44
13:06:12.984375,47.48
13:06:13,45.67
13:06:13.015625,43.77
13:06:13.031250,41.54
13:06:13.046875,38.80
13:06:13.062500,35.49
13:06:13.078125,31.71
13:06:13.093750,27.70
13:06:13.109375,23.73
13:06:13.125000,20.03
13:06:13.140625,16.60
13:06:13.156250,13.29
13:06:13.171875,9.79
13:06:13.187500,5.88
13:06:13.203125,1.51
13:06:13.218750,-3.15
13:06:13.234375,-7.79
13:06:13.250000,-12.13
13:06:13.265625,-16.09
13:06:13.281250,-19.85
13:06:13.296875,-23.78
13:06:13.312500,-28.36
13:06:13.328125,-34.00
13:06:13.343750,-40.95
13:06:13.359375,-49.04
13:06:13.375000,-57.64
13:06:13.390625,-65.61
13:06:13.406250,-71.58
13:06:13.421875,-74.19
13:06:13.437500,-72.62
13:06:13.453125,-66.77
13:06:13.468750,-57.36
13:06:13.484375,-45.62
13:06:13.500000,-32.93
13:06:13.515625,-20.38
13:06:13.531250,-8.68
13:06:13.546875,1.86
13:06:13.562500,11.11
13:06:13.578125,19.02
13:06:13.593750,25.51
13:06:13.609375,30.50
13:06:13.625000,34.03
13:06:13.640625,36.27
13:06:13.656250,37.57
13:06:13.671875,38.40
13:06:13.687500,39.18
13:06:13.703125,40.17
13:06:13.718750,41.41
13:06:13.734375,42.74
13:06:13.750000,43.94
13:06:13.765625,44.87
13:06:13.781250,45.57
13:06:13.796875,46.20
13:06:13.812500,46.87
13:06:13.828125,47.61
13:06:13.843750,48.23
13:06:13.859375,48.47
13:06:13.875000,48.12
13:06:13.890625,47.09
13:06:13.906250,45.46
13:06:13.921875,43.41
13:06:13.937500,41.12
13:06:13.953125,38.78
13:06:13.968750,36.50
13:06:13.984375,34.38
13:06:14,32.45
13:06:14.015625,30.63
13:06:14.031250,28.76
13:06:14.046875,26.61
13:06:14.062500,23.99
13:06:14.078125,20.90
13:06:14.093750,17.50
13:06:14.109375,14.07
13:06:14.125000,10.87
13:06:14.140625,8.00
13:06:14.156250,5.37
13:06:14.171875,2.76
13:06:14.187500,-0.03
13:06:14.203125,-3.10
13:06:14.218750,-6.43
13:06:14.234375,-9.97
13:06:14.250000,-13.64
13:06:14.265625,-17.45
13:06:14.281250,-21.35
13:06:14.296875,-25.33
13:06:14.312500,-29.36
13:06:14.328125,-33.52
13:06:14.343750,-38.02
13:06:14.359375,-43.10
13:06:14.375000,-48.97
13:06:14.390625,-55.65
13:06:14.406250,-62.90
13:06:14.421875,-70.25
13:06:14.437500,-77.07
13:06:14.453125,-82.60
13:06:14.468750,-86.00
13:06:14.484375,-86.49
13:06:14.500000,-83.47
13:06:14.515625,-76.78
13:06:14.531250,-66.84
13:06:14.546875,-54.66
13:06:14.562500,-41.54
13:06:14.578125,-28.77
13:06:14.593750,-17.24
13:06:14.609375,-7.38
13:06:14.625000,0.73
13:06:14.640625,7.25
13:06:14.656250,12.28
13:06:14.671875,15.93
13:06:14.687500,18.37
13:06:14.703125,19.97
13:06:14.718750,21.25
13:06:14.734375,22.82
13:06:14.750000,25.09
13:06:14.765625,28.18
13:06:14.781250,31.80
13:06:14.796875,35.45
13:06:14.812500,38.59
13:06:14.828125,40.84
13:06:14.843750,42.10
13:06:14.859375,42.55
13:06:14.875000,42.49
13:06:14.890625,42.23
13:06:14.906250,41.94
13:06:14.921875,41.62
13:06:14.937500,41.19
13:06:14.953125,40.52
13:06:14.968750,39.54
13:06:14.984375,38.25
13:06:15,36.71
13:06:15.015625,35.06
13:06:15.031250,33.39
13:06:15.046875,31.70
13:06:15.062500,29.85
13:06:15.078125,27.64
13:06:15.093750,24.91
13:06:15.109375,21.64
13:06:15.125000,17.96
13:06:15.140625,14.16
13:06:15.156250,10.53
13:06:15.171875,7.24
13:06:15.187500,4.31
13:06:15.203125,1.66
13:06:15.218750,-0.81
13:06:15.234375,-3.21
13:06:15.250000,-5.59
13:06:15.265625,-8.03
13:06:15.281250,-10.65
13:06:15.296875,-13.62
13:06:15.312500,-17.07
13:06:15.328125,-21.02
13:06:15.343750,-25.36
13:06:15.359375,-29.82
13:06:15.375000,-34.12
13:06:15.390625,-38.05
13:06:15.406250,-41.54
13:06:15.421875,-44.71
13:06:15.437500,-47.77
13:06:15.453125,-50.97
13:06:15.468750,-54.52
13:06:15.484375,-58.41
13:06:15.500000,-62.43
13:06:15.515625,-66.10
13:06:15.531250,-68.83
13:06:15.546875,-69.94
13:06:15.562500,-68.94
13:06:15.578125,-65.50
13:06:15.593750,-59.67
13:06:15.609375,-51.72
13:06:15.625000,-42.22
13:06:15.640625,-31.89
13:06:15.656250,-21.51
13:06:15.671875,-11.83
13:06:15.687500,-3.41
13:06:15.703125,3.39
13:06:15.718750,8.53
13:06:15.734375,12.26
13:06:15.750000,15.01
13:06:15.765625,17.21
13:06:15.781250,19.25
13:06:15.796875,21.30
13:06:15.812500,23.41
13:06:15.828125,25.47
13:06:15.843750,27.37
13:06:15.859375,29.03
13:06:15.875000,30.39
13:06:15.890625,31.43
13:06:15.906250,32.13
13:06:15.921875,32.45
13:06:15.937500,32.44
13:06:15.953125,32.20
13:06:15.968750,31.90
13:06:15.984375,31.69
13:06:16,31.66
13:06:16.015625,31.68
13:06:16.031250,31.52
13:06:16.046875,30.88
13:06:16.062500,29.55
13:06:16.078125,27.51
13:06:16.093750,24.91
13:06:16.109375,22.00
13:06:16.125000,19.01
13:06:16.140625,16.10
13:06:16.156250,13.31
13:06:16.171875,10.59
13:06:16.187500,7.92
13:06:16.203125,5.32
13:06:16.218750,2.86
13:06:16.234375,0.65
13:06:16.250000,-1.27
13:06:16.265625,-2.95
13:06:16.281250,-4.53
13:06:16.296875,-6.22
13:06:16.312500,-8.13
13:06:16.328125,-10.35
13:06:16.343750,-12.84
13:06:16.359375,-15.53
13:06:16.375000,-18.36
13:06:16.390625,-21.33
13:06:16.406250,-24.45
13:06:16.421875,-27.70
13:06:16.437500,-31.04
13:06:16.453125,-34.30
13:06:16.468750,-37.35
13:06:16.484375,-40.09
13:06:16.500000,-42.52
13:06:16.515625,-44.72
13:06:16.531250,-46.78
13:06:16.546875,-48.70
13:06:16.562500,-50.40
13:06:16.578125,-51.60
13:06:16.593750,-52.00
13:06:16.609375,-51.24
13:06:16.625000,-49.06
13:06:16.640625,-45.28
13:06:16.656250,-39.91
13:06:16.671875,-33.16
13:06:16.687500,-25.46
13:06:16.703125,-17.38
13:06:16.718750,-9.54
13:06:16.734375,-2.45
13:06:16.750000,3.65
13:06:16.765625,8.73
13:06:16.781250,12.90
13:06:16.796875,16.30
13:06:16.812500,18.94
13:06:16.828125,20.73
13:06:16.843750,21.63
13:06:16.859375,21.71
13:06:16.875000,21.28
13:06:16.890625,20.74
13:06:16.906250,20.43
13:06:16.921875,20.50
13:06:16.937500,20.88
13:06:16.953125,21.31
13:06:16.968750,21.59
13:06:16.984375,21.55
13:06:17,21.16
13:06:17.015625,20.45
13:06:17.031250,19.49
13:06:17.046875,18.30
13:06:17.062500,16.93
13:06:17.078125,15.42
13:06:17.093750,13.82
13:06:17.109375,12.24
13:06:17.125000,10.75
13:06:17.140625,9.41
13:06:17.156250,8.20
13:06:17.171875,7.01
13:06:17.187500,5.71
13:06:17.203125,4.25
13:06:17.218750,2.68
13:06:17.234375,1.21
13:06:17.250000,0.06
13:06:17.265625,-0.65
13:06:17.281250,-1.02
13:06:17.296875,-1.36
13:06:17.312500,-2.06
13:06:17.328125,-3.36
13:06:17.343750,-5.32
13:06:17.359375,-7.75
13:06:17.375000,-10.44
13:06:17.390625,-13.25
13:06:17.406250,-16.24
13:06:17.421875,-19.55
13:06:17.437500,-23.25
13:06:17.453125,-27.23
13:06:17.468750,-31.17
13:06:17.484375,-34.69
13:06:17.500000,-37.50
13:06:17.515625,-39.66
13:06:17.531250,-41.43
13:06:17.546875,-43.27
13:06:17.562500,-45.58
13:06:17.578125,-48.41
13:06:17.593750,-51.53
13:06:17.609375,-54.36
13:06:17.625000,-56.26
13:06:17.640625,-56.73
13:06:17.656250,-55.51
13:06:17.671875,-52.62
13:06:17.687500,-48.20
13:06:17.703125,-42.45
13:06:17.718750,-35.61
13:06:17.734375,-27.92
13:06:17.750000,-19.79
13:06:17.765625,-11.78
13:06:17.781250,-4.49
13:06:17.796875,1.60
13:06:17.812500,6.25
13:06:17.828125,9.62
13:06:17.843750,12.07
13:06:17.859375,14.08
13:06:17.875000,16.02
13:06:17.890625,18.05
13:06:17.906250,20.09
13:06:17.921875,22.03
13:06:17.937500,23.71
13:06:17.953125,25.10
13:06:17.968750,26.26
13:06:17.984375,27.33
13:06:18,28.43
13:06:18.015625,29.56
13:06:18.031250,30.61
13:06:18.046875,31.36
13:06:18.062500,31.58
13:06:18.078125,31.12
13:06:18.093750,30.03
13:06:18.109375,28.47
13:06:18.125000,26.68
13:06:18.140625,24.81
13:06:18.156250,22.87
13:06:18.171875,20.76
13:06:18.187500,18.42
13:06:18.203125,15.91
13:06:18.218750,13.40
13:06:18.234375,11.13
13:06:18.250000,9.17
13:06:18.265625,7.39
13:06:18.281250,5.59
13:06:18.296875,3.55
13:06:18.312500,1.23
13:06:18.328125,-1.23
13:06:18.343750,-3.62
13:06:18.359375,-5.80
13:06:18.375000,-7.77
13:06:18.390625,-9.70
13:06:18.406250,-11.81
13:06:18.421875,-14.24
13:06:18.437500,-17.00
13:06:18.453125,-19.99
13:06:18.468750,-23.07
13:06:18.484375,-26.17
13:06:18.500000,-29.28
13:06:18.515625,-32.47
13:06:18.531250,-35.81
13:06:18.546875,-39.34
13:06:18.562500,-43.02
13:06:18.578125,-46.77
13:06:18.593750,-50.38
13:06:18.609375,-53.60
13:06:18.625000,-56.08
13:06:18.640625,-57.45
13:06:18.656250,-57.34
13:06:18.671875,-55.52
13:06:18.687500,-51.90
13:06:18.703125,-46.66
13:06:18.718750,-40.23
13:06:18.734375,-33.21
13:06:18.750000,-26.20
13:06:18.765625,-19.68
13:06:18.781250,-13.91
13:06:18.796875,-8.99
13:06:18.812500,-4.84
13:06:18.828125,-1.27
13:06:18.843750,1.85
13:06:18.859375,4.51
13:06:18.875000,6.55
13:06:18.890625,7.79
13:06:18.906250,8.22
13:06:18.921875,8.13
13:06:18.937500,7.99
13:06:18.953125,8.47
13:06:18.968750,10.11
13:06:18.984375,12.91
13:06:19,16.08
13:06:19.015625,18.36
13:06:19.031250,18.51
13:06:19.046875,15.91
13:06:19.062500,10.94
13:06:19.078125,4.66
13:06:19.093750,-1.31
13:06:19.109375,-5.53
13:06:19.125000,-7.50
13:06:19.140625,-8.12
13:06:19.156250,-9.38
13:06:19.171875,-13.69
13:06:19.187500,-22.98
13:06:19.203125,-38.06
13:06:19.218750,-58.79
13:06:19.234375,-83.07
13:06:19.250000,-107.07
13:06:19.265625,-126.25
13:06:19.281250,-136.62
13:06:19.296875,-135.91
13:06:19.312500,-124.33
13:06:19.328125,-104.52
13:06:19.343750,-80.85
13:06:19.359375,-59.05
13:06:19.375000,-42.94
13:06:19.390625,-33.37
13:06:19.406250,-28.69
13:06:19.421875,-26.14
13:06:19.437500,-23.35
13:06:19.453125,-19.41
13:06:19.468750,-14.86
13:06:19.484375,-10.90
13:06:19.500000,-9.61
13:06:19.515625,-10.59
13:06:19.531250,-10.95
13:06:19.546875,-7.22
13:06:19.562500,2.57
13:06:19.578125,17.85
13:06:19.593750,35.39
13:06:19.609375,50.84
13:06:19.625000,67.72
13:06:19.640625,85.04
13:06:19.656250,100.08
13:06:19.671875,111.11
13:06:19.687500,119.03
13:06:19.703125,126.15
13:06:19.718750,134.10
13:06:19.734375,142.41
13:06:19.750000,149.49
13:06:19.765625,153.78
13:06:19.781250,152.96
13:06:19.796875,146.19
13:06:19.812500,135.93
13:06:19.828125,124.96
13:06:19.843750,115.43
13:06:19.859375,108.80
13:06:19.875000,105.61
13:06:19.890625,106.83
13:06:19.906250,116.83
13:06:19.921875,135.48
13:06:19.937500,160.76
13:06:19.953125,189.85
13:06:19.968750,219.24
13:06:19.984375,245.69
13:06:20,267.11
13:06:20.015625,281.82
13:06:20.031250,289.73
13:06:20.046875,291.58
13:06:20.062500,287.78
13:06:20.078125,278.58
13:06:20.093750,265.14
13:06:20.109375,249.05
13:06:20.125000,232.06
13:06:20.140625,215.77
13:06:20.156250,200.18
13:06:20.171875,185.20
13:06:20.187500,170.39
13:06:20.203125,154.36
13:06:20.218750,135.90
13:06:20.234375,114.23
13:06:20.250000,88.29
13:06:20.265625,55.92
13:06:20.281250,22.84
13:06:20.296875,-9.49
13:06:20.312500,-40.99
13:06:20.328125,-72.57
13:06:20.343750,-106.06
13:06:20.359375,-142.96
13:06:20.375000,-183.68
13:06:20.390625,-227.52
13:06:20.406250,-272.88
13:06:20.421875,-317.59
13:06:20.437500,-360.96
13:06:20.453125,-402.43
13:06:20.468750,-441.93
13:06:20.484375,-479.84
13:06:20.500000,-516.75
13:06:20.515625,-553.35
13:06:20.531250,-590.58
13:06:20.546875,-629.02
13:06:20.562500,-667.82
13:06:20.578125,-704.78
13:06:20.593750,-734.75
13:06:20.609375,-750.97
13:06:20.625000,-747.27
13:06:20.640625,-720.62
13:06:20.656250,-672.49
13:06:20.671875,-608.36
13:06:20.687500,-535.72
13:06:20.703125,-461.35
13:06:20.718750,-390.30
13:06:20.734375,-324.75
13:06:20.750000,-265.21
13:06:20.765625,-211.69
13:06:20.781250,-164.36
13:06:20.796875,-123.28
13:06:20.812500,-87.81
13:06:20.828125,-56.66
13:06:20.843750,-28.56
13:06:20.859375,-3.50
13:06:20.875000,17.28
13:06:20.890625,31.89
13:06:20.906250,39.12
13:06:20.921875,39.49
13:06:20.937500,35.75
13:06:20.953125,31.97
13:06:20.968750,32.09
13:06:20.984375,38.57
13:06:21,51.73
13:06:21.015625,70.35
13:06:21.031250,92.13
13:06:21.046875,114.44
13:06:21.062500,134.60
13:06:21.078125,150.14
13:06:21.093750,159.36
13:06:21.109375,162.03
13:06:21.125000,159.69
13:06:21.140625,154.79
13:06:21.156250,149.25
13:06:21.171875,142.96
13:06:21.187500,133.90
13:06:21.203125,119.54
13:06:21.218750,99.20
13:06:21.234375,75.45
13:06:21.250000,53.56
13:06:21.265625,39.17
13:06:21.281250,35.48
13:06:21.296875,41.71
13:06:21.312500,53.88
13:06:21.328125,67.15
13:06:21.343750,78.34
13:06:21.359375,86.97
13:06:21.375000,94.66
13:06:21.390625,103.23
13:06:21.406250,113.33
13:06:21.421875,124.21
13:06:21.437500,134.50
13:06:21.453125,143.51
13:06:21.468750,151.89
13:06:21.484375,161.40
13:06:21.500000,174.10
13:06:21.515625,191.84
13:06:21.531250,215.65
13:06:21.546875,245.57
13:06:21.562500,280.54
13:06:21.578125,318.03
13:06:21.593750,354.21
13:06:21.609375,384.55
13:06:21.625000,405.06
13:06:21.640625,413.45
13:06:21.656250,409.70
13:06:21.671875,395.66
13:06:21.687500,373.97
13:06:21.703125,347.00
13:06:21.718750,316.51
13:06:21.734375,284.06
13:06:21.750000,251.69
13:06:21.765625,222.09
13:06:21.781250,197.89
13:06:21.796875,180.42
13:06:21.812500,168.77
13:06:21.828125,159.97
13:06:21.843750,150.36
13:06:21.859375,137.21
13:06:21.875000,120.00
13:06:21.890625,100.19
13:06:21.906250,80.15
13:06:21.921875,62.02
13:06:21.937500,46.68
13:06:21.953125,33.89
13:06:21.968750,22.82
13:06:21.984375,12.84
13:06:22,3.70
13:06:22.015625,-4.53
13:06:22.031250,-11.96
13:06:22.046875,-19.11
13:06:22.062500,-26.71
13:06:22.078125,-35.36
13:06:22.093750,-45.06
13:06:22.109375,-55.19
13:06:22.125000,-64.90
13:06:22.140625,-73.59
13:06:22.156250,-81.27
13:06:22.171875,-88.58
13:06:22.187500,-96.48
13:06:22.203125,-105.68
13:06:22.218750,-116.24
13:06:22.234375,-127.25
13:06:22.250000,-136.83
13:06:22.265625,-142.51
13:06:22.281250,-141.94
13:06:22.296875,-133.81
13:06:22.312500,-118.41
13:06:22.328125,-97.71
13:06:22.343750,-74.72
13:06:22.359375,-52.52
13:06:22.375000,-33.19
13:06:22.390625,-17.36
13:06:22.406250,-4.45
13:06:22.421875,6.67
13:06:22.437500,16.89
13:06:22.453125,26.65
13:06:22.468750,36.11
13:06:22.484375,45.35
13:06:22.500000,54.60
13:06:22.515625,63.87
13:06:22.531250,72.70
13:06:22.546875,80.02
13:06:22.562500,84.49
13:06:22.578125,85.29
13:06:22.593750,82.65
13:06:22.609375,78.13
13:06:22.625000,74.10
13:06:22.640625,72.77
13:06:22.656250,75.21
13:06:22.671875,80.97
13:06:22.687500,88.41
13:06:22.703125,95.51
13:06:22.718750,100.90
13:06:22.734375,104.34
13:06:22.750000,106.74
13:06:22.765625,109.41
13:06:22.781250,113.30
13:06:22.796875,118.39
13:06:22.812500,123.80
13:06:22.828125,128.37
13:06:22.843750,131.37
13:06:22.859375,132.91
13:06:22.875000,133.52
13:06:22.890625,133.55
13:06:22.906250,132.53
13:06:22.921875,129.33
13:06:22.937500,122.87
13:06:22.953125,113.18
13:06:22.968750,101.85
13:06:22.984375,91.63
13:06:23,85.11
13:06:23.015625,83.32
13:06:23.031250,84.97
13:06:23.046875,86.97
13:06:23.062500,85.71
13:06:23.078125,78.72
13:06:23.093750,65.47
13:06:23.109375,47.31
13:06:23.125000,26.62
13:06:23.140625,5.70
13:06:23.156250,-13.99
13:06:23.171875,-31.99
13:06:23.187500,-48.65
13:06:23.203125,-64.74
13:06:23.218750,-81.00
13:06:23.234375,-98.21
13:06:23.250000,-117.27
13:06:23.265625,-139.49
13:06:23.281250,-166.58
13:06:23.296875,-200.01
13:06:23.312500,-239.75
13:06:23.328125,-283.20
13:06:23.343750,-324.95
13:06:23.359375,-357.91
13:06:23.375000,-375.45
13:06:23.390625,-373.66
13:06:23.406250,-352.77
13:06:23.421875,-316.80
13:06:23.437500,-271.87
13:06:23.453125,-223.89
13:06:23.468750,-176.95
13:06:23.484375,-132.98
13:06:23.500000,-92.50
13:06:23.515625,-55.90
13:06:23.531250,-24.11
13:06:23.546875,1.56
13:06:23.562500,20.27
13:06:23.578125,32.41
13:06:23.593750,39.78
13:06:23.609375,44.90
13:06:23.625000,50.00
13:06:23.640625,56.11
13:06:23.656250,62.64
13:06:23.671875,67.98
13:06:23.687500,70.50
13:06:23.703125,69.41
13:06:23.718750,65.18
13:06:23.734375,58.98
13:06:23.750000,51.64
13:06:23.765625,42.98
13:06:23.781250,31.88
13:06:23.796875,17.20
13:06:23.812500,-0.91
13:06:23.828125,-20.02
13:06:23.843750,-35.45
13:06:23.859375,-41.76
13:06:23.875000,-34.84
13:06:23.890625,-14.13
13:06:23.906250,16.58
13:06:23.921875,50.01
13:06:23.937500,77.99
13:06:23.953125,94.48
13:06:23.968750,97.67
13:06:23.984375,90.16
13:06:24,77.19
13:06:24.015625,64.00
13:06:24.031250,53.64
13:06:24.046875,46.36
13:06:24.062500,40.42
13:06:24.078125,33.95
13:06:24.093750,26.54
13:06:24.109375,19.73
13:06:24.125000,16.34
13:06:24.140625,19.02
13:06:24.156250,28.66
13:06:24.171875,43.71
13:06:24.187500,60.65
13:06:24.203125,75.23
13:06:24.218750,84.14
13:06:24.234375,86.09
13:06:24.250000,81.71
13:06:24.265625,72.61
13:06:24.281250,60.09
13:06:24.296875,44.64
13:06:24.312500,26.41
13:06:24.328125,6.27
13:06:24.343750,-13.52
13:06:24.359375,-29.56
13:06:24.375000,-38.67
13:06:24.390625,-39.59
13:06:24.406250,-33.80
13:06:24.421875,-25.08
13:06:24.437500,-17.80
13:06:24.453125,-15.20
13:06:24.468750,-18.22
13:06:24.484375,-25.61
13:06:24.500000,-34.94
13:06:24.515625,-43.78
13:06:24.531250,-50.56
13:06:24.546875,-54.65
13:06:24.562500,-56.12
13:06:24.578125,-55.19
13:06:24.593750,-51.94
13:06:24.609375,-46.30
13:06:24.625000,-38.30
13:06:24.640625,-28.40
13:06:24.656250,-17.68
13:06:24.671875,-7.68
13:06:24.687500,0.12
13:06:24.703125,4.88
13:06:24.718750,6.84
13:06:24.734375,7.18
13:06:24.750000,7.56
13:06:24.765625,9.35
13:06:24.781250,13.00
13:06:24.796875,17.82
13:06:24.812500,22.30
13:06:24.828125,24.77
13:06:24.843750,24.22
13:06:24.859375,20.78
13:06:24.875000,15.72
13:06:24.890625,11.00
13:06:24.906250,8.41
13:06:24.921875,8.88
13:06:24.937500,12.07
13:06:24.953125,16.54
13:06:24.968750,20.35
13:06:24.984375,21.85
13:06:25,20.27
13:06:25.015625,15.85
13:06:25.031250,9.54
13:06:25.046875,2.57
13:06:25.062500,-3.99
13:06:25.078125,-9.33
13:06:25.093750,-12.99
13:06:25.109375,-14.91
13:06:25.125000,-15.57
13:06:25.140625,-16.05
13:06:25.156250,-17.76
13:06:25.171875,-21.91
13:06:25.187500,-28.85
13:06:25.203125,-37.71
13:06:25.218750,-46.68
13:06:25.234375,-53.86
13:06:25.250000,-58.24
13:06:25.265625,-60.28
13:06:25.281250,-61.70
13:06:25.296875,-64.63
13:06:25.312500,-70.56
13:06:25.328125,-79.65
13:06:25.343750,-90.58
13:06:25.359375,-101.03
13:06:25.375000,-108.45
13:06:25.390625,-110.79
13:06:25.406250,-107.28
13:06:25.421875,-98.84
13:06:25.437500,-88.03
13:06:25.453125,-78.35
13:06:25.468750,-73.28
13:06:25.484375,-75.19
13:06:25.500000,-84.63
13:06:25.515625,-100.22
13:06:25.531250,-119.05
13:06:25.546875,-137.45
13:06:25.562500,-151.62
13:06:25.578125,-158.19
13:06:25.593750,-154.56
13:06:25.609375,-139.37
13:06:25.625000,-112.78
13:06:25.640625,-76.79
13:06:25.656250,-35.09
13:06:25.671875,7.51
13:06:25.687500,46.17
13:06:25.703125,77.00
13:06:25.718750,98.07
13:06:25.734375,109.67
13:06:25.750000,114.13
13:06:25.765625,114.69
13:06:25.781250,114.43
13:06:25.796875,115.11
13:06:25.812500,116.77
13:06:25.828125,117.97
13:06:25.843750,116.69
13:06:25.859375,111.37
13:06:25.875000,101.46
13:06:25.890625,87.55
13:06:25.906250,70.85
13:06:25.921875,52.72
13:06:25.937500,34.07
13:06:25.953125,15.36
13:06:25.968750,-3.44
13:06:25.984375,-22.73
13:06:26,-42.99
13:06:26.015625,-64.45
13:06:26.031250,-86.63
13:06:26.046875,-108.27
13:06:26.062500,-127.69
13:06:26.078125,-143.60
13:06:26.093750,-156.01
13:06:26.109375,-166.50
13:06:26.125000,-177.40
13:06:26.140625,-190.63
13:06:26.156250,-206.20
13:06:26.171875,-221.83
13:06:26.187500,-233.65
13:06:26.203125,-237.83
13:06:26.218750,-231.92
13:06:26.234375,-215.80
13:06:26.250000,-191.46
13:06:26.265625,-162.58
13:06:26.281250,-133.54
13:06:26.296875,-108.62
13:06:26.312500,-90.82
13:06:26.328125,-80.67
13:06:26.343750,-75.79
13:06:26.359375,-71.09
13:06:26.375000,-60.20
13:06:26.390625,-37.74
13:06:26.406250,-1.80
13:06:26.421875,44.95
13:06:26.437500,95.53
13:06:26.453125,141.01
13:06:26.468750,173.40
13:06:26.484375,188.24
13:06:26.500000,186.08
13:06:26.515625,172.27
13:06:26.531250,155.17
13:06:26.546875,143.63
13:06:26.562500,144.27
13:06:26.578125,159.81
13:06:26.593750,188.75
13:06:26.609375,226.41
13:06:26.625000,266.69
13:06:26.640625,303.58
13:06:26.656250,332.10
13:06:26.671875,349.11
13:06:26.687500,353.80
13:06:26.703125,348.12
13:06:26.718750,336.74
13:06:26.734375,325.81
13:06:26.750000,320.88
13:06:26.765625,324.50
13:06:26.781250,334.87
13:06:26.796875,346.18
13:06:26.812500,350.93
13:06:26.828125,343.37
13:06:26.843750,321.85
13:06:26.859375,289.42
13:06:26.875000,252.19
13:06:26.890625,216.44
13:06:26.906250,186.42
13:06:26.921875,163.44
13:06:26.937500,146.87
13:06:26.953125,135.62
13:06:26.968750,129.34
13:06:26.984375,128.17
13:06:27,131.82
13:06:27.015625,138.40
13:06:27.031250,144.32
13:06:27.046875,145.36
13:06:27.062500,138.40
13:06:27.078125,122.70
13:06:27.093750,100.24
13:06:27.109375,74.56
13:06:27.125000,49.07
13:06:27.140625,25.85
13:06:27.156250,5.44
13:06:27.171875,-12.39
13:06:27.187500,-27.81
13:06:27.203125,-40.55
13:06:27.218750,-50.19
13:06:27.234375,-56.99
13:06:27.250000,-62.31
13:06:27.265625,-68.37
13:06:27.281250,-77.36
13:06:27.296875,-90.36
13:06:27.312500,-106.74
13:06:27.328125,-124.31
13:06:27.343750,-140.21
13:06:27.359375,-152.00
13:06:27.375000,-158.52
13:06:27.390625,-160.12
13:06:27.406250,-158.50
13:06:27.421875,-156.30
13:06:27.437500,-156.62
13:06:27.453125,-162.66
13:06:27.468750,-177.23
13:06:27.484375,-202.13
13:06:27.500000,-237.17
13:06:27.515625,-279.44
13:06:27.531250,-323.39
13:06:27.546875,-361.99
13:06:27.562500,-388.78
13:06:27.578125,-399.69
13:06:27.593750,-393.92
13:06:27.609375,-373.68
13:06:27.625000,-343.06
13:06:27.640625,-306.91
13:06:27.656250,-270.13
13:06:27.671875,-236.79
13:06:27.687500,-209.23
13:06:27.703125,-187.01
13:06:27.718750,-166.71
13:06:27.734375,-143.45
13:06:27.750000,-113.94
13:06:27.765625,-79.51
13:06:27.781250,-46.89
13:06:27.796875,-25.42
13:06:27.812500,-22.00
13:06:27.828125,-36.59
13:06:27.843750,-61.13
13:06:27.859375,-83.12
13:06:27.875000,-92.38
13:06:27.890625,-86.49
13:06:27.906250,-71.85
13:06:27.921875,-59.66
13:06:27.937500,-59.23
13:06:27.953125,-72.56
13:06:27.968750,-93.46
13:06:27.984375,-111.67
13:06:28,-118.80
13:06:28.015625,-112.99
13:06:28.031250,-99.40
13:06:28.046875,-86.72
13:06:28.062500,-81.92
13:06:28.078125,-86.39
13:06:28.093750,-95.50
13:06:28.109375,-102.12
13:06:28.125000,-101.46
13:06:28.140625,-94.54
13:06:28.156250,-88.47
13:06:28.171875,-92.52
13:06:28.187500,-112.80
13:06:28.203125,-148.05
13:06:28.218750,-189.48
13:06:28.234375,-224.50
13:06:28.250000,-243.01
13:06:28.265625,-241.99
13:06:28.281250,-226.55
13:06:28.296875,-206.33
13:06:28.312500,-189.71
13:06:28.328125,-179.43
13:06:28.343750,-171.97
13:06:28.359375,-161.08
13:06:28.375000,-142.67
13:06:28.390625,-117.96
13:06:28.406250,-92.62
13:06:28.421875,-73.00
13:06:28.437500,-61.91
13:06:28.453125,-56.80
13:06:28.468750,-51.32
13:06:28.484375,-39.09
13:06:28.500000,-17.05
13:06:28.515625,13.54
13:06:28.531250,48.72
13:06:28.546875,84.64
13:06:28.562500,119.64
13:06:28.578125,154.21
13:06:28.593750,189.69
13:06:28.609375,226.49
13:06:28.625000,263.21
13:06:28.640625,297.07
13:06:28.656250,325.23
13:06:28.671875,346.06
13:06:28.687500,359.78
13:06:28.703125,368.17
13:06:28.718750,373.66
13:06:28.734375,378.36
13:06:28.750000,383.12
13:06:28.765625,387.15
13:06:28.781250,388.24
13:06:28.796875,383.32
13:06:28.812500,369.66
13:06:28.828125,345.80
13:06:28.843750,312.32
13:06:28.859375,271.73
13:06:28.875000,227.85
13:06:28.890625,184.82
13:06:28.906250,146.18
13:06:28.921875,114.41
13:06:28.937500,90.79
13:06:28.953125,75.47
13:06:28.968750,67.49
13:06:28.984375,65.11
13:06:29,66.06
13:06:29.015625,68.09
13:06:29.031250,69.08
13:06:29.046875,67.07
13:06:29.062500,60.17
13:06:29.078125,46.75
13:06:29.093750,26.09
13:06:29.109375,-0.68
13:06:29.125000,-30.18
13:06:29.140625,-57.33
13:06:29.156250,-77.13
13:06:29.171875,-86.84
13:06:29.187500,-87.18
13:06:29.203125,-81.80
13:06:29.218750,-75.52
13:06:29.234375,-71.98
13:06:29.250000,-72.47
13:06:29.265625,-76.15
13:06:29.281250,-81.60
13:06:29.296875,-88.15
13:06:29.312500,-96.28
13:06:29.328125,-106.83
13:06:29.343750,-119.83
13:06:29.359375,-133.80
13:06:29.375000,-146.10
13:06:29.390625,-154.09
13:06:29.406250,-156.23
13:06:29.421875,-152.45
13:06:29.437500,-143.74
13:06:29.453125,-131.24
13:06:29.468750,-115.67
13:06:29.484375,-97.50
13:06:29.500000,-77.65
13:06:29.515625,-58.06
13:06:29.531250,-41.42
13:06:29.546875,-30.18
13:06:29.562500,-25.28
13:06:29.578125,-25.38
13:06:29.593750,-27.11
13:06:29.609375,-26.34
13:06:29.625000,-19.77
13:06:29.640625,-6.04
13:06:29.656250,13.96
13:06:29.671875,37.73
13:06:29.687500,62.09
13:06:29.703125,83.88
13:06:29.718750,100.31
13:06:29.734375,109.05
13:06:29.750000,108.55
13:06:29.765625,98.66
13:06:29.781250,81.18
13:06:29.796875,59.94
13:06:29.812500,39.97
13:06:29.828125,26.12
13:06:29.843750,21.46
13:06:29.859375,26.36
13:06:29.875000,38.52
13:06:29.890625,53.96
13:06:29.906250,68.47
13:06:29.921875,78.77
13:06:29.937500,83.02
13:06:29.953125,80.59
13:06:29.968750,71.79
13:06:29.984375,57.53
13:06:30,39.63
13:06:30.015625,20.90
13:06:30.031250,4.81
13:06:30.046875,-5.36
13:06:30.062500,-7.69
13:06:30.078125,-2.45
13:06:30.093750,7.99
13:06:30.109375,20.23
13:06:30.125000,31.20
13:06:30.140625,39.08
13:06:30.156250,43.26
13:06:30.171875,43.56
13:06:30.187500,39.35
13:06:30.203125,29.56
13:06:30.218750,13.40
13:06:30.234375,-8.39
13:06:30.250000,-33.02
13:06:30.265625,-56.23
13:06:30.281250,-73.77
13:06:30.296875,-83.11
13:06:30.312500,-84.34
13:06:30.328125,-79.90
13:06:30.343750,-73.28
13:06:30.359375,-67.79
13:06:30.375000,-65.61
13:06:30.390625,-67.68
13:06:30.406250,-73.94
13:06:30.421875,-83.42
13:06:30.437500,-94.17
13:06:30.453125,-103.25
13:06:30.468750,-107.24
13:06:30.484375,-103.37
13:06:30.500000,-90.82
13:06:30.515625,-71.27
13:06:30.531250,-48.38
13:06:30.546875,-26.32
13:06:30.562500,-8.22
13:06:30.578125,4.84
13:06:30.593750,13.58
13:06:30.609375,19.56
13:06:30.625000,24.15
13:06:30.640625,28.07
13:06:30.656250,31.50
13:06:30.671875,34.54
13:06:30.687500,37.41
13:06:30.703125,40.32
13:06:30.718750,43.20
13:06:30.734375,45.61
13:06:30.750000,46.98
13:06:30.765625,47.06
13:06:30.781250,46.06
13:06:30.796875,44.66
13:06:30.812500,43.58
13:06:30.828125,43.31
13:06:30.843750,43.97
13:06:30.859375,45.40
13:06:30.875000,47.23
13:06:30.890625,48.89
13:06:30.906250,49.71
13:06:30.921875,48.99
13:06:30.937500,46.39
13:06:30.953125,42.15
13:06:30.968750,37.11
13:06:30.984375,32.38
13:06:31,28.89
13:06:31.015625,26.96
13:06:31.031250,26.25
13:06:31.046875,25.99
13:06:31.062500,25.27
13:06:31.078125,23.38
13:06:31.093750,19.85
13:06:31.109375,14.54
13:06:31.125000,7.59
13:06:31.140625,-0.39
13:06:31.156250,-8.62
13:06:31.171875,-16.22
13:06:31.187500,-22.62
13:06:31.203125,-27.73
13:06:31.218750,-32.01
13:06:31.234375,-36.07
13:06:31.250000,-40.44
13:06:31.265625,-45.38
13:06:31.281250,-50.94
13:06:31.296875,-57.26
13:06:31.312500,-64.65
13:06:31.328125,-73.48
13:06:31.343750,-83.78
13:06:31.359375,-94.96
13:06:31.375000,-105.82
13:06:31.390625,-114.88
13:06:31.406250,-120.93
13:06:31.421875,-123.29
13:06:31.437500,-121.74
13:06:31.453125,-116.28
13:06:31.468750,-106.98
13:06:31.484375,-94.02
13:06:31.500000,-78.05
13:06:31.515625,-60.33
13:06:31.531250,-42.44
13:06:31.546875,-25.81
13:06:31.562500,-11.09
13:06:31.578125,1.99
13:06:31.593750,14.22
13:06:31.609375,26.21
13:06:31.625000,37.88
13:06:31.640625,48.53
13:06:31.656250,57.24
13:06:31.671875,63.61
13:06:31.687500,67.89
13:06:31.703125,70.78
13:06:31.718750,72.91
13:06:31.734375,74.47
13:06:31.750000,75.16
13:06:31.765625,74.59
13:06:31.781250,72.61
13:06:31.796875,69.50
13:06:31.812500,65.97
13:06:31.828125,62.82
13:06:31.843750,60.70
13:06:31.859375,59.85
13:06:31.875000,60.09
13:06:31.890625,60.82
13:06:31.906250,61.34
13:06:31.921875,60.99
13:06:31.937500,59.38
13:06:31.953125,56.51
13:06:31.968750,52.65
13:06:31.984375,48.22
13:06:32,43.57
13:06:32.015625,38.82
13:06:32.031250,33.94
13:06:32.046875,28.89
13:06:32.062500,23.74
13:06:32.078125,18.83
13:06:32.093750,14.46
13:06:32.109375,10.81
13:06:32.125000,7.71
13:06:32.140625,4.61
13:06:32.156250,0.72
13:06:32.171875,-4.73
13:06:32.187500,-11.98
13:06:32.203125,-20.65
13:06:32.218750,-29.66
13:06:32.234375,-37.66
13:06:32.250000,-43.56
13:06:32.265625,-47.00
13:06:32.281250,-48.50
13:06:32.296875,-49.11
13:06:32.312500,-50.00
13:06:32.328125,-52.00
13:06:32.343750,-55.57
13:06:32.359375,-60.85
13:06:32.375000,-67.95
13:06:32.390625,-76.90
13:06:32.406250,-87.43
13:06:32.421875,-98.43
13:06:32.437500,-107.84
13:06:32.453125,-113.04
13:06:32.468750,-111.80
13:06:32.484375,-103.43
13:06:32.500000,-89.20
13:06:32.515625,-71.97
13:06:32.531250,-54.85
13:06:32.546875,-39.85
13:06:32.562500,-27.18
13:06:32.578125,-15.46
13:06:32.593750,-2.90
13:06:32.609375,11.35
13:06:32.625000,26.56
13:06:32.640625,40.71
13:06:32.656250,51.54
13:06:32.671875,57.73
13:06:32.687500,59.46
13:06:32.703125,58.14
13:06:32.718750,55.74
13:06:32.734375,53.87
13:06:32.750000,53.51
13:06:32.765625,54.93
13:06:32.781250,57.94
13:06:32.796875,61.98
13:06:32.812500,66.29
13:06:32.828125,69.74
13:06:32.843750,71.14
13:06:32.859375,69.49
13:06:32.875000,64.50
13:06:32.890625,56.85
13:06:32.906250,47.95
13:06:32.921875,39.47
13:06:32.937500,32.50
13:06:32.953125,27.26
13:06:32.968750,23.11
13:06:32.984375,18.98
13:06:33,13.96
13:06:33.015625,7.57
13:06:33.031250,-0.07
13:06:33.046875,-8.47
13:06:33.062500,-17.04
13:06:33.078125,-25.29
13:06:33.093750,-32.78
13:06:33.109375,-39.11
13:06:33.125000,-43.76
13:06:33.140625,-46.28
13:06:33.156250,-46.41
13:06:33.171875,-44.22
13:06:33.187500,-40.16
13:06:33.203125,-34.93
13:06:33.218750,-29.35
13:06:33.234375,-24.33
13:06:33.250000,-20.88
13:06:33.265625,-20.08
13:06:33.281250,-23.03
13:06:33.296875,-30.77
13:06:33.312500,-44.05
13:06:33.328125,-63.35
13:06:33.343750,-88.62
13:06:33.359375,-119.10
13:06:33.375000,-152.87
13:06:33.390625,-186.61
13:06:33.406250,-215.48
13:06:33.421875,-233.93
13:06:33.437500,-237.14
13:06:33.453125,-222.85
13:06:33.468750,-192.46
13:06:33.484375,-150.96
13:06:33.500000,-105.78
13:06:33.515625,-65.12
13:06:33.531250,-36.28
13:06:33.546875,-24.19
13:06:33.562500,-30.41
13:06:33.578125,-52.16
13:06:33.593750,-82.40
13:06:33.609375,-110.90
13:06:33.625000,-126.75
13:06:33.640625,-121.47
13:06:33.656250,-91.87
13:06:33.671875,-41.36
13:06:33.687500,21.02
13:06:33.703125,83.30
13:06:33.718750,133.94
13:06:33.734375,164.42
13:06:33.750000,170.64
13:06:33.765625,153.20
13:06:33.781250,116.90
13:06:33.796875,69.60
13:06:33.812500,20.34
13:06:33.828125,-23.29
13:06:33.843750,-57.68
13:06:33.859375,-83.90
13:06:33.875000,-106.40
13:06:33.890625,-129.83
13:06:33.906250,-155.85
13:06:33.921875,-181.81
13:06:33.937500,-201.88
13:06:33.953125,-210.06
13:06:33.968750,-203.32
13:06:33.984375,-182.89
13:06:34,-153.17
13:06:34.015625,-119.33
13:06:34.031250,-84.80
13:06:34.046875,-50.50
13:06:34.062500,-15.70
13:06:34.078125,20.49
13:06:34.093750,57.62
13:06:34.109375,93.60
13:06:34.125000,125.18
13:06:34.140625,149.26
13:06:34.156250,164.21
13:06:34.171875,170.40
13:06:34.187500,170.09
13:06:34.203125,166.32
13:06:34.218750,161.61
13:06:34.234375,157.04
13:06:34.250000,152.16
13:06:34.265625,146.02
13:06:34.281250,138.62
13:06:34.296875,131.82
13:06:34.312500,128.82
13:06:34.328125,132.32
13:06:34.343750,142.22
13:06:34.359375,154.78
13:06:34.375000,163.91
13:06:34.390625,164.20
13:06:34.406250,154.16
13:06:34.421875,137.44
13:06:34.437500,121.47
13:06:34.453125,114.03
13:06:34.468750,119.52
13:06:34.484375,136.93
13:06:34.500000,160.47
13:06:34.515625,181.89
13:06:34.531250,193.65
13:06:34.546875,191.20
13:06:34.562500,173.63
13:06:34.578125,143.37
13:06:34.593750,104.87
13:06:34.609375,63.45
13:06:34.625000,24.57
13:06:34.640625,-7.10
13:06:34.656250,-28.51
13:06:34.671875,-38.57
13:06:34.687500,-38.06
13:06:34.703125,-28.98
13:06:34.718750,-13.12
13:06:34.734375,7.63
13:06:34.750000,31.02
13:06:34.765625,54.21
13:06:34.781250,74.56
13:06:34.796875,90.10
13:06:34.812500,100.40
13:06:34.828125,105.93
13:06:34.843750,107.19
13:06:34.859375,105.25
13:06:34.875000,100.58
13:06:34.890625,93.30
13:06:34.906250,83.97
13:06:34.921875,74.63
13:06:34.937500,67.91
13:06:34.953125,66.11
13:06:34.968750,68.72
13:06:34.984375,72.10
13:06:35,73.03
13:06:35.015625,69.64
13:06:35.031250,62.37
13:06:35.046875,53.61
13:06:35.062500,46.21
13:06:35.078125,40.74
13:06:35.093750,35.37
13:06:35.109375,25.69
13:06:35.125000,7.73
13:06:35.140625,-16.67
13:06:35.156250,-41.16
13:06:35.171875,-58.07
13:06:35.187500,-62.23
13:06:35.203125,-53.24
13:06:35.218750,-36.07
13:06:35.234375,-17.20
13:06:35.250000,-2.96
13:06:35.265625,-9.84
13:06:35.281250,-44.61
13:06:35.296875,-100.84
13:06:35.312500,-162.84
13:06:35.328125,-216.66
13:06:35.343750,-252.01
13:06:35.359375,-273.96
13:06:35.375000,-287.20
13:06:35.390625,-294.04
13:06:35.406250,-295.07
13:06:35.421875,-289.15
13:06:35.437500,-275.28
13:06:35.453125,-254.61
13:06:35.468750,-230.17
13:06:35.484375,-204.84
13:06:35.500000,-180.46
13:06:35.515625,-155.50
13:06:35.531250,-127.24
13:06:35.546875,-93.04
13:06:35.562500,-50.22
13:06:35.578125,0.64
13:06:35.593750,54.14
13:06:35.609375,101.14
13:06:35.625000,132.70
13:06:35.640625,143.68
13:06:35.656250,136.45
13:06:35.671875,118.86
13:06:35.687500,100.84
13:06:35.703125,91.23
13:06:35.718750,93.68
13:06:35.734375,105.62
13:06:35.750000,120.59
13:06:35.765625,132.40
13:06:35.781250,137.94
13:06:35.796875,138.48
13:06:35.812500,137.18
13:06:35.828125,136.48
13:06:35.843750,137.16
13:06:35.859375,137.93
13:06:35.875000,136.45
13:06:35.890625,130.91
13:06:35.906250,121.16
13:06:35.921875,108.56
13:06:35.937500,95.42
13:06:35.953125,83.57
13:06:35.968750,73.64
13:06:35.984375,65.46
13:06:36,58.28
13:06:36.015625,51.30
13:06:36.031250,43.86
13:06:36.046875,35.55
13:06:36.062500,26.03
13:06:36.078125,15.03
13:06:36.093750,2.46
13:06:36.109375,-11.34
13:06:36.125000,-25.19
13:06:36.140625,-37.14
13:06:36.156250,-44.95
13:06:36.171875,-46.98
13:06:36.187500,-42.88
13:06:36.203125,-34.10
13:06:36.218750,-23.39
13:06:36.234375,-13.87
13:06:36.250000,-7.82
13:06:36.265625,-5.85
13:06:36.281250,-6.97
13:06:36.296875,-9.46
13:06:36.312500,-11.95
13:06:36.328125,-14.21
13:06:36.343750,-17.08
13:06:36.359375,-21.77
13:06:36.375000,-29.06
13:06:36.390625,-38.80
13:06:36.406250,-50.06
13:06:36.421875,-61.62
13:06:36.437500,-72.57
13:06:36.453125,-82.51
13:06:36.468750,-91.29
13:06:36.484375,-98.54
13:06:36.500000,-103.46
13:06:36.515625,-104.99
13:06:36.531250,-102.34
13:06:36.546875,-95.52
13:06:36.562500,-85.69
13:06:36.578125,-74.82
13:06:36.593750,-64.96
13:06:36.609375,-57.39
13:06:36.625000,-52.11
13:06:36.640625,-47.71
13:06:36.656250,-42.11
13:06:36.671875,-33.51
13:06:36.687500,-21.11
13:06:36.703125,-5.48
13:06:36.718750,11.60
13:06:36.734375,27.67
13:06:36.750000,40.31
13:06:36.765625,47.86
13:06:36.781250,49.84
13:06:36.796875,46.93
13:06:36.812500,40.62
13:06:36.828125,32.51
13:06:36.843750,23.83
13:06:36.859375,15.24
13:06:36.875000,6.96
13:06:36.890625,-0.83
13:06:36.906250,-7.77
13:06:36.921875,-13.54
13:06:36.937500,-18.17
13:06:36.953125,-22.37
13:06:36.968750,-27.37
13:06:36.984375,-34.15
13:06:37,-42.55
13:06:37.015625,-50.91
13:06:37.031250,-56.42
13:06:37.046875,-56.32
13:06:37.062500,-49.25
13:06:37.078125,-36.00
13:06:37.093750,-19.11
13:06:37.109375,-1.82
13:06:37.125000,13.16
13:06:37.140625,24.59
13:06:37.156250,32.70
13:06:37.171875,38.46
13:06:37.187500,42.83
13:06:37.203125,46.17
13:06:37.218750,48.39
13:06:37.234375,49.27
13:06:37.250000,48.84
13:06:37.265625,47.26
13:06:37.281250,44.76
13:06:37.296875,41.34
13:06:37.312500,36.94
13:06:37.328125,31.84
13:06:37.343750,26.94
13:06:37.359375,23.67
13:06:37.375000,23.38
13:06:37.390625,26.53
13:06:37.406250,32.18
13:06:37.421875,38.27
13:06:37.437500,42.40
13:06:37.453125,42.80
13:06:37.468750,38.93
13:06:37.484375,31.41
13:06:37.500000,21.41
13:06:37.515625,9.95
13:06:37.531250,-2.43
13:06:37.546875,-15.54
13:06:37.562500,-29.06
13:06:37.578125,-42.22
13:06:37.593750,-53.75
13:06:37.609375,-62.24
13:06:37.625000,-66.66
13:06:37.640625,-66.71
13:06:37.656250,-62.99
13:06:37.671875,-56.82
13:06:37.687500,-49.96
13:06:37.703125,-44.26
13:06:37.718750,-41.34
13:06:37.734375,-42.19
13:06:37.750000,-46.98
13:06:37.765625,-54.88
13:06:37.781250,-64.27
13:06:37.796875,-73.05
13:06:37.812500,-79.21
13:06:37.828125,-81.24
13:06:37.843750,-78.42
13:06:37.859375,-70.87
13:06:37.875000,-59.33
13:06:37.890625,-44.97
13:06:37.906250,-29.04
13:06:37.921875,-12.63
13:06:37.937500,3.44
13:06:37.953125,18.60
13:06:37.968750,32.35
13:06:37.984375,44.09
13:06:38,53.13
13:06:38.015625,58.97
13:06:38.031250,61.61
13:06:38.046875,61.74
13:06:38.062500,60.54
13:06:38.078125,59.21
13:06:38.093750,58.47
13:06:38.109375,58.36
13:06:38.125000,58.40
13:06:38.140625,58.02
13:06:38.156250,56.87
13:06:38.171875,54.87
13:06:38.187500,52.15
13:06:38.203125,48.88
13:06:38.218750,45.25
13:06:38.234375,41.49
13:06:38.250000,37.88
13:06:38.265625,34.65
13:06:38.281250,31.82
13:06:38.296875,29.19
13:06:38.312500,26.53
13:06:38.328125,23.77
13:06:38.343750,21.12
13:06:38.359375,19.01
13:06:38.375000,17.72
13:06:38.390625,17.12
13:06:38.406250,16.71
13:06:38.421875,15.76
13:06:38.437500,13.60
13:06:38.453125,9.77
13:06:38.468750,4.02
13:06:38.484375,-3.82
13:06:38.500000,-13.77
13:06:38.515625,-25.56
13:06:38.531250,-38.40
13:06:38.546875,-50.86
13:06:38.562500,-61.22
13:06:38.578125,-67.83
13:06:38.593750,-69.67
13:06:38.609375,-66.60
13:06:38.625000,-59.33
13:06:38.640625,-49.12
13:06:38.656250,-37.34
13:06:38.671875,-25.13
13:06:38.687500,-13.33
13:06:38.703125,-2.40
13:06:38.718750,7.44
13:06:38.734375,16.16
13:06:38.750000,23.86
13:06:38.765625,30.70
13:06:38.781250,36.82
13:06:38.796875,42.21
13:06:38.812500,46.69
13:06:38.828125,50.00
13:06:38.843750,51.83
13:06:38.859375,52.07
13:06:38.875000,50.78
13:06:38.890625,48.28
13:06:38.906250,45.07
13:06:38.921875,41.70
13:06:38.937500,38.75
13:06:38.953125,36.57
13:06:38.968750,35.26
13:06:38.984375,34.61
13:06:39,34.20
13:06:39.015625,33.52
13:06:39.031250,32.14
13:06:39.046875,29.74
13:06:39.062500,26.22
13:06:39.078125,21.61
13:06:39.093750,16.06
13:06:39.109375,9.79
13:06:39.125000,3.13
13:06:39.140625,-3.54
13:06:39.156250,-9.86
13:06:39.171875,-15.57
13:06:39.187500,-20.65
13:06:39.203125,-25.37
13:06:39.218750,-30.20
13:06:39.234375,-35.66
13:06:39.250000,-42.23
13:06:39.265625,-50.07
13:06:39.281250,-59.02
13:06:39.296875,-68.44
13:06:39.312500,-77.29
13:06:39.328125,-84.24
13:06:39.343750,-87.96
13:06:39.359375,-87.45
13:06:39.375000,-82.37
13:06:39.390625,-73.16
13:06:39.406250,-60.92
13:06:39.421875,-47.14
13:06:39.437500,-33.23
13:06:39.453125,-20.15
13:06:39.468750,-8.30
13:06:39.484375,2.48
13:06:39.500000,12.61
13:06:39.515625,22.52
13:06:39.531250,32.38
13:06:39.546875,42.06
13:06:39.562500,51.19
13:06:39.578125,59.30
13:06:39.593750,65.95
13:06:39.609375,70.84
13:06:39.625000,73.81
13:06:39.640625,74.82
13:06:39.656250,73.96
13:06:39.671875,71.47
13:06:39.687500,67.79
13:06:39.703125,63.43
13:06:39.718750,58.90
13:06:39.734375,54.52
13:06:39.750000,50.37
13:06:39.765625,46.30
13:06:39.781250,42.12
13:06:39.796875,37.70
13:06:39.812500,33.01
13:06:39.828125,28.08
13:06:39.843750,22.83
13:06:39.859375,17.09
13:06:39.875000,10.70
13:06:39.890625,3.62
13:06:39.906250,-3.95
13:06:39.921875,-11.67
13:06:39.937500,-19.11
13:06:39.953125,-26.02
13:06:39.968750,-32.46
13:06:39.984375,-38.71
13:06:40,-45.28
13:06:40.015625,-52.62
13:06:40.031250,-61.11
13:06:40.046875,-70.84
13:06:40.062500,-81.64
13:06:40.078125,-92.88
13:06:40.093750,-103.61
13:06:40.109375,-112.63
13:06:40.125000,-118.69
13:06:40.140625,-120.85
13:06:40.156250,-118.72
13:06:40.171875,-112.52
13:06:40.187500,-103.01
13:06:40.203125,-91.19
13:06:40.218750,-78.06
13:06:40.234375,-64.44
13:06:40.250000,-50.92
13:06:40.265625,-37.94
13:06:40.281250,-25.89
13:06:40.296875,-15.12
13:06:40.312500,-5.98
13:06:40.328125,1.23
13:06:40.343750,6.32
13:06:40.359375,9.28
13:06:40.375000,10.27
13:06:40.390625,9.65
13:06:40.406250,7.94
13:06:40.421875,5.75
13:06:40.437500,3.67
13:06:40.453125,2.11
13:06:40.468750,1.34
13:06:40.484375,1.38
13:06:40.500000,2.13
13:06:40.515625,3.45
13:06:40.531250,5.20
13:06:40.546875,7.28
13:06:40.562500,9.71
13:06:40.578125,12.55
13:06:40.593750,15.86
13:06:40.609375,19.61
13:06:40.625000,23.61
13:06:40.640625,27.49
13:06:40.656250,30.84
13:06:40.671875,33.36
13:06:40.687500,35.03
13:06:40.703125,36.09
13:06:40.718750,36.82
13:06:40.734375,37.42
13:06:40.750000,37.76
13:06:40.765625,37.44
13:06:40.781250,35.88
13:06:40.796875,32.59
13:06:40.812500,27.27
13:06:40.828125,19.87
13:06:40.843750,10.64
13:06:40.859375,0.12
13:06:40.875000,-10.88
13:06:40.890625,-21.23
13:06:40.906250,-29.61
13:06:40.921875,-34.79
13:06:40.937500,-35.91
13:06:40.953125,-32.78
13:06:40.968750,-25.91
13:06:40.984375,-16.29
13:06:41,-5.10
13:06:41.015625,6.65
13:06:41.031250,18.29
13:06:41.046875,29.52
13:06:41.062500,40.30
13:06:41.078125,50.71
13:06:41.093750,60.82
13:06:41.109375,70.61
13:06:41.125000,79.88
13:06:41.140625,88.26
13:06:41.156250,95.25
13:06:41.171875,100.45
13:06:41.187500,103.74
13:06:41.203125,105.49
13:06:41.218750,106.53
13:06:41.234375,107.96
13:06:41.250000,110.69
13:06:41.265625,115.10
13:06:41.281250,120.85
13:06:41.296875,127.06
13:06:41.312500,132.76
13:06:41.328125,137.31
13:06:41.343750,140.68
13:06:41.359375,143.48
13:06:41.375000,146.60
13:06:41.390625,150.73
13:06:41.406250,156.10
13:06:41.421875,162.30
13:06:41.437500,168.50
13:06:41.453125,173.76
13:06:41.468750,177.48
13:06:41.484375,179.52
13:06:41.500000,180.27
13:06:41.515625,180.44
13:06:41.531250,180.60
13:06:41.546875,180.92
13:06:41.562500,181.01
13:06:41.578125,179.80
13:06:41.593750,175.69
13:06:41.609375,166.72
13:06:41.625000,150.87
13:06:41.640625,126.80
13:06:41.656250,94.96
13:06:41.671875,58.59
13:06:41.687500,23.83
13:06:41.703125,-1.77
13:06:41.718750,-12.12
13:06:41.734375,-5.38
13:06:41.750000,14.68
13:06:41.765625,40.02
13:06:41.781250,61.82
13:06:41.796875,74.37
13:06:41.812500,77.25
13:06:41.828125,74.64
13:06:41.843750,72.26
13:06:41.859375,73.70
13:06:41.875000,78.37
13:06:41.890625,81.91
13:06:41.906250,78.54
13:06:41.921875,63.84
13:06:41.937500,36.09
13:06:41.953125,-4.26
13:06:41.968750,-56.03
13:06:41.984375,-118.32
13:06:42,-190.15
13:06:42.015625,-269.12
13:06:42.031250,-350.03
13:06:42.046875,-424.66
13:06:42.062500,-483.57
13:06:42.078125,-518.93
13:06:42.093750,-526.91
13:06:42.109375,-508.87
13:06:42.125000,-470.48
13:06:42.140625,-419.27
13:06:42.156250,-362.31
13:06:42.171875,-304.85
13:06:42.187500,-250.66
13:06:42.203125,-202.64
13:06:42.218750,-163.29
13:06:42.234375,-134.36
13:06:42.250000,-115.85
13:06:42.265625,-105.09
13:06:42.281250,-97.01
13:06:42.296875,-85.46
13:06:42.312500,-65.65
13:06:42.328125,-36.30
13:06:42.343750,-0.59
13:06:42.359375,34.52
13:06:42.375000,61.10
13:06:42.390625,73.79
13:06:42.406250,72.75
13:06:42.421875,63.83
13:06:42.437500,55.74
13:06:42.453125,55.52
13:06:42.468750,64.50
13:06:42.484375,77.74
13:06:42.500000,87.28
13:06:42.515625,87.50
13:06:42.531250,78.60
13:06:42.546875,67.23
13:06:42.562500,62.47
13:06:42.578125,70.47
13:06:42.593750,91.01
13:06:42.609375,117.62
13:06:42.625000,141.09
13:06:42.640625,154.18
13:06:42.656250,154.94
13:06:42.671875,146.64
13:06:42.687500,135.25
13:06:42.703125,125.92
13:06:42.718750,120.32
13:06:42.734375,116.10
13:06:42.750000,108.13
13:06:42.765625,91.00
13:06:42.781250,61.85
13:06:42.796875,22.25
13:06:42.812500,-21.66
13:06:42.828125,-61.47
13:06:42.843750,-90.08
13:06:42.859375,-105.19
13:06:42.875000,-110.76
13:06:42.890625,-115.56
13:06:42.906250,-129.30
13:06:42.921875,-157.99
13:06:42.937500,-201.19
13:06:42.953125,-252.04
13:06:42.968750,-301.19
13:06:42.984375,-341.95
13:06:43,-373.91
13:06:43.015625,-402.60
13:06:43.031250,-435.62
13:06:43.046875,-477.04
13:06:43.062500,-523.81
13:06:43.078125,-566.39
13:06:43.093750,-593.38
13:06:43.109375,-597.42
13:06:43.125000,-578.80
13:06:43.140625,-545.02
13:06:43.156250,-506.24
13:06:43.171875,-470.52
13:06:43.187500,-440.34
13:06:43.203125,-413.14
13:06:43.218750,-384.36
13:06:43.234375,-350.97
13:06:43.250000,-313.41
13:06:43.265625,-274.95
13:06:43.281250,-239.64
13:06:43.296875,-210.12
13:06:43.312500,-186.37
13:06:43.328125,-166.08
13:06:43.343750,-145.99
13:06:43.359375,-123.60
13:06:43.375000,-98.30
13:06:43.390625,-71.71
13:06:43.406250,-46.83
13:06:43.421875,-26.76
13:06:43.437500,-13.36
13:06:43.453125,-6.43
13:06:43.468750,-3.71
13:06:43.484375,-1.73
13:06:43.500000,3.00
13:06:43.515625,12.85
13:06:43.531250,28.47
13:06:43.546875,48.90
13:06:43.562500,72.45
13:06:43.578125,97.46
13:06:43.593750,123.18
13:06:43.609375,150.00
13:06:43.625000,179.10
13:06:43.640625,212.00
13:06:43.656250,250.29
13:06:43.671875,295.56
13:06:43.687500,349.09
13:06:43.703125,410.89
13:06:43.718750,478.37
13:06:43.734375,545.49
13:06:43.750000,603.31
13:06:43.765625,642.24
13:06:43.781250,655.29
13:06:43.796875,640.79
13:06:43.812500,602.98
13:06:43.828125,550.14
13:06:43.843750,491.15
13:06:43.859375,432.22
13:06:43.875000,375.39
13:06:43.890625,319.13
13:06:43.906250,260.48
13:06:43.921875,197.33
13:06:43.937500,129.75
13:06:43.953125,60.07
13:06:43.968750,-7.79
13:06:43.984375,-69.37
13:06:44,-120.44
13:06:44.015625,-157.78
13:06:44.031250,-179.67
13:06:44.046875,-186.32
13:06:44.062500,-179.61
13:06:44.078125,-162.73
13:06:44.093750,-139.39
13:06:44.109375,-113.21
13:06:44.125000,-87.13
13:06:44.140625,-63.24
13:06:44.156250,-42.52
13:06:44.171875,-24.56
13:06:44.187500,-7.46
13:06:44.203125,11.71
13:06:44.218750,35.48
13:06:44.234375,64.31
13:06:44.250000,95.61
13:06:44.265625,124.47
13:06:44.281250,145.61
13:06:44.296875,155.85
13:06:44.312500,155.34
13:06:44.328125,146.95
13:06:44.343750,134.31
13:06:44.359375,120.01
13:06:44.375000,105.20
13:06:44.390625,90.56
13:06:44.406250,77.84
13:06:44.421875,70.22
13:06:44.437500,71.17
13:06:44.453125,82.27
13:06:44.468750,101.56
13:06:44.484375,123.85
13:06:44.500000,142.79
13:06:44.515625,153.81
13:06:44.531250,156.00
13:06:44.546875,152.08
13:06:44.562500,146.62
13:06:44.578125,143.82
13:06:44.593750,145.95
13:06:44.609375,152.93
13:06:44.625000,162.87
13:06:44.640625,173.09
13:06:44.656250,180.77
13:06:44.671875,183.18
13:06:44.687500,177.65
13:06:44.703125,162.05
13:06:44.718750,135.37
13:06:44.734375,98.56
13:06:44.750000,54.64
13:06:44.765625,8.22
13:06:44.781250,-35.56
13:06:44.796875,-72.17
13:06:44.812500,-98.64
13:06:44.828125,-113.65
13:06:44.843750,-117.85
13:06:44.859375,-113.67
13:06:44.875000,-105.23
13:06:44.890625,-97.85
13:06:44.906250,-96.80
13:06:44.921875,-105.57
13:06:44.937500,-124.23
13:06:44.953125,-149.18
13:06:44.968750,-174.51
13:06:44.984375,-194.73
13:06:45,-207.39
13:06:45.015625,-214.02
13:06:45.031250,-219.12
13:06:45.046875,-227.62
13:06:45.062500,-242.38
13:06:45.078125,-263.04
13:06:45.093750,-286.33
13:06:45.109375,-307.59
13:06:45.125000,-322.54
13:06:45.140625,-328.48
13:06:45.156250,-324.45
13:06:45.171875,-310.87
13:06:45.187500,-288.95
13:06:45.203125,-260.23
13:06:45.218750,-226.39
13:06:45.234375,-189.14
13:06:45.250000,-150.02
13:06:45.265625,-110.44
13:06:45.281250,-71.45
13:06:45.296875,-33.56
13:06:45.312500,3.08
13:06:45.328125,38.67
13:06:45.343750,73.03
13:06:45.359375,105.16
13:06:45.375000,133.56
13:06:45.390625,157.25
13:06:45.406250,177.09
13:06:45.421875,195.79
13:06:45.437500,216.78
13:06:45.453125,241.57
13:06:45.468750,267.98
13:06:45.484375,290.30
13:06:45.500000,301.90
13:06:45.515625,299.04
13:06:45.531250,283.34
13:06:45.546875,261.19
13:06:45.562500,240.35
13:06:45.578125,225.59
13:06:45.593750,216.44
13:06:45.609375,208.18
13:06:45.625000,195.31
13:06:45.640625,174.87
13:06:45.656250,147.83
13:06:45.671875,117.91
13:06:45.687500,89.22
13:06:45.703125,64.25
13:06:45.718750,43.60
13:06:45.734375,27.00
13:06:45.750000,14.52
13:06:45.765625,6.87
13:06:45.781250,4.73
13:06:45.796875,7.72
13:06:45.812500,13.67
13:06:45.828125,19.06
13:06:45.843750,20.43
13:06:45.859375,15.77
13:06:45.875000,5.06
13:06:45.890625,-9.90
13:06:45.906250,-26.59
13:06:45.921875,-42.86
13:06:45.937500,-57.57
13:06:45.953125,-70.85
13:06:45.968750,-83.69
13:06:45.984375,-97.03
13:06:46,-110.88
13:06:46.015625,-123.95
13:06:46.031250,-134.32
13:06:46.046875,-140.49
13:06:46.062500,-142.33
13:06:46.078125,-140.93
13:06:46.093750,-137.69
13:06:46.109375,-132.68
13:06:46.125000,-124.20
13:06:46.140625,-109.21
13:06:46.156250,-85.18
13:06:46.171875,-51.73
13:06:46.187500,-11.39
13:06:46.203125,30.88
13:06:46.218750,69.48
13:06:46.234375,99.74
13:06:46.250000,118.99
13:06:46.265625,126.84
13:06:46.281250,124.91
13:06:46.296875,116.70
13:06:46.312500,107.65
13:06:46.328125,104.69
13:06:46.343750,114.84
13:06:46.359375,142.83
13:06:46.375000,188.68
13:06:46.390625,246.71
13:06:46.406250,306.83
13:06:46.421875,357.63
13:06:46.437500,390.25
13:06:46.453125,401.10
13:06:46.468750,392.40
13:06:46.484375,370.34
13:06:46.500000,342.22
13:06:46.515625,313.71
13:06:46.531250,287.70
13:06:46.546875,264.66
13:06:46.562500,243.87
13:06:46.578125,224.53
13:06:46.593750,206.03
13:06:46.609375,187.77
13:06:46.625000,168.62
13:06:46.640625,147.14
13:06:46.656250,122.12
13:06:46.671875,93.33
13:06:46.687500,61.73
13:06:46.703125,28.97
13:06:46.718750,-3.17
13:06:46.734375,-33.71
13:06:46.750000,-62.82
13:06:46.765625,-91.88
13:06:46.781250,-122.85
13:06:46.796875,-157.53
13:06:46.812500,-196.62
13:06:46.828125,-238.73
13:06:46.843750,-280.17
13:06:46.859375,-315.54
13:06:46.875000,-339.47
13:06:46.890625,-348.71
13:06:46.906250,-343.62
13:06:46.921875,-327.83
13:06:46.937500,-306.56
13:06:46.953125,-284.07
13:06:46.968750,-262.12
13:06:46.984375,-240.11
13:06:47,-216.42
13:06:47.015625,-190.12
13:06:47.031250,-161.51
13:06:47.046875,-131.65
13:06:47.062500,-101.37
13:06:47.078125,-70.79
13:06:47.093750,-39.82
13:06:47.109375,-8.91
13:06:47.125000,20.53
13:06:47.140625,46.85
13:06:47.156250,69.05
13:06:47.171875,87.33
13:06:47.187500,102.55
13:06:47.203125,115.16
13:06:47.218750,124.69
13:06:47.234375,130.36
13:06:47.250000,132.47
13:06:47.265625,132.98
13:06:47.281250,134.65
13:06:47.296875,139.07
13:06:47.312500,145.19
13:06:47.328125,149.76
13:06:47.343750,149.37
13:06:47.359375,142.97
13:06:47.375000,132.58
13:06:47.390625,121.64
13:06:47.406250,112.07
13:06:47.421875,102.23
13:06:47.437500,87.72
13:06:47.453125,64.55
13:06:47.468750,32.71
13:06:47.484375,-2.53
13:06:47.500000,-32.97
13:06:47.515625,-51.88
13:06:47.531250,-57.67
13:06:47.546875,-54.72
13:06:47.562500,-50.97
13:06:47.578125,-53.78
13:06:47.593750,-66.87
13:06:47.609375,-89.78
13:06:47.625000,-119.50
13:06:47.640625,-152.50
13:06:47.656250,-185.61
13:06:47.671875,-215.64
13:06:47.687500,-238.74
13:06:47.703125,-250.70
13:06:47.718750,-248.58
13:06:47.734375,-232.90
13:06:47.750000,-208.26
13:06:47.765625,-181.65
13:06:47.781250,-159.50
13:06:47.796875,-145.17
13:06:47.812500,-138.49
13:06:47.828125,-137.21
13:06:47.843750,-138.94
13:06:47.859375,-141.90
13:06:47.875000,-143.98
13:06:47.890625,-141.61
13:06:47.906250,-130.01
13:06:47.921875,-105.30
13:06:47.937500,-67.29
13:06:47.953125,-20.90
13:06:47.968750,25.07
13:06:47.984375,62.06
13:06:48,85.75
13:06:48.015625,98.09
13:06:48.031250,106.03
13:06:48.046875,117.36
13:06:48.062500,136.34
13:06:48.078125,161.60
13:06:48.093750,187.30
13:06:48.109375,206.70
13:06:48.125000,215.87
13:06:48.140625,215.12
13:06:48.156250,208.12
13:06:48.171875,198.95
13:06:48.187500,188.99
13:06:48.203125,176.03
13:06:48.218750,156.13
13:06:48.234375,127.31
13:06:48.250000,92.36
13:06:48.265625,59.16
13:06:48.281250,37.08
13:06:48.296875,31.88
13:06:48.312500,41.75
13:06:48.328125,56.94
13:06:48.343750,64.44
13:06:48.359375,54.30
13:06:48.375000,24.26
13:06:48.390625,-19.77
13:06:48.406250,-67.35
13:06:48.421875,-108.61
13:06:48.437500,-137.72
13:06:48.453125,-153.66
13:06:48.468750,-159.86
13:06:48.484375,-161.46
13:06:48.500000,-163.21
13:06:48.515625,-168.32
13:06:48.531250,-178.40
13:06:48.546875,-193.74
13:06:48.562500,-212.87
13:06:48.578125,-232.16
13:06:48.593750,-246.64
13:06:48.609375,-253.91
13:06:48.625000,-254.93
13:06:48.640625,-254.53
13:06:48.656250,-259.22
13:06:48.671875,-273.99
13:06:48.687500,-299.33
13:06:48.703125,-330.06
13:06:48.718750,-356.27
13:06:48.734375,-367.10
13:06:48.750000,-358.18
13:06:48.765625,-331.61
13:06:48.781250,-294.11
13:06:48.796875,-252.27
13:06:48.812500,-209.61
13:06:48.828125,-166.92
13:06:48.843750,-124.08
13:06:48.859375,-81.36
13:06:48.875000,-40.24
13:06:48.890625,-6.22
13:06:48.906250,15.60
13:06:48.921875,22.20
13:06:48.937500,13.00
13:06:48.953125,-12.42
13:06:48.968750,-56.22
13:06:48.984375,-121.03
13:06:49,-205.78
13:06:49.015625,-279.81
13:06:49.031250,-310.28
13:06:49.046875,-276.83
13:06:49.062500,-187.27
13:06:49.078125,-71.34
13:06:49.093750,39.32
13:06:49.109375,125.50
13:06:49.125000,183.28
13:06:49.140625,219.51
13:06:49.156250,244.53
13:06:49.171875,262.16
13:06:49.187500,270.76
13:06:49.203125,266.28
13:06:49.218750,247.85
13:06:49.234375,219.80
13:06:49.250000,189.63
13:06:49.265625,164.85
13:06:49.281250,150.25
13:06:49.296875,146.74
13:06:49.312500,148.81
13:06:49.328125,148.74
13:06:49.343750,140.24
13:06:49.359375,121.90
13:06:49.375000,97.16
13:06:49.390625,71.69
13:06:49.406250,50.66
13:06:49.421875,37.12
13:06:49.437500,31.63
13:06:49.453125,30.75
13:06:49.468750,29.81
13:06:49.484375,25.17
13:06:49.500000,16.24
13:06:49.515625,5.22
13:06:49.531250,-4.46
13:06:49.546875,-9.96
13:06:49.562500,-10.20
13:06:49.578125,-4.93
13:06:49.593750,3.75
13:06:49.609375,12.88
13:06:49.625000,19.93
13:06:49.640625,23.85
13:06:49.656250,24.96
13:06:49.671875,24.29
13:06:49.687500,22.69
13:06:49.703125,20.73
13:06:49.718750,18.48
13:06:49.734375,15.21
13:06:49.750000,10.08
13:06:49.765625,2.58
13:06:49.781250,-7.16
13:06:49.796875,-18.48
13:06:49.812500,-30.54
13:06:49.828125,-42.71
13:06:49.843750,-54.37
13:06:49.859375,-65.16
13:06:49.875000,-75.05
13:06:49.890625,-84.08
13:06:49.906250,-92.31
13:06:49.921875,-99.75
13:06:49.937500,-106.43
13:06:49.953125,-112.39
13:06:49.968750,-117.78
13:06:49.984375,-122.39
13:06:50,-126.14
13:06:50.015625,-129.05
13:06:50.031250,-131.14
13:06:50.046875,-132.32
13:06:50.062500,-132.33
13:06:50.078125,-130.64
13:06:50.093750,-126.32
13:06:50.109375,-120.94
13:06:50.125000,-114.99
13:06:50.140625,-108.78
13:06:50.156250,-102.55
13:06:50.171875,-96.49
13:06:50.187500,-90.69
13:06:50.203125,-85.09
13:06:50.218750,-79.54
13:06:50.234375,-73.87
13:06:50.250000,-67.94
13:06:50.265625,-61.42
13:06:50.281250,-54.23
13:06:50.296875,-46.58
13:06:50.312500,-38.79
13:06:50.328125,-31.10
13:06:50.343750,-23.62
13:06:50.359375,-16.19
13:06:50.375000,-8.50
13:06:50.390625,-0.33
13:06:50.406250,8.68
13:06:50.421875,18.44
13:06:50.437500,28.50
13:06:50.453125,38.28
13:06:50.468750,47.29
13:06:50.484375,55.47
13:06:50.500000,63.18
13:06:50.515625,71.09
13:06:50.531250,79.89
13:06:50.546875,90.11
13:06:50.562500,101.77
13:06:50.578125,114.38
13:06:50.593750,127.22
13:06:50.609375,139.70
13:06:50.625000,151.62
13:06:50.640625,163.33
13:06:50.656250,175.64
13:06:50.671875,189.72
13:06:50.687500,206.98
13:06:50.703125,228.49
13:06:50.718750,254.44
13:06:50.734375,283.47
13:06:50.750000,312.47
13:06:50.765625,336.89
13:06:50.781250,351.86
13:06:50.796875,353.65
13:06:50.812500,340.97
13:06:50.828125,315.46
13:06:50.843750,281.14
13:06:50.859375,242.98
13:06:50.875000,205.42
13:06:50.890625,171.32
13:06:50.906250,141.73
13:06:50.921875,116.39
13:06:50.937500,94.55
13:06:50.953125,75.52
13:06:50.968750,58.95
13:06:50.984375,44.63
13:06:51,32.34
13:06:51.015625,21.69
13:06:51.031250,12.33
13:06:51.046875,4.05
13:06:51.062500,-2.98
13:06:51.078125,-8.35
13:06:51.093750,-11.67
13:06:51.109375,-13.00
13:06:51.125000,-12.96
13:06:51.140625,-12.66
13:06:51.156250,-13.18
13:06:51.171875,-15.22
13:06:51.187500,-18.71
13:06:51.203125,-22.88
13:06:51.218750,-26.66
13:06:51.234375,-29.12
13:06:51.250000,-29.84
13:06:51.265625,-29.09
13:06:51.281250,-27.56
13:06:51.296875,-26.05
13:06:51.312500,-25.10
13:06:51.328125,-24.82
13:06:51.343750,-24.98
13:06:51.359375,-25.18
13:06:51.375000,-25.14
13:06:51.390625,-24.89
13:06:51.406250,-24.75
13:06:51.421875,-25.22
13:06:51.437500,-26.71
13:06:51.453125,-29.27
13:06:51.468750,-32.44
13:06:51.484375,-35.15
13:06:51.500000,-35.99
13:06:51.515625,-33.51
13:06:51.531250,-26.83
13:06:51.546875,-16.02
13:06:51.562500,-2.35
13:06:51.578125,11.99
13:06:51.593750,24.49
13:06:51.609375,33.12
13:06:51.625000,36.92
13:06:51.640625,36.13
13:06:51.656250,32.02
13:06:51.671875,26.24
13:06:51.687500,20.24
13:06:51.703125,14.75
13:06:51.718750,9.60
13:06:51.734375,3.91
13:06:51.750000,-3.47
13:06:51.765625,-13.28
13:06:51.781250,-25.36
13:06:51.796875,-38.43
13:06:51.812500,-50.44
13:06:51.828125,-59.15
13:06:51.843750,-63.04
13:06:51.859375,-61.81
13:06:51.875000,-56.53
13:06:51.890625,-49.24
13:06:51.906250,-42.16
13:06:51.921875,-37.06
13:06:51.937500,-34.76
13:06:51.953125,-35.07
13:06:51.968750,-36.98
13:06:51.984375,-39.12
13:06:52,-40.39
13:06:52.015625,-40.41
13:06:52.031250,-39.78
13:06:52.046875,-39.81
13:06:52.062500,-41.84
13:06:52.078125,-46.27
13:06:52.093750,-52.18
13:06:52.109375,-57.38
13:06:52.125000,-59.29
13:06:52.140625,-55.90
13:06:52.156250,-46.53
13:06:52.171875,-31.97
13:06:52.187500,-13.96
13:06:52.203125,5.40
13:06:52.218750,24.31
13:06:52.234375,41.35
13:06:52.250000,55.51
13:06:52.265625,66.01
13:06:52.281250,72.44
13:06:52.296875,74.92
13:06:52.312500,74.19
13:06:52.328125,71.49
13:06:52.343750,68.13
13:06:52.359375,65.02
13:06:52.375000,62.25
13:06:52.390625,59.13
13:06:52.406250,54.41
13:06:52.421875,46.95
13:06:52.437500,36.17
13:06:52.453125,22.51
13:06:52.468750,7.43
13:06:52.484375,-7.05
13:06:52.500000,-18.94
13:06:52.515625,-26.89
13:06:52.531250,-30.60
13:06:52.546875,-30.76
13:06:52.562500,-28.74
13:06:52.578125,-26.01
13:06:52.593750,-23.70
13:06:52.609375,-22.25
13:06:52.625000,-21.49
13:06:52.640625,-20.83
13:06:52.656250,-19.63
13:06:52.671875,-17.54
13:06:52.687500,-14.64
13:06:52.703125,-11.30
13:06:52.718750,-7.99
13:06:52.734375,-5.05
13:06:52.750000,-2.62
13:06:52.765625,-0.66
13:06:52.781250,0.83
13:06:52.796875,1.72
13:06:52.812500,1.86
13:06:52.828125,1.14
13:06:52.843750,-0.31
13:06:52.859375,-2.12
13:06:52.875000,-3.74
13:06:52.890625,-4.63
13:06:52.906250,-4.46
13:06:52.921875,-3.24
13:06:52.937500,-1.36
13:06:52.953125,0.44
13:06:52.968750,1.26
13:06:52.984375,0.36
13:06:53,-2.58
13:06:53.015625,-7.25
13:06:53.031250,-12.74
13:06:53.046875,-17.92
13:06:53.062500,-21.80
13:06:53.078125,-23.93
13:06:53.093750,-24.46
13:06:53.109375,-24.01
13:06:53.125000,-23.40
13:06:53.140625,-23.40
13:06:53.156250,-24.59
13:06:53.171875,-27.35
13:06:53.187500,-31.80
13:06:53.203125,-37.79
13:06:53.218750,-44.81
13:06:53.234375,-52.08
13:06:53.250000,-58.52
13:06:53.265625,-63.08
13:06:53.281250,-64.90
13:06:53.296875,-63.66
13:06:53.312500,-59.73
13:06:53.328125,-54.18
13:06:53.343750,-48.57
13:06:53.359375,-44.47
13:06:53.375000,-43.00
13:06:53.390625,-44.37
13:06:53.406250,-47.80
13:06:53.421875,-51.60
13:06:53.437500,-53.46
13:06:53.453125,-50.88
13:06:53.468750,-41.66
13:06:53.484375,-24.42
13:06:53.500000,0.92
13:06:53.515625,32.86
13:06:53.531250,68.47
13:06:53.546875,104.00
13:06:53.562500,135.96
13:06:53.578125,161.93
13:06:53.593750,181.16
13:06:53.609375,194.24
13:06:53.625000,202.49
13:06:53.640625,207.21
13:06:53.656250,209.32
13:06:53.671875,209.57
13:06:53.687500,208.95
13:06:53.703125,208.92
13:06:53.718750,210.92
13:06:53.734375,215.56
13:06:53.750000,222.02
13:06:53.765625,228.04
13:06:53.781250,230.81
13:06:53.796875,228.00
13:06:53.812500,218.42
13:06:53.828125,201.82
13:06:53.843750,178.38
13:06:53.859375,148.38
13:06:53.875000,112.65
13:06:53.890625,73.28
13:06:53.906250,33.93
13:06:53.921875,-1.07
13:06:53.937500,-28.49
13:06:53.953125,-47.59
13:06:53.968750,-60.31
13:06:53.984375,-69.67
13:06:54,-77.68
13:06:54.015625,-84.11
13:06:54.031250,-87.32
13:06:54.046875,-86.41
13:06:54.062500,-83.26
13:06:54.078125,-82.50
13:06:54.093750,-89.16
13:06:54.109375,-105.47
13:06:54.125000,-128.80
13:06:54.140625,-152.18
13:06:54.156250,-167.49
13:06:54.171875,-169.38
13:06:54.187500,-157.47
13:06:54.203125,-136.25
13:06:54.218750,-112.52
13:06:54.234375,-92.22
13:06:54.250000,-78.19
13:06:54.265625,-70.02
13:06:54.281250,-65.54
13:06:54.296875,-62.69
13:06:54.312500,-60.69
13:06:54.328125,-59.66
13:06:54.343750,-59.89
13:06:54.359375,-60.98
13:06:54.375000,-61.75
13:06:54.390625,-61.00
13:06:54.406250,-58.63
13:06:54.421875,-56.13
13:06:54.437500,-56.12
13:06:54.453125,-60.85
13:06:54.468750,-70.00
13:06:54.484375,-80.83
13:06:54.500000,-89.00
13:06:54.515625,-90.63
13:06:54.531250,-84.21
13:06:54.546875,-71.48
13:06:54.562500,-56.78
13:06:54.578125,-45.26
13:06:54.593750,-40.73
13:06:54.609375,-43.08
13:06:54.625000,-49.44
13:06:54.640625,-55.47
13:06:54.656250,-57.30
13:06:54.671875,-53.05
13:06:54.687500,-43.00
13:06:54.703125,-29.06
13:06:54.718750,-13.79
13:06:54.734375,0.72
13:06:54.750000,15.56
13:06:54.765625,33.38
13:06:54.781250,57.85
13:06:54.796875,92.47
13:06:54.812500,139.29
13:06:54.828125,197.89
13:06:54.843750,264.67
13:06:54.859375,332.82
13:06:54.875000,393.51
13:06:54.890625,440.52
13:06:54.906250,469.94
13:06:54.921875,481.41
13:06:54.937500,477.50
13:06:54.953125,462.53
13:06:54.968750,441.17
13:06:54.984375,417.38
13:06:55,393.82
13:06:55.015625,357.86
13:06:55.031250,302.37
13:06:55.046875,226.53
13:06:55.062500,137.59
13:06:55.078125,47.47
13:06:55.093750,-33.27
13:06:55.109375,-99.55
13:06:55.125000,-151.39
13:06:55.140625,-191.31
13:06:55.156250,-221.79
13:06:55.171875,-241.98
13:06:55.187500,-250.62
13:06:55.203125,-247.45
13:06:55.218750,-234.55
13:06:55.234375,-215.98
13:06:55.250000,-196.72
13:06:55.265625,-180.49
13:06:55.281250,-169.10
13:06:55.296875,-162.52
13:06:55.312500,-157.76
13:06:55.328125,-151.72
13:06:55.343750,-142.48
13:06:55.359375,-130.30
13:06:55.375000,-117.11
13:06:55.390625,-105.50
13:06:55.406250,-97.67
13:06:55.421875,-94.77
13:06:55.437500,-96.88
13:06:55.453125,-102.03
13:06:55.468750,-108.14
13:06:55.484375,-111.96
13:06:55.500000,-112.47
13:06:55.515625,-110.85
13:06:55.531250,-109.84
13:06:55.546875,-112.46
13:06:55.562500,-120.38
13:06:55.578125,-132.91
13:06:55.593750,-146.41
13:06:55.609375,-156.03
13:06:55.625000,-157.45
13:06:55.640625,-148.51
13:06:55.656250,-129.32
13:06:55.671875,-101.61
13:06:55.687500,-67.89
13:06:55.703125,-31.01
13:06:55.718750,5.80
13:06:55.734375,39.17
13:06:55.750000,65.87
13:06:55.765625,83.67
13:06:55.781250,91.87
13:06:55.796875,91.84
13:06:55.812500,86.38
13:06:55.828125,78.73
13:06:55.843750,71.70
13:06:55.859375,67.25
13:06:55.875000,66.56
13:06:55.890625,70.12
13:06:55.906250,77.29
13:06:55.921875,86.23
13:06:55.937500,94.19
13:06:55.953125,98.19
13:06:55.968750,95.96
13:06:55.984375,86.68
13:06:56,71.08
13:06:56.015625,51.00
13:06:56.031250,28.89
13:06:56.046875,7.16
13:06:56.062500,-11.98
13:06:56.078125,-26.96
13:06:56.093750,-37.49
13:06:56.109375,-45.48
13:06:56.125000,-55.27
13:06:56.140625,-72.70
13:06:56.156250,-103.07
13:06:56.171875,-148.66
13:06:56.187500,-206.94
13:06:56.203125,-270.57
13:06:56.218750,-329.31
13:06:56.234375,-373.35
13:06:56.250000,-396.24
13:06:56.265625,-396.78
13:06:56.281250,-378.66
13:06:56.296875,-348.46
13:06:56.312500,-313.10
13:06:56.328125,-278.19
13:06:56.343750,-247.48
13:06:56.359375,-223.32
13:06:56.375000,-207.08
13:06:56.390625,-198.71
13:06:56.406250,-196.33
13:06:56.421875,-195.72
13:06:56.437500,-190.97
13:06:56.453125,-176.23
13:06:56.468750,-148.00
13:06:56.484375,-106.67
13:06:56.500000,-56.64
13:06:56.515625,-4.88
13:06:56.531250,41.65
13:06:56.546875,77.97
13:06:56.562500,102.19
13:06:56.578125,115.15
13:06:56.593750,119.35
13:06:56.609375,117.54
13:06:56.625000,112.00
13:06:56.640625,104.40
13:06:56.656250,96.27
13:06:56.671875,89.35
13:06:56.687500,85.68
13:06:56.703125,87.18
13:06:56.718750,94.85
13:06:56.734375,108.19
13:06:56.750000,125.26
13:06:56.765625,143.23
13:06:56.781250,159.41
13:06:56.796875,171.89
13:06:56.812500,179.84
13:06:56.828125,182.89
13:06:56.843750,180.77
13:06:56.859375,173.28
13:06:56.875000,160.83
13:06:56.890625,145.20
13:06:56.906250,129.67
13:06:56.921875,118.29
13:06:56.937500,114.33
13:06:56.953125,118.84
13:06:56.968750,129.90
13:06:56.984375,143.48
13:06:57,155.24
13:06:57.015625,162.39
13:06:57.031250,164.71
13:06:57.046875,164.13
13:06:57.062500,163.35
13:06:57.078125,163.90
13:06:57.093750,165.30
13:06:57.109375,164.98
13:06:57.125000,159.48
13:06:57.140625,145.76
13:06:57.156250,122.06
13:06:57.171875,87.97
13:06:57.187500,43.73
13:06:57.203125,-10.00
13:06:57.218750,-71.74
13:06:57.234375,-138.02
13:06:57.250000,-202.61
13:06:57.265625,-257.07
13:06:57.281250,-292.89
13:06:57.296875,-304.59
13:06:57.312500,-292.15
13:06:57.328125,-261.32
13:06:57.343750,-221.33
13:06:57.359375,-181.50
13:06:57.375000,-147.75
13:06:57.390625,-121.21
13:06:57.406250,-99.09
13:06:57.421875,-77.29
13:06:57.437500,-53.18
13:06:57.453125,-27.18
13:06:57.468750,-2.62
13:06:57.484375,15.91
13:06:57.500000,24.54
13:06:57.515625,21.85
13:06:57.531250,9.11
13:06:57.546875,-10.37
13:06:57.562500,-32.82
13:06:57.578125,-55.46
13:06:57.593750,-77.01
13:06:57.609375,-97.24
13:06:57.625000,-115.89
13:06:57.640625,-131.81
13:06:57.656250,-142.87
13:06:57.671875,-146.67
13:06:57.687500,-141.68
13:06:57.703125,-127.99
13:06:57.718750,-107.23
13:06:57.734375,-81.86
13:06:57.750000,-54.15
13:06:57.765625,-25.28
13:06:57.781250,4.80
13:06:57.796875,37.09
13:06:57.812500,72.28
13:06:57.828125,109.76
13:06:57.843750,147.37
13:06:57.859375,181.82
13:06:57.875000,209.92
13:06:57.890625,229.80
13:06:57.906250,241.37
13:06:57.921875,245.75
13:06:57.937500,244.17
13:06:57.953125,236.96
13:06:57.968750,223.68
13:06:57.984375,203.98
13:06:58,178.83
13:06:58.015625,151.12
13:06:58.031250,124.95
13:06:58.046875,104.10
13:06:58.062500,90.48
13:06:58.078125,83.47
13:06:58.093750,80.55
13:06:58.109375,78.67
13:06:58.125000,75.54
13:06:58.140625,70.09
13:06:58.156250,62.10
13:06:58.171875,51.68
13:06:58.187500,38.66
13:06:58.203125,22.75
13:06:58.218750,3.95
13:06:58.234375,-17.15
13:06:58.250000,-39.59
13:06:58.265625,-62.62
13:06:58.281250,-86.28
13:06:58.296875,-111.34
13:06:58.312500,-138.69
13:06:58.328125,-168.22
13:06:58.343750,-198.21
13:06:58.359375,-225.42
13:06:58.375000,-246.12
13:06:58.390625,-257.50
13:06:58.406250,-258.57
13:06:58.421875,-250.29
13:06:58.437500,-234.72
13:06:58.453125,-214.05
13:06:58.468750,-189.83
13:06:58.484375,-162.97
13:06:58.500000,-134.20
13:06:58.515625,-104.63
13:06:58.531250,-75.95
13:06:58.546875,-49.95
13:06:58.562500,-27.85
13:06:58.578125,-9.91
13:06:58.593750,4.50
13:06:58.609375,16.19
13:06:58.625000,25.45
13:06:58.640625,31.64
13:06:58.656250,33.48
13:06:58.671875,29.85
13:06:58.687500,20.66
13:06:58.703125,7.44
13:06:58.718750,-6.70
13:06:58.734375,-17.93
13:06:58.750000,-22.66
13:06:58.765625,-18.68
13:06:58.781250,-5.70
13:06:58.796875,14.81
13:06:58.812500,40.20
13:06:58.828125,67.52
13:06:58.843750,94.14
13:06:58.859375,118.05
13:06:58.875000,137.93
13:06:58.890625,152.98
13:06:58.906250,162.90
13:06:58.921875,167.77
13:06:58.937500,168.05
13:06:58.953125,164.39
13:06:58.968750,157.42
13:06:58.984375,147.55
13:06:59,135.09
13:06:59.015625,120.35
13:06:59.031250,104.00
13:06:59.046875,87.11
13:06:59.062500,70.99
13:06:59.078125,56.68
13:06:59.093750,44.69
13:06:59.109375,34.86
13:06:59.125000,26.62
13:06:59.140625,19.35
13:06:59.156250,12.76
13:06:59.171875,6.95
13:06:59.187500,2.27
13:06:59.203125,-0.96
13:06:59.218750,-2.69
13:06:59.234375,-3.29
13:06:59.250000,-3.34
13:06:59.265625,-3.47
13:06:59.281250,-4.12
13:06:59.296875,-5.34
13:06:59.312500,-6.81
13:06:59.328125,-8.07
13:06:59.343750,-8.73
13:06:59.359375,-8.71
13:06:59.375000,-8.27
13:06:59.390625,-7.81
13:06:59.406250,-7.71
13:06:59.421875,-8.06
13:06:59.437500,-8.70
13:06:59.453125,-9.31
13:06:59.468750,-9.71
13:06:59.484375,-9.92
13:06:59.500000,-10.21
13:06:59.515625,-10.83
13:06:59.531250,-11.91
13:06:59.546875,-13.28
13:06:59.562500,-14.63
13:06:59.578125,-15.67
13:06:59.593750,-16.24
13:06:59.609375,-16.44
13:06:59.625000,-16.49
13:06:59.640625,-16.62
13:06:59.656250,-16.92
13:06:59.671875,-17.31
13:06:59.687500,-17.61
13:06:59.703125,-17.62
13:06:59.718750,-17.32
13:06:59.734375,-16.90
13:06:59.750000,-16.80
13:06:59.765625,-17.50
13:06:59.781250,-19.40
13:06:59.796875,-22.63
13:06:59.812500,-26.99
13:06:59.828125,-32.06
13:06:59.843750,-37.25
13:06:59.859375,-41.82
13:06:59.875000,-44.95
13:06:59.890625,-45.80
13:06:59.906250,-43.71
13:06:59.921875,-38.54
13:06:59.937500,-30.77
13:06:59.953125,-21.52
13:06:59.968750,-12.15
13:06:59.984375,-3.78
13:07:00,3.11
13:07:00.015625,8.67
13:07:00.031250,13.46
13:07:00.046875,18.02
13:07:00.062500,22.65
13:07:00.078125,27.40
13:07:00.093750,32.24
13:07:00.109375,37.14
13:07:00.125000,42.05
13:07:00.140625,46.74
13:07:00.156250,50.78
13:07:00.171875,53.74
13:07:00.187500,55.38
13:07:00.203125,55.86
13:07:00.218750,55.58
13:07:00.234375,54.89
13:07:00.250000,53.72
13:07:00.265625,51.52
13:07:00.281250,47.58
13:07:00.296875,41.50
13:07:00.312500,33.64
13:07:00.328125,25.13
13:07:00.343750,17.39
13:07:00.359375,11.54
13:07:00.375000,7.82
13:07:00.390625,5.52
13:07:00.406250,3.37
13:07:00.421875,0.25
13:07:00.437500,-4.25
13:07:00.453125,-9.68
13:07:00.468750,-14.95
13:07:00.484375,-19.03
13:07:00.500000,-21.26
13:07:00.515625,-21.60
13:07:00.531250,-20.37
13:07:00.546875,-17.98
13:07:00.562500,-14.73
13:07:00.578125,-10.97
13:07:00.593750,-7.31
13:07:00.609375,-4.67
13:07:00.625000,-4.09
13:07:00.640625,-6.21
13:07:00.656250,-10.91
13:07:00.671875,-17.27
13:07:00.687500,-23.96
13:07:00.703125,-29.96
13:07:00.718750,-35.01
13:07:00.734375,-39.67
13:07:00.750000,-44.85
13:07:00.765625,-51.16
13:07:00.781250,-58.42
13:07:00.796875,-65.62
13:07:00.812500,-71.38
13:07:00.828125,-74.55
13:07:00.843750,-74.64
13:07:00.859375,-71.90
13:07:00.875000,-66.99
13:07:00.890625,-60.59
13:07:00.906250,-53.06
13:07:00.921875,-44.40
13:07:00.937500,-34.51
13:07:00.953125,-23.45
13:07:00.968750,-11.61
13:07:00.984375,0.36
13:07:01,11.83
13:07:01.015625,22.47
13:07:01.031250,32.43
13:07:01.046875,42.33
13:07:01.062500,52.91
13:07:01.078125,64.66
13:07:01.093750,77.42
13:07:01.109375,90.32
13:07:01.125000,101.96
13:07:01.140625,111.03
13:07:01.156250,116.95
13:07:01.171875,120.28
13:07:01.187500,122.59
13:07:01.203125,125.84
13:07:01.218750,131.52
13:07:01.234375,139.93
13:07:01.250000,149.99
13:07:01.265625,159.66
13:07:01.281250,166.76
13:07:01.296875,169.67
13:07:01.312500,167.91
13:07:01.328125,162.11
13:07:01.343750,153.79
13:07:01.359375,144.83
13:07:01.375000,137.04
13:07:01.390625,131.60
13:07:01.406250,128.83
13:07:01.421875,128.00
13:07:01.437500,127.66
13:07:01.453125,126.11
13:07:01.468750,122.04
13:07:01.484375,114.92
13:07:01.500000,105.12
13:07:01.515625,93.46
13:07:01.531250,80.81
13:07:01.546875,67.69
13:07:01.562500,54.22
13:07:01.578125,40.30
13:07:01.593750,25.89
13:07:01.609375,11.09
13:07:01.625000,-3.91
13:07:01.640625,-19.02
13:07:01.656250,-34.28
13:07:01.671875,-49.80
13:07:01.687500,-65.47
13:07:01.703125,-80.84
13:07:01.718750,-95.17
13:07:01.734375,-107.77
13:07:01.750000,-118.37
13:07:01.765625,-127.18
13:07:01.781250,-134.68
13:07:01.796875,-141.19
13:07:01.812500,-146.65
13:07:01.828125,-150.63
13:07:01.843750,-152.79
13:07:01.859375,-153.23
13:07:01.875000,-152.51
13:07:01.890625,-151.30
13:07:01.906250,-149.76
13:07:01.921875,-147.28
13:07:01.937500,-142.71
13:07:01.953125,-135.07
13:07:01.968750,-124.29
13:07:01.984375,-111.49
13:07:02,-98.42
13:07:02.015625,-86.60
13:07:02.031250,-76.34
13:07:02.046875,-66.59
13:07:02.062500,-55.55
13:07:02.078125,-41.73
13:07:02.093750,-24.75
13:07:02.109375,-5.64
13:07:02.125000,13.66
13:07:02.140625,31.14
13:07:02.156250,45.39
13:07:02.171875,55.91
13:07:02.187500,62.85
13:07:02.203125,66.72
13:07:02.218750,67.97
13:07:02.234375,66.98
13:07:02.250000,64.10
13:07:02.265625,59.80
13:07:02.281250,54.66
13:07:02.296875,49.31
13:07:02.312500,44.17
13:07:02.328125,39.39
13:07:02.343750,34.78
13:07:02.359375,29.93
13:07:02.375000,24.35
13:07:02.390625,17.66
13:07:02.406250,9.74
13:07:02.421875,0.83
13:07:02.437500,-8.59
13:07:02.453125,-17.97
13:07:02.468750,-26.87
13:07:02.484375,-35.06
13:07:02.500000,-42.40
13:07:02.515625,-48.82
13:07:02.531250,-54.18
13:07:02.546875,-58.36
13:07:02.562500,-61.29
13:07:02.578125,-63.06
13:07:02.593750,-63.90
13:07:02.609375,-64.03
13:07:02.625000,-63.66
13:07:02.640625,-62.87
13:07:02.656250,-61.73
13:07:02.671875,-60.34
13:07:02.687500,-58.90
13:07:02.703125,-57.64
13:07:02.718750,-56.74
13:07:02.734375,-56.31
13:07:02.750000,-56.28
13:07:02.765625,-56.42
13:07:02.781250,-56.49
13:07:02.796875,-56.26
13:07:02.812500,-55.61
13:07:02.828125,-54.59
13:07:02.843750,-53.35
13:07:02.859375,-52.02
13:07:02.875000,-50.61
13:07:02.890625,-48.89
13:07:02.906250,-46.54
13:07:02.921875,-43.34
13:07:02.937500,-39.23
13:07:02.953125,-34.43
13:07:02.968750,-29.13
13:07:02.984375,-23.34
13:07:03,-16.82
13:07:03.015625,-9.32
13:07:03.031250,-0.89
13:07:03.046875,7.80
13:07:03.062500,15.58
13:07:03.078125,21.20
13:07:03.093750,23.79
13:07:03.109375,23.33
13:07:03.125000,20.58
13:07:03.140625,16.68
13:07:03.156250,12.58
13:07:03.171875,8.66
13:07:03.187500,4.84
13:07:03.203125,0.97
13:07:03.218750,-2.70
13:07:03.234375,-5.60
13:07:03.250000,-7.14
13:07:03.265625,-7.37
13:07:03.281250,-7.15
13:07:03.296875,-7.97
13:07:03.312500,-11.13
13:07:03.328125,-16.96
13:07:03.343750,-24.43
13:07:03.359375,-31.59
13:07:03.375000,-36.48
13:07:03.390625,-38.15
13:07:03.406250,-37.01
13:07:03.421875,-34.51
13:07:03.437500,-32.24
13:07:03.453125,-31.16
13:07:03.468750,-31.31
13:07:03.484375,-32.05
13:07:03.500000,-32.51
13:07:03.515625,-31.96
13:07:03.531250,-29.97
13:07:03.546875,-26.41
13:07:03.562500,-21.43
13:07:03.578125,-15.62
13:07:03.593750,-9.94
13:07:03.609375,-5.63
13:07:03.625000,-3.79
13:07:03.640625,-4.98
13:07:03.656250,-9.00
13:07:03.671875,-14.92
13:07:03.687500,-21.55
13:07:03.703125,-27.84
13:07:03.718750,-33.30
13:07:03.734375,-38.10
13:07:03.750000,-43.02
13:07:03.765625,-49.25
13:07:03.781250,-57.89
13:07:03.796875,-69.38
13:07:03.812500,-82.95
13:07:03.828125,-96.52
13:07:03.843750,-107.21
13:07:03.859375,-112.50
13:07:03.875000,-111.36
13:07:03.890625,-104.76
13:07:03.906250,-95.05
13:07:03.921875,-84.70
13:07:03.937500,-74.85
13:07:03.953125,-64.65
13:07:03.968750,-51.76
13:07:03.984375,-33.58
13:07:04,-8.52
13:07:04.015625,23.32
13:07:04.031250,60.36
13:07:04.046875,100.20
13:07:04.062500,140.15
13:07:04.078125,177.44
13:07:04.093750,209.03
13:07:04.109375,231.73
13:07:04.125000,242.68
13:07:04.140625,240.22
13:07:04.156250,224.56
13:07:04.171875,197.90
13:07:04.187500,163.84
13:07:04.203125,126.47
13:07:04.218750,89.47
13:07:04.234375,55.66
13:07:04.250000,26.89
13:07:04.265625,4.14
13:07:04.281250,-12.41
13:07:04.296875,-23.34
13:07:04.312500,-29.85
13:07:04.328125,-33.51
13:07:04.343750,-35.84
13:07:04.359375,-37.82
13:07:04.375000,-39.78
13:07:04.390625,-41.51
13:07:04.406250,-42.63
13:07:04.421875,-42.97
13:07:04.437500,-42.69
13:07:04.453125,-42.17
13:07:04.468750,-41.76
13:07:04.484375,-41.49
13:07:04.500000,-41.02
13:07:04.515625,-39.84
13:07:04.531250,-37.47
13:07:04.546875,-33.70
13:07:04.562500,-28.63
13:07:04.578125,-22.53
13:07:04.593750,-15.57
13:07:04.609375,-7.72
13:07:04.625000,1.22
13:07:04.640625,11.25
13:07:04.656250,22.01
13:07:04.671875,32.69
13:07:04.687500,42.41
13:07:04.703125,50.42
13:07:04.718750,56.36
13:07:04.734375,60.17
13:07:04.750000,61.98
13:07:04.765625,62.13
13:07:04.781250,61.21
13:07:04.796875,60.18
13:07:04.812500,60.27
13:07:04.828125,62.58
13:07:04.843750,67.49
13:07:04.859375,74.43
13:07:04.875000,82.09
13:07:04.890625,88.99
13:07:04.906250,94.17
13:07:04.921875,97.56
13:07:04.937500,99.78
13:07:04.953125,101.64
13:07:04.968750,103.61
13:07:04.984375,105.69
13:07:05,107.58
13:07:05.015625,109.12
13:07:05.031250,110.49
13:07:05.046875,112.18
13:07:05.062500,114.72
13:07:05.078125,118.30
13:07:05.093750,122.61
13:07:05.109375,126.74
13:07:05.125000,129.45
13:07:05.140625,129.50
13:07:05.156250,126.15
13:07:05.171875,119.42
13:07:05.187500,110.34
13:07:05.203125,100.67
13:07:05.218750,92.39
13:07:05.234375,86.95
13:07:05.250000,84.83
13:07:05.265625,85.40
13:07:05.281250,87.30
13:07:05.296875,89.00
13:07:05.312500,89.29
13:07:05.328125,87.35
13:07:05.343750,82.73
13:07:05.359375,75.45
13:07:05.375000,66.26
13:07:05.390625,56.96
13:07:05.406250,50.23
13:07:05.421875,48.72
13:07:05.437500,53.72
13:07:05.453125,64.14
13:07:05.468750,76.61
13:07:05.484375,86.96
13:07:05.500000,92.17
13:07:05.515625,91.83
13:07:05.531250,87.96
13:07:05.546875,83.43
13:07:05.562500,79.87
13:07:05.578125,76.41
13:07:05.593750,70.15
13:07:05.609375,57.81
13:07:05.625000,37.69
13:07:05.640625,10.48
13:07:05.656250,-21.33
13:07:05.671875,-54.98
13:07:05.687500,-88.80
13:07:05.703125,-122.53
13:07:05.718750,-156.44
13:07:05.734375,-190.11
13:07:05.750000,-221.70
13:07:05.765625,-248.29
13:07:05.781250,-267.23
13:07:05.796875,-277.49
13:07:05.812500,-280.21
13:07:05.828125,-278.16
13:07:05.843750,-274.45
13:07:05.859375,-271.23
13:07:05.875000,-269.06
13:07:05.890625,-267.15
13:07:05.906250,-264.23
13:07:05.921875,-259.22
13:07:05.937500,-251.66
13:07:05.953125,-241.57
13:07:05.968750,-229.20
13:07:05.984375,-214.95
13:07:06,-199.40
13:07:06.015625,-183.33
13:07:06.031250,-167.54
13:07:06.046875,-152.51
13:07:06.062500,-138.24
13:07:06.078125,-124.34
13:07:06.093750,-110.51
13:07:06.109375,-96.88
13:07:06.125000,-84.13
13:07:06.140625,-73.24
13:07:06.156250,-64.93
13:07:06.171875,-59.33
13:07:06.187500,-55.89
13:07:06.203125,-53.69
13:07:06.218750,-51.70
13:07:06.234375,-49.10
13:07:06.250000,-45.23
13:07:06.265625,-39.61
13:07:06.281250,-31.98
13:07:06.296875,-22.53
13:07:06.312500,-12.12
13:07:06.328125,-2.19
13:07:06.343750,5.69
13:07:06.359375,10.34
13:07:06.375000,11.50
13:07:06.390625,9.80
13:07:06.406250,6.43
13:07:06.421875,2.54
13:07:06.437500,-1.13
13:07:06.453125,-4.46
13:07:06.468750,-7.72
13:07:06.484375,-11.22
13:07:06.500000,-15.04
13:07:06.515625,-18.91
13:07:06.531250,-22.23
13:07:06.546875,-24.34
13:07:06.562500,-24.64
13:07:06.578125,-22.80
13:07:06.593750,-18.80
13:07:06.609375,-12.91
13:07:06.625000,-5.54
13:07:06.640625,2.80
13:07:06.656250,11.63
13:07:06.671875,20.55
13:07:06.687500,29.19
13:07:06.703125,37.27
13:07:06.718750,44.53
13:07:06.734375,50.83
13:07:06.750000,56.09
13:07:06.765625,60.32
13:07:06.781250,63.53
13:07:06.796875,65.76
13:07:06.812500,67.03
13:07:06.828125,67.39
13:07:06.843750,66.98
13:07:06.859375,66.02
13:07:06.875000,64.70
13:07:06.890625,63.15
13:07:06.906250,61.29
13:07:06.921875,58.95
13:07:06.937500,55.97
13:07:06.953125,52.28
13:07:06.968750,47.96
13:07:06.984375,43.24
13:07:07,38.42
13:07:07.015625,33.74
13:07:07.031250,29.33
13:07:07.046875,25.13
13:07:07.062500,20.87
13:07:07.078125,16.14
13:07:07.093750,10.58
13:07:07.109375,4.03
13:07:07.125000,-3.23
13:07:07.140625,-10.50
13:07:07.156250,-16.76
13:07:07.171875,-21.06
13:07:07.187500,-22.79
13:07:07.203125,-21.97
13:07:07.218750,-19.08
13:07:07.234375,-14.84
13:07:07.250000,-9.88
13:07:07.265625,-4.47
13:07:07.281250,1.35
13:07:07.296875,7.62
13:07:07.312500,14.26
13:07:07.328125,20.96
13:07:07.343750,27.30
13:07:07.359375,32.90
13:07:07.375000,37.53
13:07:07.390625,41.07
13:07:07.406250,43.40
13:07:07.421875,44.41
13:07:07.437500,44.07
13:07:07.453125,42.53
13:07:07.468750,40.17
13:07:07.484375,37.49
13:07:07.500000,34.85
13:07:07.515625,32.28
13:07:07.531250,29.59
13:07:07.546875,26.59
13:07:07.562500,23.28
13:07:07.578125,19.99
13:07:07.593750,17.22
13:07:07.609375,15.47
13:07:07.625000,15.12
13:07:07.640625,16.35
13:07:07.656250,19.19
13:07:07.671875,23.37
13:07:07.687500,28.19
13:07:07.703125,32.54
13:07:07.718750,35.15
13:07:07.734375,35.09
13:07:07.750000,32.22
13:07:07.765625,27.27
13:07:07.781250,21.48
13:07:07.796875,15.93
13:07:07.812500,11.07
13:07:07.828125,6.74
13:07:07.843750,2.57
13:07:07.859375,-1.40
13:07:07.875000,-4.48
13:07:07.890625,-5.70
13:07:07.906250,-4.47
13:07:07.921875,-1.12
13:07:07.937500,3.01
13:07:07.953125,6.24
13:07:07.968750,7.38
13:07:07.984375,6.43
13:07:08,4.60
13:07:08.015625,3.58
13:07:08.031250,4.61
13:07:08.046875,7.67
13:07:08.062500,11.39
13:07:08.078125,13.70
13:07:08.093750,12.85
13:07:08.109375,8.26
13:07:08.125000,0.67
13:07:08.140625,-8.24
13:07:08.156250,-16.78
13:07:08.171875,-23.86
13:07:08.187500,-29.27
13:07:08.203125,-33.25
13:07:08.218750,-35.86
13:07:08.234375,-36.64
13:07:08.250000,-34.80
13:07:08.265625,-29.73
13:07:08.281250,-21.59
13:07:08.296875,-11.37
13:07:08.312500,-0.40
13:07:08.328125,10.42
13:07:08.343750,21.12
13:07:08.359375,32.62
13:07:08.375000,46.10
13:07:08.390625,62.09
13:07:08.406250,80.12
13:07:08.421875,98.75
13:07:08.437500,116.28
13:07:08.453125,131.40
13:07:08.468750,143.46
13:07:08.484375,152.36
13:07:08.500000,158.19
13:07:08.515625,161.00
13:07:08.531250,160.96
13:07:08.546875,158.54
13:07:08.562500,154.65
13:07:08.578125,150.35
13:07:08.593750,146.36
13:07:08.609375,142.66
13:07:08.625000,138.48
13:07:08.640625,132.70
13:07:08.656250,124.45
13:07:08.671875,113.54
13:07:08.687500,100.59
13:07:08.703125,86.71
13:07:08.718750,73.27
13:07:08.734375,61.64
13:07:08.750000,53.02
13:07:08.765625,48.27
13:07:08.781250,47.52
13:07:08.796875,49.83
13:07:08.812500,53.18
13:07:08.828125,54.89
13:07:08.843750,52.61
13:07:08.859375,45.38
13:07:08.875000,34.13
13:07:08.890625,21.31
13:07:08.906250,9.81
13:07:08.921875,1.51
13:07:08.937500,-3.70
13:07:08.953125,-8.03
13:07:08.968750,-15.05
13:07:08.984375,-28.22
13:07:09,-49.56
13:07:09.015625,-78.86
13:07:09.031250,-113.85
13:07:09.046875,-151.16
13:07:09.062500,-187.54
13:07:09.078125,-220.82
13:07:09.093750,-250.18
13:07:09.109375,-275.71
13:07:09.125000,-297.64
13:07:09.140625,-315.76
13:07:09.156250,-329.31
13:07:09.171875,-337.40
13:07:09.187500,-339.54
13:07:09.203125,-335.99
13:07:09.218750,-327.46
13:07:09.234375,-314.59
13:07:09.250000,-297.47
13:07:09.265625,-275.63
13:07:09.281250,-248.44
13:07:09.296875,-215.66
13:07:09.312500,-177.73
13:07:09.328125,-135.63
13:07:09.343750,-90.58
13:07:09.359375,-43.76
13:07:09.375000,3.66
13:07:09.390625,50.29
13:07:09.406250,94.35
13:07:09.421875,133.68
13:07:09.437500,166.29
13:07:09.453125,190.84
13:07:09.468750,206.92
13:07:09.484375,215.01
13:07:09.500000,215.85
13:07:09.515625,210.01
13:07:09.531250,197.78
13:07:09.546875,179.51
13:07:09.562500,156.15
13:07:09.578125,129.44
13:07:09.593750,101.65
13:07:09.609375,74.94
13:07:09.625000,50.72
13:07:09.640625,29.43
13:07:09.656250,10.92
13:07:09.671875,-4.95
13:07:09.687500,-17.85
13:07:09.703125,-26.90
13:07:09.718750,-31.17
13:07:09.734375,-30.22
13:07:09.750000,-24.52
13:07:09.765625,-15.38
13:07:09.781250,-4.40
13:07:09.796875,7.02
13:07:09.812500,18.14
13:07:09.828125,28.73
13:07:09.843750,38.77
13:07:09.859375,48.13
13:07:09.875000,56.36
13:07:09.890625,62.86
13:07:09.906250,66.91
13:07:09.921875,67.87
13:07:09.937500,65.13
13:07:09.953125,58.31
13:07:09.968750,47.52
13:07:09.984375,33.78
13:07:10,19.27
13:07:10.015625,7.03
13:07:10.031250,0.24
13:07:10.046875,1.32
13:07:10.062500,11.13
13:07:10.078125,28.91
13:07:10.093750,52.66
13:07:10.109375,79.85
13:07:10.125000,107.95
13:07:10.140625,134.51
13:07:10.156250,156.96
13:07:10.171875,172.43
13:07:10.187500,177.95
13:07:10.203125,171.18
13:07:10.218750,151.26
13:07:10.234375,119.37
13:07:10.250000,78.66
13:07:10.265625,33.67
13:07:10.281250,-10.69
13:07:10.296875,-49.99
13:07:10.312500,-80.90
13:07:10.328125,-101.36
13:07:10.343750,-110.71
13:07:10.359375,-109.58
13:07:10.375000,-99.75
13:07:10.390625,-83.83
13:07:10.406250,-64.72
13:07:10.421875,-45.05
13:07:10.437500,-26.79
13:07:10.453125,-11.26
13:07:10.468750,0.64
13:07:10.484375,8.08
13:07:10.500000,10.27
13:07:10.515625,6.82
13:07:10.531250,-1.87
13:07:10.546875,-14.32
13:07:10.562500,-28.29
13:07:10.578125,-41.25
13:07:10.593750,-51.05
13:07:10.609375,-56.27
13:07:10.625000,-56.35
13:07:10.640625,-51.46
13:07:10.656250,-42.46
13:07:10.671875,-30.76
13:07:10.687500,-18.19
13:07:10.703125,-6.66
13:07:10.718750,2.34
13:07:10.734375,8.12
13:07:10.750000,10.81
13:07:10.765625,11.20
13:07:10.781250,10.18
13:07:10.796875,8.48
13:07:10.812500,6.46
13:07:10.828125,4.30
13:07:10.843750,2.14
13:07:10.859375,0.16
13:07:10.875000,-1.50
13:07:10.890625,-2.85
13:07:10.906250,-4.11
13:07:10.921875,-5.62
13:07:10.937500,-7.63
13:07:10.953125,-10.12
13:07:10.968750,-12.82
13:07:10.984375,-15.35
13:07:11,-17.50
13:07:11.015625,-19.39
13:07:11.031250,-21.40
13:07:11.046875,-23.99
13:07:11.062500,-27.44
13:07:11.078125,-31.64
13:07:11.093750,-36.07
13:07:11.109375,-39.88
13:07:11.125000,-42.20
13:07:11.140625,-42.33
13:07:11.156250,-39.95
13:07:11.171875,-35.27
13:07:11.187500,-28.88
13:07:11.203125,-21.65
13:07:11.218750,-14.44
13:07:11.234375,-7.91
13:07:11.250000,-2.31
13:07:11.265625,2.43
13:07:11.281250,6.60
13:07:11.296875,10.49
13:07:11.312500,14.22
13:07:11.328125,17.75
13:07:11.343750,20.87
13:07:11.359375,23.39
13:07:11.375000,25.15
13:07:11.390625,26.09
13:07:11.406250,26.25
13:07:11.421875,25.74
13:07:11.437500,24.72
13:07:11.453125,23.37
13:07:11.468750,21.88
13:07:11.484375,20.41
13:07:11.500000,19.09
13:07:11.515625,17.99
13:07:11.531250,17.14
13:07:11.546875,16.50
13:07:11.562500,15.93
13:07:11.578125,15.24
13:07:11.593750,14.19
13:07:11.609375,12.59
13:07:11.625000,10.41
13:07:11.640625,7.79
13:07:11.656250,4.93
13:07:11.671875,2.06
13:07:11.687500,-0.74
13:07:11.703125,-3.59
13:07:11.718750,-6.72
13:07:11.734375,-10.32
13:07:11.750000,-14.34
13:07:11.765625,-18.47
13:07:11.781250,-22.12
13:07:11.796875,-24.69
13:07:11.812500,-25.72
13:07:11.828125,-25.04
13:07:11.843750,-22.80
13:07:11.859375,-19.41
13:07:11.875000,-15.35
13:07:11.890625,-11.06
13:07:11.906250,-6.82
13:07:11.921875,-2.77
13:07:11.937500,1.10
13:07:11.953125,4.82
13:07:11.968750,8.45
13:07:11.984375,11.96
13:07:12,15.26
13:07:12.015625,18.15
13:07:12.031250,20.44
13:07:12.046875,21.91
13:07:12.062500,22.42
13:07:12.078125,21.94
13:07:12.093750,20.55
13:07:12.109375,18.44
13:07:12.125000,15.91
13:07:12.140625,13.28
13:07:12.156250,10.90
13:07:12.171875,9.04
13:07:12.187500,7.84
13:07:12.203125,7.34
13:07:12.218750,7.41
13:07:12.234375,7.81
13:07:12.250000,8.27
13:07:12.265625,8.52
13:07:12.281250,8.33
13:07:12.296875,7.55
13:07:12.312500,6.16
13:07:12.328125,4.23
13:07:12.343750,1.94
13:07:12.359375,-0.47
13:07:12.375000,-2.80
13:07:12.390625,-4.97
13:07:12.406250,-7.03
13:07:12.421875,-9.17
13:07:12.437500,-11.61
13:07:12.453125,-14.44
13:07:12.468750,-17.57
13:07:12.484375,-20.65
13:07:12.500000,-23.22
13:07:12.515625,-24.81
13:07:12.531250,-25.09
13:07:12.546875,-23.99
13:07:12.562500,-21.65
13:07:12.578125,-18.36
13:07:12.593750,-14.42
13:07:12.609375,-10.09
13:07:12.625000,-5.55
13:07:12.640625,-0.93
13:07:12.656250,3.65
13:07:12.671875,8.00
13:07:12.687500,11.88
13:07:12.703125,15.10
13:07:12.718750,17.51
13:07:12.734375,19.12
13:07:12.750000,20.08
13:07:12.765625,20.59
13:07:12.781250,20.85
13:07:12.796875,20.99
13:07:12.812500,21.00
13:07:12.828125,20.90
13:07:12.843750,20.72
13:07:12.859375,20.58
13:07:12.875000,20.64
13:07:12.890625,21.11
13:07:12.906250,22.10
13:07:12.921875,23.67
13:07:12.937500,25.82
13:07:12.953125,28.47
13:07:12.968750,31.42
13:07:12.984375,34.28
13:07:13,36.46
13:07:13.015625,37.29
13:07:13.031250,36.20
13:07:13.046875,32.89
13:07:13.062500,27.48
13:07:13.078125,20.44
13:07:13.093750,12.42
13:07:13.109375,4.06
13:07:13.125000,-4.21
13:07:13.140625,-12.15
13:07:13.156250,-19.72
13:07:13.171875,-26.87
13:07:13.187500,-33.55
13:07:13.203125,-39.59
13:07:13.218750,-44.81
13:07:13.234375,-49.03
13:07:13.250000,-52.12
13:07:13.265625,-53.98
13:07:13.281250,-54.55
13:07:13.296875,-53.76
13:07:13.312500,-51.54
13:07:13.328125,-47.92
13:07:13.343750,-43.08
13:07:13.359375,-37.36
13:07:13.375000,-31.24
13:07:13.390625,-25.19
13:07:13.406250,-19.57
13:07:13.421875,-14.52
13:07:13.437500,-9.98
13:07:13.453125,-5.79
13:07:13.468750,-1.78
13:07:13.484375,2.14
13:07:13.500000,5.88
13:07:13.515625,9.25
13:07:13.531250,12.05
13:07:13.546875,14.09
13:07:13.562500,15.33
13:07:13.578125,15.86
13:07:13.593750,15.90
13:07:13.609375,15.69
13:07:13.625000,15.41
13:07:13.640625,15.14
13:07:13.656250,14.88
13:07:13.671875,14.59
13:07:13.687500,14.25
13:07:13.703125,13.88
13:07:13.718750,13.48
13:07:13.734375,13.07
13:07:13.750000,12.57
13:07:13.765625,11.93
13:07:13.781250,11.05
13:07:13.796875,9.93
13:07:13.812500,8.59
13:07:13.828125,7.14
13:07:13.843750,5.67
13:07:13.859375,4.28
13:07:13.875000,3.05
13:07:13.890625,2.02
13:07:13.906250,1.18
13:07:13.921875,0.46
13:07:13.937500,-0.22
13:07:13.953125,-0.95
13:07:13.968750,-1.80
13:07:13.984375,-2.78
13:07:14,-3.88
13:07:14.015625,-5.06
13:07:14.031250,-6.31
13:07:14.046875,-7.66
13:07:14.062500,-9.18
13:07:14.078125,-10.95
13:07:14.093750,-13.00
13:07:14.109375,-15.39
13:07:14.125000,-18.11
13:07:14.140625,-21.10
13:07:14.156250,-24.24
13:07:14.171875,-27.30
13:07:14.187500,-29.94
13:07:14.203125,-31.77
13:07:14.218750,-32.43
13:07:14.234375,-31.69
13:07:14.250000,-29.54
13:07:14.265625,-26.16
13:07:14.281250,-21.93
13:07:14.296875,-17.25
13:07:14.312500,-12.51
13:07:14.328125,-7.97
13:07:14.343750,-3.77
13:07:14.359375,0.06
13:07:14.375000,3.51
13:07:14.390625,6.59
13:07:14.406250,9.22
13:07:14.421875,11.35
13:07:14.437500,12.94
13:07:14.453125,14.04
13:07:14.468750,14.75
13:07:14.484375,15.21
13:07:14.500000,15.53
13:07:14.515625,15.77
13:07:14.531250,15.94
13:07:14.546875,16.04
13:07:14.562500,16.11
13:07:14.578125,16.22
13:07:14.593750,16.41
13:07:14.609375,16.66
13:07:14.625000,16.87
13:07:14.640625,16.87
13:07:14.656250,16.58
13:07:14.671875,16.00
13:07:14.687500,15.27
13:07:14.703125,14.58
13:07:14.718750,14.04
13:07:14.734375,13.64
13:07:14.750000,13.21
13:07:14.765625,12.56
13:07:14.781250,11.51
13:07:14.796875,10.03
13:07:14.812500,8.21
13:07:14.828125,6.23
13:07:14.843750,4.28
13:07:14.859375,2.49
13:07:14.875000,0.95
13:07:14.890625,-0.32
13:07:14.906250,-1.41
13:07:14.921875,-2.42
13:07:14.937500,-3.52
13:07:14.953125,-4.87
13:07:14.968750,-6.54
13:07:14.984375,-8.50
13:07:15,-10.59
13:07:15.015625,-12.61
13:07:15.031250,-14.45
13:07:15.046875,-16.08
13:07:15.062500,-17.58
13:07:15.078125,-19.10
13:07:15.093750,-20.79
13:07:15.109375,-22.76
13:07:15.125000,-25.02
13:07:15.140625,-27.55
13:07:15.156250,-30.19
13:07:15.171875,-32.67
13:07:15.187500,-34.55
13:07:15.203125,-35.35
13:07:15.218750,-34.72
13:07:15.234375,-32.52
13:07:15.250000,-28.94
13:07:15.265625,-24.43
13:07:15.281250,-19.55
13:07:15.296875,-14.73
13:07:15.312500,-10.27
13:07:15.328125,-6.21
13:07:15.343750,-2.51
13:07:15.359375,0.93
13:07:15.375000,4.13
13:07:15.390625,7.07
13:07:15.406250,9.68
13:07:15.421875,11.89
13:07:15.437500,13.72
13:07:15.453125,15.19
13:07:15.468750,16.35
13:07:15.484375,17.24
13:07:15.500000,17.92
13:07:15.515625,18.42
13:07:15.531250,18.79
13:07:15.546875,19.07
13:07:15.562500,19.31
13:07:15.578125,19.52
13:07:15.593750,19.69
13:07:15.609375,19.80
13:07:15.625000,19.82
13:07:15.640625,19.73
13:07:15.656250,19.50
13:07:15.671875,19.10
13:07:15.687500,18.48
13:07:15.703125,17.68
13:07:15.718750,16.72
13:07:15.734375,15.70
13:07:15.750000,14.68
13:07:15.765625,13.70
13:07:15.781250,12.69
13:07:15.796875,11.57
13:07:15.812500,10.21
13:07:15.828125,8.55
13:07:15.843750,6.61
13:07:15.859375,4.47
13:07:15.875000,2.36
13:07:15.890625,0.49
13:07:15.906250,-0.99
13:07:15.921875,-2.04
13:07:15.937500,-2.83
13:07:15.953125,-3.66
13:07:15.968750,-4.88
13:07:15.984375,-6.71
13:07:16,-9.12
13:07:16.015625,-11.87
13:07:16.031250,-14.55
13:07:16.046875,-16.79
13:07:16.062500,-18.40
13:07:16.078125,-19.43
13:07:16.093750,-20.13
13:07:16.109375,-20.86
13:07:16.125000,-21.96
13:07:16.140625,-23.61
13:07:16.156250,-25.83
13:07:16.171875,-28.38
13:07:16.187500,-30.83
13:07:16.203125,-32.61
13:07:16.218750,-33.23
13:07:16.234375,-32.36
13:07:16.250000,-30.00
13:07:16.265625,-26.44
13:07:16.281250,-22.14
13:07:16.296875,-17.58
13:07:16.312500,-13.11
13:07:16.328125,-8.89
13:07:16.343750,-4.97
13:07:16.359375,-1.35
13:07:16.375000,1.94
13:07:16.390625,4.84
13:07:16.406250,7.27
13:07:16.421875,9.19
13:07:16.437500,10.57
13:07:16.453125,11.44
13:07:16.468750,11.85
13:07:16.484375,11.89
13:07:16.500000,11.72
13:07:16.515625,11.49
13:07:16.531250,11.37
13:07:16.546875,11.42
13:07:16.562500,11.64
13:07:16.578125,11.96
13:07:16.593750,12.36
13:07:16.609375,12.82
13:07:16.625000,13.38
13:07:16.640625,14.09
13:07:16.656250,14.91
13:07:16.671875,15.75
13:07:16.687500,16.49
13:07:16.703125,17.00
13:07:16.718750,17.21
13:07:16.734375,17.10
13:07:16.750000,16.73
13:07:16.765625,16.16
13:07:16.781250,15.46
13:07:16.796875,14.63
13:07:16.812500,13.64
13:07:16.828125,12.45
13:07:16.843750,11.03
13:07:16.859375,9.44
13:07:16.875000,7.81
13:07:16.890625,6.31
13:07:16.906250,5.04
13:07:16.921875,3.96
13:07:16.937500,2.90
13:07:16.953125,1.55
13:07:16.968750,-0.34
13:07:16.984375,-2.84
13:07:17,-5.80
13:07:17.015625,-8.90
13:07:17.031250,-11.72
13:07:17.046875,-13.99
13:07:17.062500,-15.61
13:07:17.078125,-16.74
13:07:17.093750,-17.68
13:07:17.109375,-18.78
13:07:17.125000,-20.29
13:07:17.140625,-22.28
13:07:17.156250,-24.67
13:07:17.171875,-27.19
13:07:17.187500,-29.47
13:07:17.203125,-31.12
13:07:17.218750,-31.79
13:07:17.234375,-31.24
13:07:17.250000,-29.41
13:07:17.265625,-26.46
13:07:17.281250,-22.70
13:07:17.296875,-18.52
13:07:17.312500,-14.32
13:07:17.328125,-10.36
13:07:17.343750,-6.76
13:07:17.359375,-3.53
13:07:17.375000,-0.58
13:07:17.390625,2.18
13:07:17.406250,4.74
13:07:17.421875,7.04
13:07:17.437500,8.95
13:07:17.453125,10.37
13:07:17.468750,11.29
13:07:17.484375,11.83
13:07:17.500000,12.18
13:07:17.515625,12.51
13:07:17.531250,12.91
13:07:17.546875,13.31
13:07:17.562500,13.60
13:07:17.578125,13.67
13:07:17.593750,13.55
13:07:17.609375,13.32
13:07:17.625000,13.08
13:07:17.640625,12.87
13:07:17.656250,12.63
13:07:17.671875,12.26
13:07:17.687500,11.70
13:07:17.703125,11.04
13:07:17.718750,10.37
13:07:17.734375,9.81
13:07:17.750000,9.39
13:07:17.765625,9.02
13:07:17.781250,8.61
13:07:17.796875,8.04
13:07:17.812500,7.31
13:07:17.828125,6.40
13:07:17.843750,5.39
13:07:17.859375,4.30
13:07:17.875000,3.17
13:07:17.890625,2.03
13:07:17.906250,0.95
13:07:17.921875,-0.06
13:07:17.937500,-1.00
13:07:17.953125,-1.97
13:07:17.968750,-3.11
13:07:17.984375,-4.51
13:07:18,-6.18
13:07:18.015625,-8.05
13:07:18.031250,-9.96
13:07:18.046875,-11.73
13:07:18.062500,-13.24
13:07:18.078125,-14.43
13:07:18.093750,-15.41
13:07:18.109375,-16.38
13:07:18.125000,-17.59
13:07:18.140625,-19.21
13:07:18.156250,-21.20
13:07:18.171875,-23.30
13:07:18.187500,-25.05
13:07:18.203125,-25.99
13:07:18.218750,-25.80
13:07:18.234375,-24.43
13:07:18.250000,-22.09
13:07:18.265625,-19.12
13:07:18.281250,-15.83
13:07:18.296875,-12.41
13:07:18.312500,-8.93
13:07:18.328125,-5.39
13:07:18.343750,-1.85
