17:46:09,-0.00
17:46:09.015625,-0.00
17:46:09.031250,-0.00
17:46:09.046875,-0.00
17:46:09.062500,-0.00
17:46:09.078125,-0.00
17:46:09.093750,-0.00
17:46:09.109375,-0.00
17:46:09.125000,-0.00
17:46:09.140625,-0.00
17:46:09.156250,0.00
17:46:09.171875,0.01
17:46:09.187500,0.01
17:46:09.203125,-0.00
17:46:09.218750,-0.03
17:46:09.234375,-0.05
17:46:09.250000,-0.05
17:46:09.265625,0.00
17:46:09.281250,0.13
17:46:09.296875,0.36
17:46:09.312500,0.66
17:46:09.328125,1.01
17:46:09.343750,1.37
17:46:09.359375,1.72
17:46:09.375000,2.06
17:46:09.390625,2.40
17:46:09.406250,2.79
17:46:09.421875,3.24
17:46:09.437500,3.80
17:46:09.453125,4.42
17:46:09.468750,5.06
17:46:09.484375,5.66
17:46:09.500000,6.20
17:46:09.515625,6.68
17:46:09.531250,7.15
17:46:09.546875,7.68
17:46:09.562500,8.31
17:46:09.578125,9.14
17:46:09.593750,10.09
17:46:09.609375,11.04
17:46:09.625000,11.88
17:46:09.640625,12.56
17:46:09.656250,13.14
17:46:09.671875,13.76
17:46:09.687500,14.65
17:46:09.703125,15.96
17:46:09.718750,17.91
17:46:09.734375,20.32
17:46:09.750000,22.90
17:46:09.765625,25.38
17:46:09.781250,27.58
17:46:09.796875,29.57
17:46:09.812500,31.68
17:46:09.828125,34.32
17:46:09.843750,37.81
17:46:09.859375,42.54
17:46:09.875000,48.15
17:46:09.890625,54.10
17:46:09.906250,59.83
17:46:09.921875,64.97
17:46:09.937500,69.58
17:46:09.953125,74.14
17:46:09.968750,79.34
17:46:09.984375,85.71
17:46:10,93.76
17:46:10.015625,103.00
17:46:10.031250,112.62
17:46:10.046875,121.73
17:46:10.062500,129.77
17:46:10.078125,136.75
17:46:10.093750,143.30
17:46:10.109375,150.75
17:46:10.125000,157.77
17:46:10.140625,166.64
17:46:10.156250,177.95
17:46:10.171875,191.79
17:46:10.187500,206.97
17:46:10.203125,220.57
17:46:10.218750,228.25
17:46:10.234375,225.36
17:46:10.250000,208.53
17:46:10.265625,176.87
17:46:10.281250,132.76
17:46:10.296875,80.05
17:46:10.312500,23.07
17:46:10.328125,-34.94
17:46:10.343750,-92.44
17:46:10.359375,-149.16
17:46:10.375000,-205.23
17:46:10.390625,-260.37
17:46:10.406250,-313.74
17:46:10.421875,-363.88
17:46:10.437500,-409.84
17:46:10.453125,-450.90
17:46:10.468750,-486.48
17:46:10.484375,-515.71
17:46:10.500000,-537.20
17:46:10.515625,-549.22
17:46:10.531250,-550.02
17:46:10.546875,-538.52
17:46:10.562500,-514.45
17:46:10.578125,-479.00
17:46:10.593750,-434.26
17:46:10.609375,-382.84
17:46:10.625000,-327.40
17:46:10.640625,-270.21
17:46:10.656250,-213.02
17:46:10.671875,-157.10
17:46:10.687500,-103.47
17:46:10.703125,-52.98
17:46:10.718750,-6.57
17:46:10.734375,34.88
17:46:10.750000,70.74
17:46:10.765625,100.69
17:46:10.781250,124.83
17:46:10.796875,143.62
17:46:10.812500,157.75
17:46:10.828125,167.95
17:46:10.843750,174.90
17:46:10.859375,179.10
17:46:10.875000,180.86
17:46:10.890625,180.42
17:46:10.906250,177.98
17:46:10.921875,173.75
17:46:10.937500,168.01
17:46:10.953125,161.12
17:46:10.968750,153.47
17:46:10.984375,145.47
17:46:11,137.44
17:46:11.015625,129.60
17:46:11.031250,121.99
17:46:11.046875,114.49
17:46:11.062500,106.90
17:46:11.078125,99.03
17:46:11.093750,90.83
17:46:11.109375,82.46
17:46:11.125000,74.26
17:46:11.140625,66.61
17:46:11.156250,59.80
17:46:11.171875,53.84
17:46:11.187500,48.45
17:46:11.203125,43.17
17:46:11.218750,37.55
17:46:11.234375,31.41
17:46:11.250000,24.93
17:46:11.265625,18.61
17:46:11.281250,13.03
17:46:11.296875,8.58
17:46:11.312500,5.27
17:46:11.328125,2.72
17:46:11.343750,0.35
17:46:11.359375,-2.40
17:46:11.375000,-5.90
17:46:11.390625,-10.27
17:46:11.406250,-15.41
17:46:11.421875,-20.86
17:46:11.437500,-25.69
17:46:11.453125,-28.53
17:46:11.468750,-27.89
17:46:11.484375,-22.73
17:46:11.500000,-13.13
17:46:11.515625,-0.49
17:46:11.531250,12.79
17:46:11.546875,24.21
17:46:11.562500,32.09
17:46:11.578125,36.11
17:46:11.593750,37.02
17:46:11.609375,35.98
17:46:11.625000,33.86
17:46:11.640625,30.82
17:46:11.656250,26.71
17:46:11.671875,21.60
17:46:11.687500,16.23
17:46:11.703125,11.91
17:46:11.718750,10.09
17:46:11.734375,11.68
17:46:11.750000,16.64
17:46:11.765625,23.87
17:46:11.781250,31.56
17:46:11.796875,37.72
17:46:11.812500,40.79
17:46:11.828125,40.04
17:46:11.843750,35.77
17:46:11.859375,29.16
17:46:11.875000,21.78
17:46:11.890625,15.05
17:46:11.906250,9.86
17:46:11.921875,6.35
17:46:11.937500,4.12
17:46:11.953125,2.58
17:46:11.968750,1.31
17:46:11.984375,0.19
17:46:12,-0.65
17:46:12.015625,-1.07
17:46:12.031250,-1.09
17:46:12.046875,-0.92
17:46:12.062500,-0.86
17:46:12.078125,-1.11
17:46:12.093750,-1.70
17:46:12.109375,-2.49
17:46:12.125000,-3.20
17:46:12.140625,-3.58
17:46:12.156250,-3.47
17:46:12.171875,-2.90
17:46:12.187500,-2.09
17:46:12.203125,-1.39
17:46:12.218750,-1.15
17:46:12.234375,-1.51
17:46:12.250000,-2.33
17:46:12.265625,-3.22
17:46:12.281250,-3.70
17:46:12.296875,-3.45
17:46:12.312500,-2.46
17:46:12.328125,-1.07
17:46:12.343750,0.20
17:46:12.359375,0.97
17:46:12.375000,1.13
17:46:12.390625,0.94
17:46:12.406250,0.80
17:46:12.421875,1.09
17:46:12.437500,1.92
17:46:12.453125,3.17
17:46:12.468750,4.48
17:46:12.484375,5.51
17:46:12.500000,6.08
17:46:12.515625,6.21
17:46:12.531250,6.13
17:46:12.546875,6.15
17:46:12.562500,6.54
17:46:12.578125,7.39
17:46:12.593750,8.54
17:46:12.609375,9.67
17:46:12.625000,10.33
17:46:12.640625,10.14
17:46:12.656250,8.80
17:46:12.671875,6.27
17:46:12.687500,2.81
17:46:12.703125,-1.16
17:46:12.718750,-4.85
17:46:12.734375,-7.31
17:46:12.750000,-7.71
17:46:12.765625,-5.75
17:46:12.781250,-1.88
17:46:12.796875,2.75
17:46:12.812500,6.67
17:46:12.828125,8.60
17:46:12.843750,7.92
17:46:12.859375,4.92
17:46:12.875000,0.57
17:46:12.890625,-3.94
17:46:12.906250,-7.54
17:46:12.921875,-9.67
17:46:12.937500,-10.25
17:46:12.953125,-9.61
17:46:12.968750,-8.26
17:46:12.984375,-6.71
17:46:13,-5.39
17:46:13.015625,-4.55
17:46:13.031250,-4.26
17:46:13.046875,-4.36
17:46:13.062500,-4.59
17:46:13.078125,-4.60
17:46:13.093750,-4.18
17:46:13.109375,-3.28
17:46:13.125000,-2.08
17:46:13.140625,-0.90
17:46:13.156250,-0.06
17:46:13.171875,0.20
17:46:13.187500,-0.18
17:46:13.203125,-1.10
17:46:13.218750,-2.42
17:46:13.234375,-3.93
17:46:13.250000,-5.43
17:46:13.265625,-6.72
17:46:13.281250,-7.63
17:46:13.296875,-8.05
17:46:13.312500,-7.96
17:46:13.328125,-7.48
17:46:13.343750,-6.80
17:46:13.359375,-6.13
17:46:13.375000,-5.54
17:46:13.390625,-5.05
17:46:13.406250,-4.57
17:46:13.421875,-4.10
17:46:13.437500,-3.69
17:46:13.453125,-3.45
17:46:13.468750,-3.45
17:46:13.484375,-3.66
17:46:13.500000,-3.97
17:46:13.515625,-4.25
17:46:13.531250,-4.44
17:46:13.546875,-4.62
17:46:13.562500,-5.02
17:46:13.578125,-5.92
17:46:13.593750,-7.51
17:46:13.609375,-9.85
17:46:13.625000,-12.86
17:46:13.640625,-16.37
17:46:13.656250,-20.18
17:46:13.671875,-24.17
17:46:13.687500,-27.96
17:46:13.703125,-31.42
17:46:13.718750,-34.61
17:46:13.734375,-37.83
17:46:13.750000,-41.63
17:46:13.765625,-46.52
17:46:13.781250,-52.70
17:46:13.796875,-59.61
17:46:13.812500,-65.88
17:46:13.828125,-69.48
17:46:13.843750,-68.49
17:46:13.859375,-61.76
17:46:13.875000,-49.53
17:46:13.890625,-33.41
17:46:13.906250,-15.94
17:46:13.921875,0.30
17:46:13.937500,13.42
17:46:13.953125,22.67
17:46:13.968750,28.32
17:46:13.984375,31.26
17:46:14,32.52
17:46:14.015625,32.90
17:46:14.031250,32.91
17:46:14.046875,32.81
17:46:14.062500,32.75
17:46:14.078125,32.86
17:46:14.093750,33.24
17:46:14.109375,33.92
17:46:14.125000,34.77
17:46:14.140625,35.53
17:46:14.156250,35.96
17:46:14.171875,35.91
17:46:14.187500,35.48
17:46:14.203125,34.97
17:46:14.218750,34.76
17:46:14.234375,35.08
17:46:14.250000,35.83
17:46:14.265625,36.60
17:46:14.281250,36.83
17:46:14.296875,36.11
17:46:14.312500,34.34
17:46:14.328125,31.82
17:46:14.343750,29.03
17:46:14.359375,26.41
17:46:14.375000,24.18
17:46:14.390625,22.28
17:46:14.406250,20.48
17:46:14.421875,18.55
17:46:14.437500,16.41
17:46:14.453125,14.14
17:46:14.468750,11.95
17:46:14.484375,10.07
17:46:14.500000,8.63
17:46:14.515625,7.58
17:46:14.531250,6.74
17:46:14.546875,5.81
17:46:14.562500,4.57
17:46:14.578125,2.93
17:46:14.593750,0.95
17:46:14.609375,-1.16
17:46:14.625000,-3.18
17:46:14.640625,-5.01
17:46:14.656250,-6.68
17:46:14.671875,-8.36
17:46:14.687500,-10.27
17:46:14.703125,-12.59
17:46:14.718750,-15.40
17:46:14.734375,-18.65
17:46:14.750000,-22.16
17:46:14.765625,-25.69
17:46:14.781250,-28.96
17:46:14.796875,-31.79
17:46:14.812500,-34.19
17:46:14.828125,-36.48
17:46:14.843750,-39.28
17:46:14.859375,-43.40
17:46:14.875000,-49.44
17:46:14.890625,-57.38
17:46:14.906250,-66.29
17:46:14.921875,-74.31
17:46:14.937500,-79.10
17:46:14.953125,-78.57
17:46:14.968750,-71.70
17:46:14.984375,-58.94
17:46:15,-42.20
17:46:15.015625,-24.19
17:46:15.031250,-7.63
17:46:15.046875,5.57
17:46:15.062500,14.67
17:46:15.078125,19.99
17:46:15.093750,22.57
17:46:15.109375,23.58
17:46:15.125000,23.92
17:46:15.140625,24.15
17:46:15.156250,24.50
17:46:15.171875,25.07
17:46:15.187500,25.95
17:46:15.203125,27.21
17:46:15.218750,28.85
17:46:15.234375,30.70
17:46:15.250000,32.43
17:46:15.265625,33.66
17:46:15.281250,34.26
17:46:15.296875,34.33
17:46:15.312500,34.32
17:46:15.328125,34.68
17:46:15.343750,35.66
17:46:15.359375,37.06
17:46:15.375000,38.33
17:46:15.390625,38.74
17:46:15.406250,37.78
17:46:15.421875,35.38
17:46:15.437500,31.96
17:46:15.453125,28.26
17:46:15.468750,24.98
17:46:15.484375,22.55
17:46:15.500000,21.04
17:46:15.515625,20.17
17:46:15.531250,19.60
17:46:15.546875,19.08
17:46:15.562500,18.57
17:46:15.578125,18.17
17:46:15.593750,18.00
17:46:15.609375,18.12
17:46:15.625000,18.38
17:46:15.640625,18.59
17:46:15.656250,18.54
17:46:15.671875,18.17
17:46:15.687500,17.62
17:46:15.703125,17.23
17:46:15.718750,17.32
17:46:15.734375,18.05
17:46:15.750000,19.23
17:46:15.765625,20.35
17:46:15.781250,20.72
17:46:15.796875,19.74
17:46:15.812500,17.18
17:46:15.828125,13.26
17:46:15.843750,8.51
17:46:15.859375,3.56
17:46:15.875000,-1.15
17:46:15.890625,-5.55
17:46:15.906250,-9.89
17:46:15.921875,-14.70
17:46:15.937500,-20.53
17:46:15.953125,-27.85
17:46:15.968750,-36.85
17:46:15.984375,-47.29
17:46:16,-58.29
17:46:16.015625,-68.31
17:46:16.031250,-75.30
17:46:16.046875,-77.25
17:46:16.062500,-72.79
17:46:16.078125,-61.81
17:46:16.093750,-45.68
17:46:16.109375,-27.03
17:46:16.125000,-8.94
17:46:16.140625,5.90
17:46:16.156250,15.92
17:46:16.171875,20.96
17:46:16.187500,22.02
17:46:16.203125,20.69
17:46:16.218750,18.47
17:46:16.234375,16.31
17:46:16.250000,14.53
17:46:16.265625,13.08
17:46:16.281250,11.79
17:46:16.296875,10.68
17:46:16.312500,9.97
17:46:16.328125,9.88
17:46:16.343750,10.51
17:46:16.359375,11.66
17:46:16.375000,12.98
17:46:16.390625,14.14
17:46:16.406250,15.02
17:46:16.421875,15.77
17:46:16.437500,16.65
17:46:16.453125,17.85
17:46:16.468750,19.25
17:46:16.484375,20.45
17:46:16.500000,20.94
17:46:16.515625,20.33
17:46:16.531250,18.51
17:46:16.546875,15.78
17:46:16.562500,12.66
17:46:16.578125,9.73
17:46:16.593750,7.40
17:46:16.609375,5.82
17:46:16.625000,4.87
17:46:16.640625,4.34
17:46:16.656250,3.97
17:46:16.671875,3.69
17:46:16.687500,3.56
17:46:16.703125,3.72
17:46:16.718750,4.32
17:46:16.734375,5.38
17:46:16.750000,6.80
17:46:16.765625,8.39
17:46:16.781250,9.99
17:46:16.796875,11.47
17:46:16.812500,12.73
17:46:16.828125,13.61
17:46:16.843750,13.84
17:46:16.859375,13.09
17:46:16.875000,11.13
17:46:16.890625,7.97
17:46:16.906250,3.91
17:46:16.921875,-0.53
17:46:16.937500,-4.85
17:46:16.953125,-8.73
17:46:16.968750,-12.22
17:46:16.984375,-15.66
17:46:17,-19.57
17:46:17.015625,-24.48
17:46:17.031250,-30.66
17:46:17.046875,-37.89
17:46:17.062500,-45.31
17:46:17.078125,-51.40
17:46:17.093750,-54.34
17:46:17.109375,-52.57
17:46:17.125000,-45.39
17:46:17.140625,-33.40
17:46:17.156250,-18.43
17:46:17.171875,-2.95
17:46:17.187500,10.67
17:46:17.203125,20.90
17:46:17.218750,27.29
17:46:17.234375,30.35
17:46:17.250000,31.05
17:46:17.265625,30.37
17:46:17.281250,28.99
17:46:17.296875,27.23
17:46:17.312500,25.18
17:46:17.328125,22.86
17:46:17.343750,20.31
17:46:17.359375,17.66
17:46:17.375000,15.05
17:46:17.390625,12.60
17:46:17.406250,10.38
17:46:17.421875,8.42
17:46:17.437500,6.76
17:46:17.453125,5.50
17:46:17.468750,4.75
17:46:17.484375,4.56
17:46:17.500000,4.77
17:46:17.515625,5.03
17:46:17.531250,4.80
17:46:17.546875,3.59
17:46:17.562500,1.11
17:46:17.578125,-2.55
17:46:17.593750,-7.01
17:46:17.609375,-11.72
17:46:17.625000,-16.14
17:46:17.640625,-19.93
17:46:17.656250,-22.93
17:46:17.671875,-25.17
17:46:17.687500,-26.71
17:46:17.703125,-27.74
17:46:17.718750,-28.43
17:46:17.734375,-29.05
17:46:17.750000,-29.80
17:46:17.765625,-30.75
17:46:17.781250,-31.75
17:46:17.796875,-32.47
17:46:17.812500,-32.50
17:46:17.828125,-31.64
17:46:17.843750,-30.04
17:46:17.859375,-28.28
17:46:17.875000,-27.10
17:46:17.890625,-27.12
17:46:17.906250,-28.49
17:46:17.921875,-30.77
17:46:17.937500,-33.09
17:46:17.953125,-34.53
17:46:17.968750,-34.51
17:46:17.984375,-33.08
17:46:18,-30.84
17:46:18.015625,-28.85
17:46:18.031250,-28.17
17:46:18.046875,-29.64
17:46:18.062500,-33.49
17:46:18.078125,-39.25
17:46:18.093750,-45.59
17:46:18.109375,-50.55
17:46:18.125000,-51.97
17:46:18.140625,-48.10
17:46:18.156250,-38.24
17:46:18.171875,-23.09
17:46:18.187500,-4.64
17:46:18.203125,14.40
17:46:18.218750,31.41
17:46:18.234375,44.53
17:46:18.250000,53.08
17:46:18.265625,57.45
17:46:18.281250,58.76
17:46:18.296875,58.33
17:46:18.312500,57.29
17:46:18.328125,56.32
17:46:18.343750,55.69
17:46:18.359375,55.37
17:46:18.375000,55.23
17:46:18.390625,55.16
17:46:18.406250,55.16
17:46:18.421875,55.24
17:46:18.437500,55.39
17:46:18.453125,55.46
17:46:18.468750,55.21
17:46:18.484375,54.37
17:46:18.500000,52.72
17:46:18.515625,50.19
17:46:18.531250,46.78
17:46:18.546875,42.61
17:46:18.562500,37.90
17:46:18.578125,32.89
17:46:18.593750,27.87
17:46:18.609375,23.04
17:46:18.625000,18.58
17:46:18.640625,14.57
17:46:18.656250,11.07
17:46:18.671875,8.15
17:46:18.687500,5.91
17:46:18.703125,4.35
17:46:18.718750,3.26
17:46:18.734375,2.22
17:46:18.750000,0.72
17:46:18.765625,-1.63
17:46:18.781250,-4.88
17:46:18.796875,-8.64
17:46:18.812500,-12.26
17:46:18.828125,-15.12
17:46:18.843750,-16.92
17:46:18.859375,-17.83
17:46:18.875000,-18.44
17:46:18.890625,-19.47
17:46:18.906250,-21.48
17:46:18.921875,-24.63
17:46:18.937500,-28.63
17:46:18.953125,-32.86
17:46:18.968750,-36.66
17:46:18.984375,-39.63
17:46:19,-41.76
17:46:19.015625,-43.44
17:46:19.031250,-45.29
17:46:19.046875,-47.92
17:46:19.062500,-51.72
17:46:19.078125,-56.73
17:46:19.093750,-62.50
17:46:19.109375,-68.10
17:46:19.125000,-72.15
17:46:19.140625,-73.08
17:46:19.156250,-69.53
17:46:19.171875,-60.87
17:46:19.187500,-47.57
17:46:19.203125,-31.25
17:46:19.218750,-14.33
17:46:19.234375,0.69
17:46:19.250000,11.99
17:46:19.265625,18.88
17:46:19.281250,21.85
17:46:19.296875,22.18
17:46:19.312500,21.35
17:46:19.328125,20.49
17:46:19.343750,20.17
17:46:19.359375,20.37
17:46:19.375000,20.80
17:46:19.390625,21.19
17:46:19.406250,21.45
17:46:19.421875,21.69
17:46:19.437500,22.13
17:46:19.453125,22.88
17:46:19.468750,23.90
17:46:19.484375,25.00
17:46:19.500000,25.94
17:46:19.515625,26.54
17:46:19.531250,26.78
17:46:19.546875,26.72
17:46:19.562500,26.45
17:46:19.578125,25.95
17:46:19.593750,25.10
17:46:19.609375,23.68
17:46:19.625000,21.51
17:46:19.640625,18.55
17:46:19.656250,14.95
17:46:19.671875,11.09
17:46:19.687500,7.40
17:46:19.703125,4.26
17:46:19.718750,1.88
17:46:19.734375,0.20
17:46:19.750000,-0.97
17:46:19.765625,-1.93
17:46:19.781250,-2.94
17:46:19.796875,-4.17
17:46:19.812500,-5.74
17:46:19.828125,-7.71
17:46:19.843750,-10.06
17:46:19.859375,-12.68
17:46:19.875000,-15.41
17:46:19.890625,-18.02
17:46:19.906250,-20.35
17:46:19.921875,-22.41
17:46:19.937500,-24.40
17:46:19.953125,-26.68
17:46:19.968750,-29.63
17:46:19.984375,-33.45
17:46:20,-38.05
17:46:20.015625,-43.01
17:46:20.031250,-47.79
17:46:20.046875,-51.89
17:46:20.062500,-55.03
17:46:20.078125,-57.33
17:46:20.093750,-59.22
17:46:20.109375,-61.40
17:46:20.125000,-64.66
17:46:20.140625,-69.66
17:46:20.156250,-76.64
17:46:20.171875,-85.08
17:46:20.187500,-93.51
17:46:20.203125,-99.64
17:46:20.218750,-100.90
17:46:20.234375,-95.39
17:46:20.250000,-82.66
17:46:20.265625,-64.09
17:46:20.281250,-42.59
17:46:20.296875,-21.61
17:46:20.312500,-4.03
17:46:20.328125,8.65
17:46:20.343750,16.51
17:46:20.359375,20.75
17:46:20.375000,22.97
17:46:20.390625,24.53
17:46:20.406250,26.20
17:46:20.421875,28.21
17:46:20.437500,30.51
17:46:20.453125,32.93
17:46:20.468750,35.30
17:46:20.484375,37.51
17:46:20.500000,39.46
17:46:20.515625,41.02
17:46:20.531250,42.12
17:46:20.546875,42.78
17:46:20.562500,43.23
17:46:20.578125,43.86
17:46:20.593750,45.09
17:46:20.609375,47.24
17:46:20.625000,50.31
17:46:20.640625,53.90
17:46:20.656250,57.36
17:46:20.671875,59.99
17:46:20.687500,61.35
17:46:20.703125,61.36
17:46:20.718750,60.37
17:46:20.734375,58.93
17:46:20.750000,57.59
17:46:20.765625,56.67
17:46:20.781250,56.20
17:46:20.796875,55.90
17:46:20.812500,55.34
17:46:20.828125,54.10
17:46:20.843750,51.93
17:46:20.859375,48.84
17:46:20.875000,45.09
17:46:20.890625,41.13
17:46:20.906250,37.42
17:46:20.921875,34.26
17:46:20.937500,31.68
17:46:20.953125,29.39
17:46:20.968750,26.96
17:46:20.984375,23.94
17:46:21,20.08
17:46:21.015625,15.41
17:46:21.031250,10.29
17:46:21.046875,5.23
17:46:21.062500,0.68
17:46:21.078125,-3.15
17:46:21.093750,-6.43
17:46:21.109375,-9.63
17:46:21.125000,-13.28
17:46:21.140625,-17.71
17:46:21.156250,-22.89
17:46:21.171875,-28.38
17:46:21.187500,-33.54
17:46:21.203125,-37.86
17:46:21.218750,-41.19
17:46:21.234375,-43.84
17:46:21.250000,-46.50
17:46:21.265625,-49.94
17:46:21.281250,-54.80
17:46:21.296875,-61.30
17:46:21.312500,-69.06
17:46:21.328125,-76.97
17:46:21.343750,-83.29
17:46:21.359375,-85.96
17:46:21.375000,-83.18
17:46:21.390625,-74.06
17:46:21.406250,-59.10
17:46:21.421875,-40.15
17:46:21.437500,-20.00
17:46:21.453125,-1.50
17:46:21.468750,13.26
17:46:21.484375,23.40
17:46:21.500000,29.30
17:46:21.515625,32.11
17:46:21.531250,33.28
17:46:21.546875,34.03
17:46:21.562500,35.14
17:46:21.578125,36.93
17:46:21.593750,39.33
17:46:21.609375,42.08
17:46:21.625000,44.84
17:46:21.640625,47.38
17:46:21.656250,49.57
17:46:21.671875,51.42
17:46:21.687500,53.01
17:46:21.703125,54.38
17:46:21.718750,55.58
17:46:21.734375,56.61
17:46:21.750000,57.50
17:46:21.765625,58.25
17:46:21.781250,58.79
17:46:21.796875,58.95
17:46:21.812500,58.35
17:46:21.828125,56.63
17:46:21.843750,53.52
17:46:21.859375,49.11
17:46:21.875000,43.81
17:46:21.890625,38.32
17:46:21.906250,33.40
17:46:21.921875,29.60
17:46:21.937500,27.10
17:46:21.953125,25.64
17:46:21.968750,24.73
17:46:21.984375,23.75
17:46:22,22.27
17:46:22.015625,20.12
17:46:22.031250,17.45
17:46:22.046875,14.68
17:46:22.062500,12.24
17:46:22.078125,10.53
17:46:22.093750,9.67
17:46:22.109375,9.61
17:46:22.125000,10.05
17:46:22.140625,10.68
17:46:22.156250,11.16
17:46:22.171875,11.32
17:46:22.187500,11.13
17:46:22.203125,10.69
17:46:22.218750,10.24
17:46:22.234375,10.00
17:46:22.250000,10.07
17:46:22.265625,10.39
17:46:22.281250,10.63
17:46:22.296875,10.34
17:46:22.312500,8.98
17:46:22.328125,6.17
17:46:22.343750,1.81
17:46:22.359375,-3.79
17:46:22.375000,-10.02
17:46:22.390625,-16.13
17:46:22.406250,-21.62
17:46:22.421875,-26.35
17:46:22.437500,-30.73
17:46:22.453125,-35.41
17:46:22.468750,-40.94
17:46:22.484375,-47.42
17:46:22.500000,-54.26
17:46:22.515625,-60.23
17:46:22.531250,-63.84
17:46:22.546875,-63.83
17:46:22.562500,-59.64
17:46:22.578125,-51.73
17:46:22.593750,-41.42
17:46:22.609375,-30.56
17:46:22.625000,-20.94
17:46:22.640625,-13.73
17:46:22.656250,-9.15
17:46:22.671875,-6.51
17:46:22.687500,-4.64
17:46:22.703125,-2.35
17:46:22.718750,0.97
17:46:22.734375,5.18
17:46:22.750000,9.49
17:46:22.765625,12.81
17:46:22.781250,14.22
17:46:22.796875,13.27
17:46:22.812500,10.08
17:46:22.828125,5.24
17:46:22.843750,-0.48
17:46:22.859375,-6.30
17:46:22.875000,-11.59
17:46:22.890625,-15.91
17:46:22.906250,-18.98
17:46:22.921875,-20.66
17:46:22.937500,-20.97
17:46:22.953125,-20.13
17:46:22.968750,-18.55
17:46:22.984375,-16.80
17:46:23,-15.49
17:46:23.015625,-15.09
17:46:23.031250,-15.80
17:46:23.046875,-17.46
17:46:23.062500,-19.59
17:46:23.078125,-21.56
17:46:23.093750,-22.79
17:46:23.109375,-22.97
17:46:23.125000,-22.17
17:46:23.140625,-20.73
17:46:23.156250,-19.14
17:46:23.171875,-17.75
17:46:23.187500,-16.65
17:46:23.203125,-15.60
17:46:23.218750,-14.21
17:46:23.234375,-12.11
17:46:23.250000,-9.09
17:46:23.265625,-5.23
17:46:23.281250,-0.78
17:46:23.296875,3.83
17:46:23.312500,8.17
17:46:23.328125,11.92
17:46:23.343750,14.82
17:46:23.359375,16.75
17:46:23.375000,17.67
17:46:23.390625,17.54
17:46:23.406250,16.37
17:46:23.421875,14.19
17:46:23.437500,11.08
17:46:23.453125,7.22
17:46:23.468750,2.88
17:46:23.484375,-1.64
17:46:23.500000,-6.10
17:46:23.515625,-10.36
17:46:23.531250,-14.44
17:46:23.546875,-18.53
17:46:23.562500,-22.97
17:46:23.578125,-28.17
17:46:23.593750,-34.47
17:46:23.609375,-41.92
17:46:23.625000,-50.09
17:46:23.640625,-57.92
17:46:23.656250,-63.92
17:46:23.671875,-66.54
17:46:23.687500,-64.80
17:46:23.703125,-58.68
17:46:23.718750,-49.22
17:46:23.734375,-38.31
17:46:23.750000,-28.01
17:46:23.765625,-19.96
17:46:23.781250,-15.02
17:46:23.796875,-13.15
17:46:23.812500,-13.72
17:46:23.828125,-15.83
17:46:23.843750,-18.56
17:46:23.859375,-21.24
17:46:23.875000,-23.52
17:46:23.890625,-25.28
17:46:23.906250,-26.65
17:46:23.921875,-27.84
17:46:23.937500,-29.10
17:46:23.953125,-30.55
17:46:23.968750,-32.24
17:46:23.984375,-34.10
17:46:24,-35.94
17:46:24.015625,-37.47
17:46:24.031250,-38.25
17:46:24.046875,-37.81
17:46:24.062500,-35.81
17:46:24.078125,-32.15
17:46:24.093750,-27.13
17:46:24.109375,-21.33
17:46:24.125000,-15.42
17:46:24.140625,-9.92
17:46:24.156250,-4.99
17:46:24.171875,-0.43
17:46:24.187500,4.08
17:46:24.203125,8.79
17:46:24.218750,13.60
17:46:24.234375,18.12
17:46:24.250000,21.81
17:46:24.265625,24.27
17:46:24.281250,25.41
17:46:24.296875,25.47
17:46:24.312500,24.87
17:46:24.328125,23.94
17:46:24.343750,22.79
17:46:24.359375,21.30
17:46:24.375000,19.22
17:46:24.390625,16.42
17:46:24.406250,13.00
17:46:24.421875,9.25
17:46:24.437500,5.44
17:46:24.453125,1.70
17:46:24.468750,-2.11
17:46:24.484375,-6.36
17:46:24.500000,-11.35
17:46:24.515625,-17.17
17:46:24.531250,-23.55
17:46:24.546875,-29.91
17:46:24.562500,-35.64
17:46:24.578125,-40.29
17:46:24.593750,-43.77
17:46:24.609375,-46.30
17:46:24.625000,-48.39
17:46:24.640625,-50.65
17:46:24.656250,-53.73
17:46:24.671875,-58.11
17:46:24.687500,-64.07
17:46:24.703125,-71.27
17:46:24.718750,-78.62
17:46:24.734375,-84.26
17:46:24.750000,-85.93
17:46:24.765625,-81.71
17:46:24.781250,-70.79
17:46:24.796875,-53.83
17:46:24.812500,-32.95
17:46:24.828125,-11.07
17:46:24.843750,9.02
17:46:24.859375,25.44
17:46:24.875000,37.47
17:46:24.890625,45.53
17:46:24.906250,50.55
17:46:24.921875,53.56
17:46:24.937500,55.26
17:46:24.953125,55.98
17:46:24.968750,55.83
17:46:24.984375,54.95
17:46:25,53.63
17:46:25.015625,52.35
17:46:25.031250,51.64
17:46:25.046875,51.86
17:46:25.062500,53.04
17:46:25.078125,54.89
17:46:25.093750,56.95
17:46:25.109375,58.77
17:46:25.125000,60.15
17:46:25.140625,61.18
17:46:25.156250,62.02
17:46:25.171875,62.81
17:46:25.187500,63.34
17:46:25.203125,63.16
17:46:25.218750,61.75
17:46:25.234375,58.83
17:46:25.250000,54.50
17:46:25.265625,49.32
17:46:25.281250,44.05
17:46:25.296875,39.31
17:46:25.312500,35.40
17:46:25.328125,32.22
17:46:25.343750,29.39
17:46:25.359375,26.52
17:46:25.375000,23.31
17:46:25.390625,19.70
17:46:25.406250,15.74
17:46:25.421875,11.62
17:46:25.437500,7.50
17:46:25.453125,3.55
17:46:25.468750,-0.16
17:46:25.484375,-3.64
17:46:25.500000,-7.01
17:46:25.515625,-10.57
17:46:25.531250,-14.66
17:46:25.546875,-19.58
17:46:25.562500,-25.46
17:46:25.578125,-32.22
17:46:25.593750,-39.47
17:46:25.609375,-46.74
17:46:25.625000,-53.56
17:46:25.640625,-59.69
17:46:25.656250,-65.26
17:46:25.671875,-70.81
17:46:25.687500,-77.17
17:46:25.703125,-85.23
17:46:25.718750,-95.45
17:46:25.734375,-107.45
17:46:25.750000,-119.72
17:46:25.765625,-129.83
17:46:25.781250,-134.95
17:46:25.796875,-132.88
17:46:25.812500,-122.85
17:46:25.828125,-105.97
17:46:25.843750,-84.94
17:46:25.859375,-63.21
17:46:25.875000,-43.93
17:46:25.890625,-29.07
17:46:25.906250,-19.14
17:46:25.921875,-13.39
17:46:25.937500,-10.46
17:46:25.953125,-8.96
17:46:25.968750,-7.87
17:46:25.984375,-6.66
17:46:26,-5.10
17:46:26.015625,-3.14
17:46:26.031250,-0.74
17:46:26.046875,2.26
17:46:26.062500,5.92
17:46:26.078125,10.24
17:46:26.093750,15.10
17:46:26.109375,20.36
17:46:26.125000,25.94
17:46:26.140625,31.94
17:46:26.156250,38.49
17:46:26.171875,45.63
17:46:26.187500,53.12
17:46:26.203125,60.33
17:46:26.218750,66.50
17:46:26.234375,70.93
17:46:26.250000,73.32
17:46:26.265625,73.84
17:46:26.281250,73.00
17:46:26.296875,71.43
17:46:26.312500,69.52
17:46:26.328125,67.39
17:46:26.343750,64.92
17:46:26.359375,61.96
17:46:26.375000,58.47
17:46:26.390625,54.63
17:46:26.406250,50.73
17:46:26.421875,47.01
17:46:26.437500,43.55
17:46:26.453125,40.18
17:46:26.468750,36.61
17:46:26.484375,32.59
17:46:26.500000,28.04
17:46:26.515625,23.12
17:46:26.531250,18.13
17:46:26.546875,13.32
17:46:26.562500,8.75
17:46:26.578125,4.19
17:46:26.593750,-0.73
17:46:26.609375,-6.36
17:46:26.625000,-12.84
17:46:26.640625,-19.98
17:46:26.656250,-27.38
17:46:26.671875,-34.55
17:46:26.687500,-41.14
17:46:26.703125,-47.02
17:46:26.718750,-52.28
17:46:26.734375,-57.18
17:46:26.750000,-62.09
17:46:26.765625,-67.50
17:46:26.781250,-73.96
17:46:26.796875,-81.84
17:46:26.812500,-91.02
17:46:26.828125,-100.51
17:46:26.843750,-108.28
17:46:26.859375,-111.72
17:46:26.875000,-108.39
17:46:26.890625,-97.05
17:46:26.906250,-78.33
17:46:26.921875,-54.65
17:46:26.937500,-29.50
17:46:26.953125,-6.29
17:46:26.968750,12.69
17:46:26.984375,26.65
17:46:27,36.11
17:46:27.015625,42.30
17:46:27.031250,46.53
17:46:27.046875,49.85
17:46:27.062500,52.90
17:46:27.078125,56.05
17:46:27.093750,59.49
17:46:27.109375,63.23
17:46:27.125000,67.16
17:46:27.140625,71.06
17:46:27.156250,74.69
17:46:27.171875,77.93
17:46:27.187500,80.79
17:46:27.203125,83.43
17:46:27.218750,86.06
17:46:27.234375,88.83
17:46:27.250000,91.79
17:46:27.265625,94.85
17:46:27.281250,97.79
17:46:27.296875,100.29
17:46:27.312500,101.95
17:46:27.328125,102.37
17:46:27.343750,101.38
17:46:27.359375,99.08
17:46:27.375000,95.90
17:46:27.390625,92.48
17:46:27.406250,89.42
17:46:27.421875,87.02
17:46:27.437500,85.09
17:46:27.453125,83.11
17:46:27.468750,80.44
17:46:27.484375,76.72
17:46:27.500000,72.03
17:46:27.515625,66.90
17:46:27.531250,62.01
17:46:27.546875,57.84
17:46:27.562500,54.45
17:46:27.578125,51.46
17:46:27.593750,48.24
17:46:27.609375,44.25
17:46:27.625000,39.26
17:46:27.640625,33.45
17:46:27.656250,27.25
17:46:27.671875,21.13
17:46:27.687500,15.31
17:46:27.703125,9.71
17:46:27.718750,3.96
17:46:27.734375,-2.46
17:46:27.750000,-9.97
17:46:27.765625,-18.72
17:46:27.781250,-28.50
17:46:27.796875,-38.72
17:46:27.812500,-48.63
17:46:27.828125,-57.61
17:46:27.843750,-65.43
17:46:27.859375,-72.47
17:46:27.875000,-79.60
17:46:27.890625,-87.95
17:46:27.906250,-98.58
17:46:27.921875,-112.10
17:46:27.937500,-128.39
17:46:27.953125,-146.44
17:46:27.968750,-164.31
17:46:27.984375,-179.34
17:46:28,-188.65
17:46:28.015625,-189.90
17:46:28.031250,-182.07
17:46:28.046875,-165.82
17:46:28.062500,-143.53
17:46:28.078125,-118.54
17:46:28.093750,-94.12
17:46:28.109375,-72.59
17:46:28.125000,-54.81
17:46:28.140625,-40.34
17:46:28.156250,-28.01
17:46:28.171875,-16.46
17:46:28.187500,-4.67
17:46:28.203125,8.01
17:46:28.218750,21.98
17:46:28.234375,37.50
17:46:28.250000,54.69
17:46:28.265625,73.41
17:46:28.281250,93.04
17:46:28.296875,112.46
17:46:28.312500,130.22
17:46:28.328125,144.99
17:46:28.343750,156.08
17:46:28.359375,163.72
17:46:28.375000,168.92
17:46:28.390625,172.95
17:46:28.406250,176.62
17:46:28.421875,179.93
17:46:28.437500,182.00
17:46:28.453125,181.63
17:46:28.468750,177.84
17:46:28.484375,170.42
17:46:28.500000,159.89
17:46:28.515625,147.28
17:46:28.531250,133.70
17:46:28.546875,119.97
17:46:28.562500,106.58
17:46:28.578125,93.77
17:46:28.593750,81.70
17:46:28.609375,70.58
17:46:28.625000,60.63
17:46:28.640625,51.97
17:46:28.656250,44.53
17:46:28.671875,37.98
17:46:28.687500,31.76
17:46:28.703125,25.33
17:46:28.718750,18.31
17:46:28.734375,10.68
17:46:28.750000,2.87
17:46:28.765625,-4.53
17:46:28.781250,-11.02
17:46:28.796875,-16.44
17:46:28.812500,-21.18
17:46:28.828125,-25.86
17:46:28.843750,-31.09
17:46:28.859375,-37.12
17:46:28.875000,-43.73
17:46:28.890625,-50.38
17:46:28.906250,-56.49
17:46:28.921875,-61.77
17:46:28.937500,-66.34
17:46:28.953125,-70.63
17:46:28.968750,-75.18
17:46:28.984375,-80.52
17:46:29,-86.92
17:46:29.015625,-94.37
17:46:29.031250,-102.40
17:46:29.046875,-110.00
17:46:29.062500,-115.65
17:46:29.078125,-117.56
17:46:29.093750,-114.16
17:46:29.109375,-104.68
17:46:29.125000,-89.55
17:46:29.140625,-70.43
17:46:29.156250,-49.85
17:46:29.171875,-30.44
17:46:29.187500,-14.32
17:46:29.203125,-2.56
17:46:29.218750,4.87
17:46:29.234375,8.89
17:46:29.250000,10.81
17:46:29.265625,11.82
17:46:29.281250,12.76
17:46:29.296875,13.94
17:46:29.312500,15.25
17:46:29.328125,16.37
17:46:29.343750,17.05
17:46:29.359375,17.22
17:46:29.375000,17.01
17:46:29.390625,16.71
17:46:29.406250,16.63
17:46:29.421875,17.07
17:46:29.437500,18.24
17:46:29.453125,20.21
17:46:29.468750,22.86
17:46:29.484375,25.90
17:46:29.500000,28.87
17:46:29.515625,31.28
17:46:29.531250,32.72
17:46:29.546875,32.98
17:46:29.562500,32.04
17:46:29.578125,30.10
17:46:29.593750,27.43
17:46:29.609375,24.34
17:46:29.625000,21.07
17:46:29.640625,17.86
17:46:29.656250,14.82
17:46:29.671875,12.06
17:46:29.687500,9.57
17:46:29.703125,7.31
17:46:29.718750,5.19
17:46:29.734375,3.06
17:46:29.750000,0.77
17:46:29.765625,-1.85
17:46:29.781250,-4.88
17:46:29.796875,-8.31
17:46:29.812500,-12.01
17:46:29.828125,-15.76
17:46:29.843750,-19.25
17:46:29.859375,-22.22
17:46:29.875000,-24.50
17:46:29.890625,-26.06
17:46:29.906250,-27.09
17:46:29.921875,-27.94
17:46:29.937500,-29.10
17:46:29.953125,-30.96
17:46:29.968750,-33.74
17:46:29.984375,-37.29
17:46:30,-41.14
17:46:30.015625,-44.67
17:46:30.031250,-47.38
17:46:30.046875,-49.07
17:46:30.062500,-49.99
17:46:30.078125,-50.74
17:46:30.093750,-52.01
17:46:30.109375,-54.34
17:46:30.125000,-57.74
17:46:30.140625,-61.49
17:46:30.156250,-64.25
17:46:30.171875,-64.31
17:46:30.187500,-60.20
17:46:30.203125,-51.20
17:46:30.218750,-37.74
17:46:30.234375,-21.29
17:46:30.250000,-3.96
17:46:30.265625,12.12
17:46:30.281250,25.38
17:46:30.296875,35.09
17:46:30.312500,41.30
17:46:30.328125,44.55
17:46:30.343750,45.57
17:46:30.359375,45.03
17:46:30.375000,43.51
17:46:30.390625,41.53
17:46:30.406250,39.55
17:46:30.421875,38.01
17:46:30.437500,37.17
17:46:30.453125,37.11
17:46:30.468750,37.68
17:46:30.484375,38.56
17:46:30.500000,39.46
17:46:30.515625,40.18
17:46:30.531250,40.70
17:46:30.546875,41.14
17:46:30.562500,41.60
17:46:30.578125,42.05
17:46:30.593750,42.34
17:46:30.609375,42.21
17:46:30.625000,41.43
17:46:30.640625,39.87
17:46:30.656250,37.54
17:46:30.671875,34.56
17:46:30.687500,31.08
17:46:30.703125,27.32
17:46:30.718750,23.49
17:46:30.734375,19.81
17:46:30.750000,16.42
17:46:30.765625,13.39
17:46:30.781250,10.65
17:46:30.796875,8.07
17:46:30.812500,5.50
17:46:30.828125,2.88
17:46:30.843750,0.28
17:46:30.859375,-2.15
17:46:30.875000,-4.27
17:46:30.890625,-6.06
17:46:30.906250,-7.63
17:46:30.921875,-9.22
17:46:30.937500,-11.13
17:46:30.953125,-13.60
17:46:30.968750,-16.71
17:46:30.984375,-20.34
17:46:31,-24.19
17:46:31.015625,-27.86
17:46:31.031250,-31.04
17:46:31.046875,-33.63
17:46:31.062500,-35.91
17:46:31.078125,-38.46
17:46:31.093750,-41.98
17:46:31.109375,-46.96
17:46:31.125000,-53.38
17:46:31.140625,-60.49
17:46:31.156250,-66.84
17:46:31.171875,-70.69
17:46:31.187500,-70.49
17:46:31.203125,-65.42
17:46:31.218750,-55.70
17:46:31.234375,-42.55
17:46:31.250000,-27.85
17:46:31.265625,-13.59
17:46:31.281250,-1.35
17:46:31.296875,8.02
17:46:31.312500,14.40
17:46:31.328125,18.24
17:46:31.343750,20.25
17:46:31.359375,21.06
17:46:31.375000,21.17
17:46:31.390625,20.85
17:46:31.406250,20.32
17:46:31.421875,19.75
17:46:31.437500,19.35
17:46:31.453125,19.34
17:46:31.468750,19.86
17:46:31.484375,20.96
17:46:31.500000,22.50
17:46:31.515625,24.29
17:46:31.531250,26.08
17:46:31.546875,27.74
17:46:31.562500,29.21
17:46:31.578125,30.48
17:46:31.593750,31.49
17:46:31.609375,32.06
17:46:31.625000,31.94
17:46:31.640625,30.85
17:46:31.656250,28.68
17:46:31.671875,25.54
17:46:31.687500,21.75
17:46:31.703125,17.76
17:46:31.718750,14.00
17:46:31.734375,10.74
17:46:31.750000,8.04
17:46:31.765625,5.80
17:46:31.781250,3.84
17:46:31.796875,1.97
17:46:31.812500,0.10
17:46:31.828125,-1.69
17:46:31.843750,-3.19
17:46:31.859375,-4.18
17:46:31.875000,-4.52
17:46:31.890625,-4.33
17:46:31.906250,-4.01
17:46:31.921875,-4.12
17:46:31.937500,-5.17
17:46:31.953125,-7.43
17:46:31.968750,-10.78
17:46:31.984375,-14.76
17:46:32,-18.78
17:46:32.015625,-22.32
17:46:32.031250,-25.11
17:46:32.046875,-27.21
17:46:32.062500,-29.04
17:46:32.078125,-31.21
17:46:32.093750,-34.41
17:46:32.109375,-39.20
17:46:32.125000,-45.70
17:46:32.140625,-53.34
17:46:32.156250,-60.78
17:46:32.171875,-66.04
17:46:32.187500,-67.08
17:46:32.203125,-62.51
17:46:32.218750,-52.16
17:46:32.234375,-37.34
17:46:32.250000,-20.46
17:46:32.265625,-4.21
17:46:32.281250,9.29
17:46:32.296875,19.10
17:46:32.312500,25.49
17:46:32.328125,29.46
17:46:32.343750,32.12
17:46:32.359375,34.21
17:46:32.375000,35.93
17:46:32.390625,37.15
17:46:32.406250,37.74
17:46:32.421875,37.80
17:46:32.437500,37.63
17:46:32.453125,37.56
17:46:32.468750,37.76
17:46:32.484375,38.15
17:46:32.500000,38.45
17:46:32.515625,38.43
17:46:32.531250,38.08
17:46:32.546875,37.66
17:46:32.562500,37.54
17:46:32.578125,38.01
17:46:32.593750,39.06
17:46:32.609375,40.30
17:46:32.625000,41.18
17:46:32.640625,41.12
17:46:32.656250,39.79
17:46:32.671875,37.19
17:46:32.687500,33.61
17:46:32.703125,29.47
17:46:32.718750,25.17
17:46:32.734375,20.97
17:46:32.750000,17.01
17:46:32.765625,13.29
17:46:32.781250,9.83
17:46:32.796875,6.67
17:46:32.812500,3.86
17:46:32.828125,1.46
17:46:32.843750,-0.54
17:46:32.859375,-2.24
17:46:32.875000,-3.76
17:46:32.890625,-5.22
17:46:32.906250,-6.65
17:46:32.921875,-8.00
17:46:32.937500,-9.20
17:46:32.953125,-10.31
17:46:32.968750,-11.53
17:46:32.984375,-13.19
17:46:33,-15.57
17:46:33.015625,-18.76
17:46:33.031250,-22.56
17:46:33.046875,-26.55
17:46:33.062500,-30.26
17:46:33.078125,-33.41
17:46:33.093750,-36.02
17:46:33.109375,-38.39
17:46:33.125000,-41.00
17:46:33.140625,-44.33
17:46:33.156250,-48.69
17:46:33.171875,-53.96
17:46:33.187500,-59.49
17:46:33.203125,-64.08
17:46:33.218750,-66.19
17:46:33.234375,-64.41
17:46:33.250000,-57.95
17:46:33.265625,-47.11
17:46:33.281250,-33.34
17:46:33.296875,-18.79
17:46:33.312500,-5.76
17:46:33.328125,4.04
17:46:33.343750,9.90
17:46:33.359375,12.10
17:46:33.375000,11.62
17:46:33.390625,9.73
17:46:33.406250,7.47
17:46:33.421875,5.52
17:46:33.437500,4.11
17:46:33.453125,3.20
17:46:33.468750,2.66
17:46:33.484375,2.45
17:46:33.500000,2.67
17:46:33.515625,3.49
17:46:33.531250,4.97
17:46:33.546875,6.98
17:46:33.562500,9.19
17:46:33.578125,11.16
17:46:33.593750,12.59
17:46:33.609375,13.39
17:46:33.625000,13.69
17:46:33.640625,13.71
17:46:33.656250,13.56
17:46:33.671875,13.21
17:46:33.687500,12.45
17:46:33.703125,11.09
17:46:33.718750,9.11
17:46:33.734375,6.77
17:46:33.750000,4.53
17:46:33.765625,2.93
17:46:33.781250,2.39
17:46:33.796875,3.07
17:46:33.812500,4.88
17:46:33.828125,7.54
17:46:33.843750,10.75
17:46:33.859375,14.18
17:46:33.875000,17.60
17:46:33.890625,20.83
17:46:33.906250,23.74
17:46:33.921875,26.37
17:46:33.937500,28.81
17:46:33.953125,31.23
17:46:33.968750,33.74
17:46:33.984375,36.31
17:46:34,38.73
17:46:34.015625,40.66
17:46:34.031250,41.74
17:46:34.046875,41.68
17:46:34.062500,40.38
17:46:34.078125,37.86
17:46:34.093750,34.28
17:46:34.109375,29.75
17:46:34.125000,24.40
17:46:34.140625,18.20
17:46:34.156250,11.00
17:46:34.171875,2.59
17:46:34.187500,-7.28
17:46:34.203125,-18.75
17:46:34.218750,-31.72
17:46:34.234375,-45.66
17:46:34.250000,-59.51
17:46:34.265625,-71.70
17:46:34.281250,-80.35
17:46:34.296875,-83.78
17:46:34.312500,-81.04
17:46:34.328125,-72.43
17:46:34.343750,-59.61
17:46:34.359375,-45.16
17:46:34.375000,-31.84
17:46:34.390625,-21.68
17:46:34.406250,-15.49
17:46:34.421875,-12.77
17:46:34.437500,-12.27
17:46:34.453125,-12.59
17:46:34.468750,-12.75
17:46:34.484375,-12.36
17:46:34.500000,-11.45
17:46:34.515625,-10.17
17:46:34.531250,-8.57
17:46:34.546875,-6.59
17:46:34.562500,-4.12
17:46:34.578125,-1.16
17:46:34.593750,2.12
17:46:34.609375,5.43
17:46:34.625000,8.50
17:46:34.640625,11.22
17:46:34.656250,13.65
17:46:34.671875,15.91
17:46:34.687500,18.10
17:46:34.703125,20.09
17:46:34.718750,21.62
17:46:34.734375,22.34
17:46:34.750000,22.02
17:46:34.765625,20.67
17:46:34.781250,18.56
17:46:34.796875,16.10
17:46:34.812500,13.66
17:46:34.828125,11.43
17:46:34.843750,9.39
17:46:34.859375,7.36
17:46:34.875000,5.14
17:46:34.890625,2.66
17:46:34.906250,-0.06
17:46:34.921875,-2.87
17:46:34.937500,-5.61
17:46:34.953125,-8.19
17:46:34.968750,-10.63
17:46:34.984375,-13.03
17:46:35,-15.52
17:46:35.015625,-18.18
17:46:35.031250,-21.01
17:46:35.046875,-23.96
17:46:35.062500,-26.98
17:46:35.078125,-30.07
17:46:35.093750,-33.39
17:46:35.109375,-37.16
17:46:35.125000,-41.59
17:46:35.140625,-46.70
17:46:35.156250,-52.31
17:46:35.171875,-57.99
17:46:35.187500,-63.25
17:46:35.203125,-67.73
17:46:35.218750,-71.35
17:46:35.234375,-74.38
17:46:35.250000,-77.32
17:46:35.265625,-80.75
17:46:35.281250,-85.09
17:46:35.296875,-90.40
17:46:35.312500,-96.27
17:46:35.328125,-101.72
17:46:35.343750,-105.30
17:46:35.359375,-105.42
17:46:35.375000,-100.78
17:46:35.390625,-90.87
17:46:35.406250,-76.22
17:46:35.421875,-58.43
17:46:35.437500,-39.72
17:46:35.453125,-22.32
17:46:35.468750,-7.88
17:46:35.484375,2.89
17:46:35.500000,10.20
17:46:35.515625,14.84
17:46:35.531250,17.79
17:46:35.546875,19.87
17:46:35.562500,21.58
17:46:35.578125,23.15
17:46:35.593750,24.64
17:46:35.609375,26.14
17:46:35.625000,27.78
17:46:35.640625,29.77
17:46:35.656250,32.21
17:46:35.671875,35.07
17:46:35.687500,38.10
17:46:35.703125,40.97
17:46:35.718750,43.39
17:46:35.734375,45.21
17:46:35.750000,46.54
17:46:35.765625,47.58
17:46:35.781250,48.50
17:46:35.796875,49.36
17:46:35.812500,49.95
17:46:35.828125,49.99
17:46:35.843750,49.19
17:46:35.859375,47.44
17:46:35.875000,44.89
17:46:35.890625,41.94
17:46:35.906250,39.08
17:46:35.921875,36.68
17:46:35.937500,34.82
17:46:35.953125,33.24
17:46:35.968750,31.45
17:46:35.984375,28.95
17:46:36,25.49
17:46:36.015625,21.23
17:46:36.031250,16.61
17:46:36.046875,12.25
17:46:36.062500,8.55
17:46:36.078125,5.57
17:46:36.093750,2.83
17:46:36.109375,-0.58
17:46:36.125000,-5.73
17:46:36.140625,-13.47
17:46:36.156250,-23.95
17:46:36.171875,-36.42
17:46:36.187500,-49.17
17:46:36.203125,-59.89
17:46:36.218750,-66.35
17:46:36.234375,-67.06
17:46:36.250000,-61.73
17:46:36.265625,-51.40
17:46:36.281250,-38.06
17:46:36.296875,-24.15
17:46:36.312500,-11.99
17:46:36.328125,-3.22
17:46:36.343750,1.40
17:46:36.359375,2.19
17:46:36.375000,0.35
17:46:36.390625,-2.28
17:46:36.406250,-3.82
17:46:36.421875,-2.83
17:46:36.437500,1.18
17:46:36.453125,7.64
17:46:36.468750,15.13
17:46:36.484375,21.93
17:46:36.500000,26.57
17:46:36.515625,28.36
17:46:36.531250,27.46
17:46:36.546875,24.75
17:46:36.562500,21.35
17:46:36.578125,18.24
17:46:36.593750,15.90
17:46:36.609375,14.40
17:46:36.625000,13.56
17:46:36.640625,13.25
17:46:36.656250,13.54
17:46:36.671875,14.66
17:46:36.687500,16.72
17:46:36.703125,19.55
17:46:36.718750,22.70
17:46:36.734375,25.62
17:46:36.750000,27.93
17:46:36.765625,29.57
17:46:36.781250,30.71
17:46:36.796875,31.46
17:46:36.812500,31.70
17:46:36.828125,31.10
17:46:36.843750,29.31
17:46:36.859375,26.26
17:46:36.875000,22.21
17:46:36.890625,17.68
17:46:36.906250,13.17
17:46:36.921875,8.99
17:46:36.937500,5.25
17:46:36.953125,1.95
17:46:36.968750,-0.87
17:46:36.984375,-3.18
17:46:37,-5.01
17:46:37.015625,-6.63
17:46:37.031250,-8.41
17:46:37.046875,-10.69
17:46:37.062500,-13.55
17:46:37.078125,-16.72
17:46:37.093750,-19.65
17:46:37.109375,-21.78
17:46:37.125000,-22.78
17:46:37.140625,-22.77
17:46:37.156250,-22.30
17:46:37.171875,-22.12
17:46:37.187500,-22.92
17:46:37.203125,-25.03
17:46:37.218750,-28.37
17:46:37.234375,-32.52
17:46:37.250000,-36.98
17:46:37.265625,-41.39
17:46:37.281250,-45.60
17:46:37.296875,-49.67
17:46:37.312500,-53.67
17:46:37.328125,-57.59
17:46:37.343750,-61.29
17:46:37.359375,-64.47
17:46:37.375000,-66.63
17:46:37.390625,-67.04
17:46:37.406250,-64.70
17:46:37.421875,-58.60
17:46:37.437500,-48.08
17:46:37.453125,-33.34
17:46:37.468750,-15.69
17:46:37.484375,2.59
17:46:37.500000,18.93
17:46:37.515625,31.32
17:46:37.531250,39.06
17:46:37.546875,42.91
17:46:37.562500,44.64
17:46:37.578125,46.17
17:46:37.593750,48.79
17:46:37.609375,52.71
17:46:37.625000,57.23
17:46:37.640625,61.33
17:46:37.656250,64.29
17:46:37.671875,66.09
17:46:37.687500,67.28
17:46:37.703125,68.57
17:46:37.718750,70.35
17:46:37.734375,72.56
17:46:37.750000,74.78
17:46:37.765625,76.77
17:46:37.781250,78.73
17:46:37.796875,81.30
17:46:37.812500,85.27
17:46:37.828125,91.10
17:46:37.843750,98.62
17:46:37.859375,107.04
17:46:37.875000,115.21
17:46:37.890625,121.76
17:46:37.906250,125.34
17:46:37.921875,124.76
17:46:37.937500,119.19
17:46:37.953125,108.57
17:46:37.968750,93.85
17:46:37.984375,76.93
17:46:38,60.03
17:46:38.015625,44.87
17:46:38.031250,31.92
17:46:38.046875,20.48
17:46:38.062500,9.31
17:46:38.078125,-2.39
17:46:38.093750,-14.36
17:46:38.109375,-25.43
17:46:38.125000,-34.34
17:46:38.140625,-40.56
17:46:38.156250,-44.68
17:46:38.171875,-47.95
17:46:38.187500,-51.47
17:46:38.203125,-55.48
17:46:38.218750,-59.27
17:46:38.234375,-61.74
17:46:38.250000,-62.15
17:46:38.265625,-60.61
17:46:38.281250,-58.00
17:46:38.296875,-55.46
17:46:38.312500,-53.87
17:46:38.328125,-53.62
17:46:38.343750,-54.71
17:46:38.359375,-57.10
17:46:38.375000,-60.87
17:46:38.390625,-66.09
17:46:38.406250,-72.39
17:46:38.421875,-78.70
17:46:38.437500,-83.28
17:46:38.453125,-84.25
17:46:38.468750,-80.38
17:46:38.484375,-71.72
17:46:38.500000,-59.66
17:46:38.515625,-46.50
17:46:38.531250,-34.56
17:46:38.546875,-25.41
17:46:38.562500,-19.51
17:46:38.578125,-16.44
17:46:38.593750,-15.32
17:46:38.609375,-15.42
17:46:38.625000,-16.33
17:46:38.640625,-17.92
17:46:38.656250,-20.11
17:46:38.671875,-22.64
17:46:38.687500,-25.08
17:46:38.703125,-27.01
17:46:38.718750,-28.16
17:46:38.734375,-28.53
17:46:38.750000,-28.23
17:46:38.765625,-27.39
17:46:38.781250,-25.97
17:46:38.796875,-23.74
17:46:38.812500,-20.48
17:46:38.828125,-16.13
17:46:38.843750,-10.94
17:46:38.859375,-5.45
17:46:38.875000,-0.35
17:46:38.890625,3.79
17:46:38.906250,6.74
17:46:38.921875,8.68
17:46:38.937500,10.11
17:46:38.953125,11.60
17:46:38.968750,13.57
17:46:38.984375,16.08
17:46:39,18.91
17:46:39.015625,21.66
17:46:39.031250,23.96
17:46:39.046875,25.61
17:46:39.062500,26.62
17:46:39.078125,27.18
17:46:39.093750,27.56
17:46:39.109375,28.02
17:46:39.125000,28.74
17:46:39.140625,29.79
17:46:39.156250,31.03
17:46:39.171875,32.21
17:46:39.187500,32.95
17:46:39.203125,32.86
17:46:39.218750,31.67
17:46:39.234375,29.28
17:46:39.250000,25.77
17:46:39.265625,21.37
17:46:39.281250,16.28
17:46:39.296875,10.62
17:46:39.312500,4.37
17:46:39.328125,-2.65
17:46:39.343750,-10.62
17:46:39.359375,-19.61
17:46:39.375000,-29.33
17:46:39.390625,-38.96
17:46:39.406250,-47.14
17:46:39.421875,-52.28
17:46:39.437500,-53.00
17:46:39.453125,-48.75
17:46:39.468750,-40.12
17:46:39.484375,-28.74
17:46:39.500000,-16.81
17:46:39.515625,-6.37
17:46:39.531250,1.29
17:46:39.546875,5.92
17:46:39.562500,8.19
17:46:39.578125,9.15
17:46:39.593750,9.82
17:46:39.609375,10.85
17:46:39.625000,12.47
17:46:39.640625,14.60
17:46:39.656250,17.07
17:46:39.671875,19.68
17:46:39.687500,22.25
17:46:39.703125,24.66
17:46:39.718750,26.80
17:46:39.734375,28.62
17:46:39.750000,30.10
17:46:39.765625,31.29
17:46:39.781250,32.29
17:46:39.796875,33.17
17:46:39.812500,33.96
17:46:39.828125,34.57
17:46:39.843750,34.82
17:46:39.859375,34.49
17:46:39.875000,33.37
17:46:39.890625,31.32
17:46:39.906250,28.37
17:46:39.921875,24.70
17:46:39.937500,20.62
17:46:39.953125,16.49
17:46:39.968750,12.62
17:46:39.984375,9.25
17:46:40,6.46
17:46:40.015625,4.26
17:46:40.031250,2.56
17:46:40.046875,1.18
17:46:40.062500,-0.05
17:46:40.078125,-1.38
17:46:40.093750,-3.01
17:46:40.109375,-5.07
17:46:40.125000,-7.59
17:46:40.140625,-10.41
17:46:40.156250,-13.25
17:46:40.171875,-15.70
17:46:40.187500,-17.41
17:46:40.203125,-18.18
17:46:40.218750,-17.98
17:46:40.234375,-17.03
17:46:40.250000,-15.63
17:46:40.265625,-14.07
17:46:40.281250,-12.57
17:46:40.296875,-11.19
17:46:40.312500,-9.98
17:46:40.328125,-9.03
17:46:40.343750,-8.63
17:46:40.359375,-9.29
17:46:40.375000,-11.62
17:46:40.390625,-16.10
17:46:40.406250,-22.73
17:46:40.421875,-30.79
17:46:40.437500,-38.78
17:46:40.453125,-44.69
17:46:40.468750,-46.49
17:46:40.484375,-42.80
17:46:40.500000,-33.33
17:46:40.515625,-19.09
17:46:40.531250,-2.02
17:46:40.546875,15.49
17:46:40.562500,31.34
17:46:40.578125,44.09
17:46:40.593750,53.19
17:46:40.609375,58.79
17:46:40.625000,61.53
17:46:40.640625,62.17
17:46:40.656250,61.42
17:46:40.671875,59.79
17:46:40.687500,57.49
17:46:40.703125,54.49
17:46:40.718750,50.64
17:46:40.734375,45.78
17:46:40.750000,39.95
17:46:40.765625,33.37
17:46:40.781250,26.44
17:46:40.796875,19.62
17:46:40.812500,13.29
17:46:40.828125,7.69
17:46:40.843750,2.90
17:46:40.859375,-1.13
17:46:40.875000,-4.54
17:46:40.890625,-7.51
17:46:40.906250,-10.23
17:46:40.921875,-12.89
17:46:40.937500,-15.64
17:46:40.953125,-18.49
17:46:40.968750,-21.37
17:46:40.984375,-24.11
17:46:41,-26.48
17:46:41.015625,-28.30
17:46:41.031250,-29.48
17:46:41.046875,-30.05
17:46:41.062500,-30.15
17:46:41.078125,-30.04
17:46:41.093750,-29.97
17:46:41.109375,-30.17
17:46:41.125000,-30.69
17:46:41.140625,-31.43
17:46:41.156250,-32.15
17:46:41.171875,-32.63
17:46:41.187500,-32.74
17:46:41.203125,-32.58
17:46:41.218750,-32.37
17:46:41.234375,-32.41
17:46:41.250000,-32.87
17:46:41.265625,-33.69
17:46:41.281250,-34.64
17:46:41.296875,-35.39
17:46:41.312500,-35.76
17:46:41.328125,-35.83
17:46:41.343750,-35.94
17:46:41.359375,-36.52
17:46:41.375000,-37.91
17:46:41.390625,-40.09
17:46:41.406250,-42.73
17:46:41.421875,-45.26
17:46:41.437500,-47.18
17:46:41.453125,-48.27
17:46:41.468750,-48.71
17:46:41.484375,-49.06
17:46:41.500000,-50.07
17:46:41.515625,-52.41
17:46:41.531250,-56.41
17:46:41.546875,-61.81
17:46:41.562500,-67.71
17:46:41.578125,-72.61
17:46:41.593750,-74.72
17:46:41.609375,-72.52
17:46:41.625000,-65.22
17:46:41.640625,-53.13
17:46:41.656250,-37.61
17:46:41.671875,-20.74
17:46:41.687500,-4.73
17:46:41.703125,8.61
17:46:41.718750,18.32
17:46:41.734375,24.26
17:46:41.750000,27.09
17:46:41.765625,27.82
17:46:41.781250,27.52
17:46:41.796875,27.01
17:46:41.812500,26.73
17:46:41.828125,26.75
17:46:41.843750,26.98
17:46:41.859375,27.33
17:46:41.875000,27.82
17:46:41.890625,28.58
17:46:41.906250,29.72
17:46:41.921875,31.20
17:46:41.937500,32.82
17:46:41.953125,34.34
17:46:41.968750,35.62
17:46:41.984375,36.68
17:46:42,37.67
17:46:42.015625,38.71
17:46:42.031250,39.73
17:46:42.046875,40.42
17:46:42.062500,40.36
17:46:42.078125,39.25
17:46:42.093750,37.07
17:46:42.109375,34.15
17:46:42.125000,31.04
17:46:42.140625,28.30
17:46:42.156250,26.26
17:46:42.171875,24.95
17:46:42.187500,24.13
17:46:42.203125,23.48
17:46:42.218750,22.87
17:46:42.234375,22.43
17:46:42.250000,22.57
17:46:42.265625,23.76
17:46:42.281250,26.26
17:46:42.296875,29.97
17:46:42.312500,34.42
17:46:42.328125,38.97
17:46:42.343750,43.01
17:46:42.359375,46.19
17:46:42.375000,48.44
17:46:42.390625,49.84
17:46:42.406250,50.55
17:46:42.421875,50.56
17:46:42.437500,49.77
17:46:42.453125,48.02
17:46:42.468750,45.27
17:46:42.484375,41.55
17:46:42.500000,36.93
17:46:42.515625,31.46
17:46:42.531250,25.05
17:46:42.546875,17.55
17:46:42.562500,8.84
17:46:42.578125,-1.06
17:46:42.593750,-11.92
17:46:42.609375,-23.41
17:46:42.625000,-35.17
17:46:42.640625,-46.97
17:46:42.656250,-58.58
17:46:42.671875,-69.68
17:46:42.687500,-79.54
17:46:42.703125,-87.01
17:46:42.718750,-90.74
17:46:42.734375,-89.57
17:46:42.750000,-83.16
17:46:42.765625,-72.22
17:46:42.781250,-58.48
17:46:42.796875,-44.23
17:46:42.812500,-31.54
17:46:42.828125,-21.74
17:46:42.843750,-15.06
17:46:42.859375,-10.86
17:46:42.875000,-8.05
17:46:42.890625,-5.66
17:46:42.906250,-3.09
17:46:42.921875,-0.30
17:46:42.937500,2.53
17:46:42.953125,5.22
17:46:42.968750,7.83
17:46:42.984375,10.70
17:46:43,14.26
17:46:43.015625,18.79
17:46:43.031250,24.24
17:46:43.046875,30.18
17:46:43.062500,36.05
17:46:43.078125,41.32
17:46:43.093750,45.76
17:46:43.109375,49.40
17:46:43.125000,52.39
17:46:43.140625,54.73
17:46:43.156250,56.26
17:46:43.171875,56.58
17:46:43.187500,55.34
17:46:43.203125,52.49
17:46:43.218750,48.41
17:46:43.234375,43.80
17:46:43.250000,39.45
17:46:43.265625,35.87
17:46:43.281250,33.14
17:46:43.296875,30.86
17:46:43.312500,28.44
17:46:43.328125,25.37
17:46:43.343750,21.47
17:46:43.359375,16.92
17:46:43.375000,12.17
17:46:43.390625,7.67
17:46:43.406250,3.67
17:46:43.421875,0.17
17:46:43.437500,-3.09
17:46:43.453125,-6.44
17:46:43.468750,-10.10
17:46:43.484375,-14.17
17:46:43.500000,-18.54
17:46:43.515625,-23.00
17:46:43.531250,-27.34
17:46:43.546875,-31.47
17:46:43.562500,-35.38
17:46:43.578125,-39.18
17:46:43.593750,-43.08
17:46:43.609375,-47.33
17:46:43.625000,-52.17
17:46:43.640625,-57.75
17:46:43.656250,-63.89
17:46:43.671875,-70.02
17:46:43.687500,-75.06
17:46:43.703125,-77.62
17:46:43.718750,-76.37
17:46:43.734375,-70.57
17:46:43.750000,-60.38
17:46:43.765625,-47.00
17:46:43.781250,-32.27
17:46:43.796875,-18.25
17:46:43.812500,-6.52
17:46:43.828125,2.08
17:46:43.843750,7.59
17:46:43.859375,10.63
17:46:43.875000,12.08
17:46:43.890625,12.75
17:46:43.906250,13.19
17:46:43.921875,13.67
17:46:43.937500,14.25
17:46:43.953125,14.90
17:46:43.968750,15.67
17:46:43.984375,16.65
17:46:44,18.00
17:46:44.015625,19.82
17:46:44.031250,22.10
17:46:44.046875,24.63
17:46:44.062500,27.16
17:46:44.078125,29.39
17:46:44.093750,31.18
17:46:44.109375,32.50
17:46:44.125000,33.39
17:46:44.140625,33.87
17:46:44.156250,33.88
17:46:44.171875,33.25
17:46:44.187500,31.85
17:46:44.203125,29.64
17:46:44.218750,26.82
17:46:44.234375,23.72
17:46:44.250000,20.70
17:46:44.265625,17.97
17:46:44.281250,15.50
17:46:44.296875,12.99
17:46:44.312500,10.07
17:46:44.328125,6.47
17:46:44.343750,2.22
17:46:44.359375,-2.33
17:46:44.375000,-6.65
17:46:44.390625,-10.35
17:46:44.406250,-13.34
17:46:44.421875,-15.93
17:46:44.437500,-18.64
17:46:44.453125,-21.91
17:46:44.468750,-25.91
17:46:44.484375,-30.44
17:46:44.500000,-35.01
17:46:44.515625,-39.11
17:46:44.531250,-42.40
17:46:44.546875,-44.93
17:46:44.562500,-47.06
17:46:44.578125,-49.32
17:46:44.593750,-52.23
17:46:44.609375,-56.13
17:46:44.625000,-60.90
17:46:44.640625,-65.94
17:46:44.656250,-70.11
17:46:44.671875,-72.02
17:46:44.687500,-70.40
17:46:44.703125,-64.52
17:46:44.718750,-54.58
17:46:44.734375,-41.64
17:46:44.750000,-27.42
17:46:44.765625,-13.78
17:46:44.781250,-2.15
17:46:44.796875,6.69
17:46:44.812500,12.75
17:46:44.828125,16.55
17:46:44.843750,18.86
17:46:44.859375,20.38
17:46:44.875000,21.61
17:46:44.890625,22.82
17:46:44.906250,24.10
17:46:44.921875,25.42
17:46:44.937500,26.66
17:46:44.953125,27.76
17:46:44.968750,28.75
17:46:44.984375,29.79
17:46:45,31.08
17:46:45.015625,32.83
17:46:45.031250,35.09
17:46:45.046875,37.71
17:46:45.062500,40.38
17:46:45.078125,42.75
17:46:45.093750,44.56
17:46:45.109375,45.68
17:46:45.125000,46.11
17:46:45.140625,45.88
17:46:45.156250,45.03
17:46:45.171875,43.49
17:46:45.187500,41.21
17:46:45.203125,38.16
17:46:45.218750,34.48
17:46:45.234375,30.41
17:46:45.250000,26.28
17:46:45.265625,22.38
17:46:45.281250,18.83
17:46:45.296875,15.49
17:46:45.312500,12.03
17:46:45.328125,8.09
17:46:45.343750,3.51
17:46:45.359375,-1.51
17:46:45.375000,-6.50
17:46:45.390625,-10.90
17:46:45.406250,-14.40
17:46:45.421875,-17.09
17:46:45.437500,-19.47
17:46:45.453125,-22.16
17:46:45.468750,-25.61
17:46:45.484375,-29.85
17:46:45.500000,-34.50
17:46:45.515625,-38.99
17:46:45.531250,-42.78
17:46:45.546875,-45.71
17:46:45.562500,-47.98
17:46:45.578125,-50.07
17:46:45.593750,-52.55
17:46:45.609375,-55.93
17:46:45.625000,-60.51
17:46:45.640625,-66.33
17:46:45.656250,-73.01
17:46:45.671875,-79.72
17:46:45.687500,-85.17
17:46:45.703125,-87.84
17:46:45.718750,-86.38
17:46:45.734375,-80.18
17:46:45.750000,-69.66
17:46:45.765625,-56.30
17:46:45.781250,-42.21
17:46:45.796875,-29.49
17:46:45.812500,-19.62
17:46:45.828125,-13.07
17:46:45.843750,-9.42
17:46:45.859375,-7.66
17:46:45.875000,-6.72
17:46:45.890625,-5.71
17:46:45.906250,-4.13
17:46:45.921875,-1.91
17:46:45.937500,0.84
17:46:45.953125,3.88
17:46:45.968750,7.03
17:46:45.984375,10.22
17:46:46,13.52
17:46:46.015625,16.98
17:46:46.031250,20.63
17:46:46.046875,24.32
17:46:46.062500,27.82
17:46:46.078125,30.96
17:46:46.093750,33.69
17:46:46.109375,36.13
17:46:46.125000,38.38
17:46:46.140625,40.41
17:46:46.156250,42.00
17:46:46.171875,42.75
17:46:46.187500,42.40
17:46:46.203125,40.95
17:46:46.218750,38.72
17:46:46.234375,36.29
17:46:46.250000,34.24
17:46:46.265625,32.92
17:46:46.281250,32.34
17:46:46.296875,32.17
17:46:46.312500,31.90
17:46:46.328125,31.08
17:46:46.343750,29.50
17:46:46.359375,27.29
17:46:46.375000,24.85
17:46:46.390625,22.68
17:46:46.406250,21.12
17:46:46.421875,20.13
17:46:46.437500,19.34
17:46:46.453125,18.15
17:46:46.468750,16.14
17:46:46.484375,13.25
17:46:46.500000,9.87
17:46:46.515625,6.58
17:46:46.531250,3.89
17:46:46.546875,1.87
17:46:46.562500,0.17
17:46:46.578125,-1.83
17:46:46.593750,-4.72
17:46:46.609375,-8.76
17:46:46.625000,-13.71
17:46:46.640625,-18.99
17:46:46.656250,-23.86
17:46:46.671875,-27.81
17:46:46.687500,-30.70
17:46:46.703125,-32.78
17:46:46.718750,-34.64
17:46:46.734375,-36.94
17:46:46.750000,-40.26
17:46:46.765625,-44.99
17:46:46.781250,-51.09
17:46:46.796875,-58.10
17:46:46.812500,-64.90
17:46:46.828125,-69.87
17:46:46.843750,-71.11
17:46:46.859375,-67.06
17:46:46.875000,-57.08
17:46:46.890625,-41.89
17:46:46.906250,-23.49
17:46:46.921875,-4.71
17:46:46.937500,11.76
17:46:46.953125,24.06
17:46:46.968750,31.67
17:46:46.984375,35.32
17:46:47,36.48
17:46:47.015625,36.66
17:46:47.031250,36.98
17:46:47.046875,37.87
17:46:47.062500,39.22
17:46:47.078125,40.68
17:46:47.093750,41.96
17:46:47.109375,43.03
17:46:47.125000,44.05
17:46:47.140625,45.28
17:46:47.156250,46.90
17:46:47.171875,48.85
17:46:47.187500,50.94
17:46:47.203125,52.94
17:46:47.218750,54.73
17:46:47.234375,56.34
17:46:47.250000,57.84
17:46:47.265625,59.20
17:46:47.281250,60.24
17:46:47.296875,60.59
17:46:47.312500,59.88
17:46:47.328125,57.89
17:46:47.343750,54.73
17:46:47.359375,50.75
17:46:47.375000,46.49
17:46:47.390625,42.39
17:46:47.406250,38.71
17:46:47.421875,35.40
17:46:47.437500,32.22
17:46:47.453125,28.95
17:46:47.468750,25.52
17:46:47.484375,22.08
17:46:47.500000,18.98
17:46:47.515625,16.51
17:46:47.531250,14.80
17:46:47.546875,13.71
17:46:47.562500,12.83
17:46:47.578125,11.77
17:46:47.593750,10.24
17:46:47.609375,8.26
17:46:47.625000,6.09
17:46:47.640625,4.09
17:46:47.656250,2.51
17:46:47.671875,1.35
17:46:47.687500,0.35
17:46:47.703125,-0.89
17:46:47.718750,-2.69
17:46:47.734375,-5.11
17:46:47.750000,-7.87
17:46:47.765625,-10.51
17:46:47.781250,-12.56
17:46:47.796875,-13.81
17:46:47.812500,-14.41
17:46:47.828125,-14.83
17:46:47.843750,-15.69
17:46:47.859375,-17.58
17:46:47.875000,-20.85
17:46:47.890625,-25.51
17:46:47.906250,-31.10
17:46:47.921875,-36.71
17:46:47.937500,-40.99
17:46:47.953125,-42.41
17:46:47.968750,-39.66
17:46:47.984375,-32.06
17:46:48,-19.99
17:46:48.015625,-4.80
17:46:48.031250,11.48
17:46:48.046875,26.62
17:46:48.062500,38.84
17:46:48.078125,47.11
17:46:48.093750,51.28
17:46:48.109375,51.85
17:46:48.125000,49.66
17:46:48.140625,45.59
17:46:48.156250,40.45
17:46:48.171875,34.81
17:46:48.187500,29.11
17:46:48.203125,23.71
17:46:48.218750,18.95
17:46:48.234375,15.09
17:46:48.250000,12.30
17:46:48.265625,10.59
17:46:48.281250,9.78
17:46:48.296875,9.55
17:46:48.312500,9.59
17:46:48.328125,9.66
17:46:48.343750,9.70
17:46:48.359375,9.69
17:46:48.375000,9.60
17:46:48.390625,9.20
17:46:48.406250,8.20
17:46:48.421875,6.28
17:46:48.437500,3.35
17:46:48.453125,-0.36
17:46:48.468750,-4.27
17:46:48.484375,-7.73
17:46:48.500000,-10.22
17:46:48.515625,-11.57
17:46:48.531250,-11.95
17:46:48.546875,-11.82
17:46:48.562500,-11.62
17:46:48.578125,-11.65
17:46:48.593750,-11.98
17:46:48.609375,-12.54
17:46:48.625000,-13.21
17:46:48.640625,-14.03
17:46:48.656250,-15.07
17:46:48.671875,-16.51
17:46:48.687500,-18.45
17:46:48.703125,-20.84
17:46:48.718750,-23.45
17:46:48.734375,-25.95
17:46:48.750000,-28.04
17:46:48.765625,-29.59
17:46:48.781250,-30.64
17:46:48.796875,-31.45
17:46:48.812500,-32.36
17:46:48.828125,-33.66
17:46:48.843750,-35.45
17:46:48.859375,-37.58
17:46:48.875000,-39.65
17:46:48.890625,-41.18
17:46:48.906250,-41.80
17:46:48.921875,-41.49
17:46:48.937500,-40.65
17:46:48.953125,-40.03
17:46:48.968750,-40.46
17:46:48.984375,-42.52
17:46:49,-46.26
17:46:49.015625,-51.03
17:46:49.031250,-55.60
17:46:49.046875,-58.52
17:46:49.062500,-58.44
17:46:49.078125,-54.57
17:46:49.093750,-46.92
17:46:49.109375,-36.32
17:46:49.125000,-24.23
17:46:49.140625,-12.34
17:46:49.156250,-2.15
17:46:49.171875,5.37
17:46:49.187500,10.01
17:46:49.203125,12.24
17:46:49.218750,12.98
17:46:49.234375,13.32
17:46:49.250000,14.16
17:46:49.265625,15.96
17:46:49.281250,18.79
17:46:49.296875,22.23
17:46:49.312500,25.72
17:46:49.328125,28.73
17:46:49.343750,30.96
17:46:49.359375,32.41
17:46:49.375000,33.29
17:46:49.390625,33.87
17:46:49.406250,34.29
17:46:49.421875,34.51
17:46:49.437500,34.36
17:46:49.453125,33.65
17:46:49.468750,32.27
17:46:49.484375,30.21
17:46:49.500000,27.55
17:46:49.515625,24.35
17:46:49.531250,20.68
17:46:49.546875,16.53
17:46:49.562500,11.96
17:46:49.578125,7.11
17:46:49.593750,2.27
17:46:49.609375,-2.19
17:46:49.625000,-5.90
17:46:49.640625,-8.59
17:46:49.656250,-10.16
17:46:49.671875,-10.76
17:46:49.687500,-10.73
17:46:49.703125,-10.42
17:46:49.718750,-10.12
17:46:49.734375,-9.88
17:46:49.750000,-9.57
17:46:49.765625,-8.97
17:46:49.781250,-7.90
17:46:49.796875,-6.44
17:46:49.812500,-4.88
17:46:49.828125,-3.60
17:46:49.843750,-2.86
17:46:49.859375,-2.65
17:46:49.875000,-2.72
17:46:49.890625,-2.74
17:46:49.906250,-2.53
17:46:49.921875,-2.19
17:46:49.937500,-2.07
17:46:49.953125,-2.54
17:46:49.968750,-3.87
17:46:49.984375,-6.09
17:46:50,-9.14
17:46:50.015625,-13.01
17:46:50.031250,-17.85
17:46:50.046875,-23.80
17:46:50.062500,-30.68
17:46:50.078125,-37.63
17:46:50.093750,-43.06
17:46:50.109375,-45.03
17:46:50.125000,-41.93
17:46:50.140625,-33.21
17:46:50.156250,-19.72
17:46:50.171875,-3.59
17:46:50.187500,12.47
17:46:50.203125,26.05
17:46:50.218750,35.63
17:46:50.234375,40.90
17:46:50.250000,42.45
17:46:50.265625,41.36
17:46:50.281250,38.70
17:46:50.296875,35.20
17:46:50.312500,31.23
17:46:50.328125,26.87
17:46:50.343750,22.11
17:46:50.359375,16.97
17:46:50.375000,11.60
17:46:50.390625,6.29
17:46:50.406250,1.38
17:46:50.421875,-2.87
17:46:50.437500,-6.32
17:46:50.453125,-9.02
17:46:50.468750,-11.10
17:46:50.484375,-12.76
17:46:50.500000,-14.26
17:46:50.515625,-15.80
17:46:50.531250,-17.57
17:46:50.546875,-19.66
17:46:50.562500,-21.90
17:46:50.578125,-23.81
17:46:50.593750,-24.68
17:46:50.609375,-23.78
17:46:50.625000,-20.68
17:46:50.640625,-15.49
17:46:50.656250,-8.95
17:46:50.671875,-2.23
17:46:50.687500,3.45
17:46:50.703125,7.21
17:46:50.718750,8.77
17:46:50.734375,8.40
17:46:50.750000,6.78
17:46:50.765625,4.67
17:46:50.781250,2.63
17:46:50.796875,0.86
17:46:50.812500,-0.79
17:46:50.828125,-2.66
17:46:50.843750,-5.12
17:46:50.859375,-8.30
17:46:50.875000,-12.10
17:46:50.890625,-16.20
17:46:50.906250,-20.17
17:46:50.921875,-23.74
17:46:50.937500,-26.89
17:46:50.953125,-29.88
17:46:50.968750,-33.25
17:46:50.984375,-37.60
17:46:51,-43.44
17:46:51.015625,-50.98
17:46:51.031250,-59.91
17:46:51.046875,-69.32
17:46:51.062500,-77.67
17:46:51.078125,-83.01
17:46:51.093750,-83.46
17:46:51.109375,-77.79
17:46:51.125000,-65.94
17:46:51.140625,-49.20
17:46:51.156250,-29.95
17:46:51.171875,-11.01
17:46:51.187500,5.17
17:46:51.203125,17.14
17:46:51.218750,24.69
17:46:51.234375,28.60
17:46:51.250000,30.14
17:46:51.265625,30.55
17:46:51.281250,30.70
17:46:51.296875,30.97
17:46:51.312500,31.38
17:46:51.328125,31.81
17:46:51.343750,32.18
17:46:51.359375,32.55
17:46:51.375000,33.03
17:46:51.390625,33.75
17:46:51.406250,34.75
17:46:51.421875,35.96
17:46:51.437500,37.25
17:46:51.453125,38.49
17:46:51.468750,39.64
17:46:51.484375,40.74
17:46:51.500000,41.86
17:46:51.515625,42.95
17:46:51.531250,43.89
17:46:51.546875,44.35
17:46:51.562500,44.04
17:46:51.578125,42.71
17:46:51.593750,40.32
17:46:51.609375,37.08
17:46:51.625000,33.34
17:46:51.640625,29.55
17:46:51.656250,26.07
17:46:51.671875,23.12
17:46:51.687500,20.72
17:46:51.703125,18.68
17:46:51.718750,16.74
17:46:51.734375,14.65
17:46:51.750000,12.26
17:46:51.765625,9.56
17:46:51.781250,6.68
17:46:51.796875,3.78
17:46:51.812500,1.00
17:46:51.828125,-1.67
17:46:51.843750,-4.34
17:46:51.859375,-7.21
17:46:51.875000,-10.47
17:46:51.890625,-14.21
17:46:51.906250,-18.39
17:46:51.921875,-22.83
17:46:51.937500,-27.29
17:46:51.953125,-31.51
17:46:51.968750,-35.35
17:46:51.984375,-38.79
17:46:52,-42.03
17:46:52.015625,-45.42
17:46:52.031250,-49.40
17:46:52.046875,-54.43
17:46:52.062500,-60.83
17:46:52.078125,-68.52
17:46:52.093750,-76.78
17:46:52.109375,-84.17
17:46:52.125000,-88.68
17:46:52.140625,-88.25
17:46:52.156250,-81.54
17:46:52.171875,-68.56
17:46:52.187500,-50.85
17:46:52.203125,-31.10
17:46:52.218750,-12.32
17:46:52.234375,3.07
17:46:52.250000,13.89
17:46:52.265625,20.28
17:46:52.281250,23.40
17:46:52.296875,24.74
17:46:52.312500,25.60
17:46:52.328125,26.76
17:46:52.343750,28.41
17:46:52.359375,30.38
17:46:52.375000,32.35
17:46:52.390625,34.10
17:46:52.406250,35.62
17:46:52.421875,37.05
17:46:52.437500,38.50
17:46:52.453125,40.03
17:46:52.468750,41.53
17:46:52.484375,42.86
17:46:52.500000,43.98
17:46:52.515625,45.03
17:46:52.531250,46.23
17:46:52.546875,47.67
17:46:52.562500,49.20
17:46:52.578125,50.37
17:46:52.593750,50.60
17:46:52.609375,49.47
17:46:52.625000,46.97
17:46:52.640625,43.46
17:46:52.656250,39.52
17:46:52.671875,35.66
17:46:52.687500,32.10
17:46:52.703125,28.74
17:46:52.718750,25.32
17:46:52.734375,21.66
17:46:52.750000,17.87
17:46:52.765625,14.28
17:46:52.781250,11.33
17:46:52.796875,9.29
17:46:52.812500,8.06
17:46:52.828125,7.20
17:46:52.843750,6.09
17:46:52.859375,4.24
17:46:52.875000,1.46
17:46:52.890625,-2.02
17:46:52.906250,-5.70
17:46:52.921875,-9.02
17:46:52.937500,-11.63
17:46:52.953125,-13.50
17:46:52.968750,-14.98
17:46:52.984375,-16.58
17:46:53,-18.85
17:46:53.015625,-22.08
17:46:53.031250,-26.20
17:46:53.046875,-30.81
17:46:53.062500,-35.38
17:46:53.078125,-39.47
17:46:53.093750,-42.99
17:46:53.109375,-46.23
17:46:53.125000,-49.78
17:46:53.140625,-54.38
17:46:53.156250,-60.62
17:46:53.171875,-68.72
17:46:53.187500,-78.30
17:46:53.203125,-88.23
17:46:53.218750,-96.69
17:46:53.234375,-101.43
17:46:53.250000,-100.40
17:46:53.265625,-92.39
17:46:53.281250,-77.60
17:46:53.296875,-57.76
17:46:53.312500,-35.74
17:46:53.328125,-14.66
17:46:53.343750,2.96
17:46:53.359375,15.88
17:46:53.375000,24.21
17:46:53.390625,29.06
17:46:53.406250,31.91
17:46:53.421875,33.96
17:46:53.437500,35.83
17:46:53.453125,37.58
17:46:53.468750,38.89
17:46:53.484375,39.48
17:46:53.500000,39.28
17:46:53.515625,38.56
17:46:53.531250,37.76
17:46:53.546875,37.28
17:46:53.562500,37.30
17:46:53.578125,37.76
17:46:53.593750,38.40
17:46:53.609375,39.01
17:46:53.625000,39.54
17:46:53.640625,40.10
17:46:53.656250,40.84
17:46:53.671875,41.72
17:46:53.687500,42.39
17:46:53.703125,42.25
17:46:53.718750,40.75
17:46:53.734375,37.67
17:46:53.750000,33.31
17:46:53.765625,28.44
17:46:53.781250,23.97
17:46:53.796875,20.47
17:46:53.812500,17.96
17:46:53.828125,15.87
17:46:53.843750,13.42
17:46:53.859375,10.12
17:46:53.875000,6.03
17:46:53.890625,1.80
17:46:53.906250,-1.71
17:46:53.921875,-3.88
17:46:53.937500,-4.72
17:46:53.953125,-4.85
17:46:53.968750,-5.20
17:46:53.984375,-6.54
17:46:54,-9.13
17:46:54.015625,-12.60
17:46:54.031250,-16.16
17:46:54.046875,-19.06
17:46:54.062500,-20.89
17:46:54.078125,-21.86
17:46:54.093750,-22.72
17:46:54.109375,-24.47
17:46:54.125000,-28.02
17:46:54.140625,-33.81
17:46:54.156250,-41.52
17:46:54.171875,-50.00
17:46:54.187500,-57.38
17:46:54.203125,-61.53
17:46:54.218750,-60.59
17:46:54.234375,-53.58
17:46:54.250000,-40.85
17:46:54.265625,-24.00
17:46:54.281250,-5.44
17:46:54.296875,12.29
17:46:54.312500,27.25
17:46:54.328125,38.40
17:46:54.343750,45.70
17:46:54.359375,49.75
17:46:54.375000,51.41
17:46:54.390625,51.49
17:46:54.406250,50.61
17:46:54.421875,49.22
17:46:54.437500,47.67
17:46:54.453125,46.21
17:46:54.468750,45.06
17:46:54.484375,44.34
17:46:54.500000,44.09
17:46:54.515625,44.28
17:46:54.531250,44.82
17:46:54.546875,45.62
17:46:54.562500,46.57
17:46:54.578125,47.55
17:46:54.593750,48.46
17:46:54.609375,49.23
17:46:54.625000,49.82
17:46:54.640625,50.18
17:46:54.656250,50.18
17:46:54.671875,49.57
17:46:54.687500,47.96
17:46:54.703125,45.01
17:46:54.718750,40.51
17:46:54.734375,34.64
17:46:54.750000,27.83
17:46:54.765625,20.73
17:46:54.781250,13.91
17:46:54.796875,7.64
17:46:54.812500,1.91
17:46:54.828125,-3.53
17:46:54.843750,-8.91
17:46:54.859375,-14.27
17:46:54.875000,-19.43
17:46:54.890625,-24.07
17:46:54.906250,-27.91
17:46:54.921875,-30.95
17:46:54.937500,-33.51
17:46:54.953125,-36.17
17:46:54.968750,-39.56
17:46:54.984375,-44.02
17:46:55,-49.36
17:46:55.015625,-54.88
17:46:55.031250,-59.55
17:46:55.046875,-62.53
17:46:55.062500,-63.60
17:46:55.078125,-63.31
17:46:55.093750,-62.94
17:46:55.109375,-64.02
17:46:55.125000,-67.82
17:46:55.140625,-74.90
17:46:55.156250,-84.81
17:46:55.171875,-96.05
17:46:55.187500,-106.38
17:46:55.203125,-113.30
17:46:55.218750,-114.79
17:46:55.234375,-109.95
17:46:55.250000,-99.40
17:46:55.265625,-85.23
17:46:55.281250,-70.35
17:46:55.296875,-57.69
17:46:55.312500,-49.36
17:46:55.328125,-46.13
17:46:55.343750,-47.45
17:46:55.359375,-51.83
17:46:55.375000,-57.39
17:46:55.390625,-62.48
17:46:55.406250,-66.11
17:46:55.421875,-68.07
17:46:55.437500,-68.85
17:46:55.453125,-69.27
17:46:55.468750,-70.03
17:46:55.484375,-71.33
17:46:55.500000,-72.74
17:46:55.515625,-73.37
17:46:55.531250,-72.14
17:46:55.546875,-68.17
17:46:55.562500,-61.01
17:46:55.578125,-50.78
17:46:55.593750,-38.03
17:46:55.609375,-23.70
17:46:55.625000,-8.91
17:46:55.640625,5.25
17:46:55.656250,17.83
17:46:55.671875,28.14
17:46:55.687500,35.82
17:46:55.703125,40.86
17:46:55.718750,43.67
17:46:55.734375,45.03
17:46:55.750000,46.08
17:46:55.765625,48.05
17:46:55.781250,51.95
17:46:55.796875,58.12
17:46:55.812500,66.07
17:46:55.828125,74.60
17:46:55.843750,82.27
17:46:55.859375,88.02
17:46:55.875000,91.58
17:46:55.890625,93.53
17:46:55.906250,94.88
17:46:55.921875,96.51
17:46:55.937500,98.72
17:46:55.953125,101.06
17:46:55.968750,102.69
17:46:55.984375,102.84
17:46:56,101.28
17:46:56.015625,98.51
17:46:56.031250,95.57
17:46:56.046875,93.53
17:46:56.062500,93.02
17:46:56.078125,93.88
17:46:56.093750,95.17
17:46:56.109375,95.54
17:46:56.125000,93.71
17:46:56.140625,89.03
17:46:56.156250,81.81
17:46:56.171875,73.40
17:46:56.187500,65.84
17:46:56.203125,61.38
17:46:56.218750,61.86
17:46:56.234375,68.13
17:46:56.250000,79.79
17:46:56.265625,95.25
17:46:56.281250,112.16
17:46:56.296875,128.00
17:46:56.312500,140.75
17:46:56.328125,149.25
17:46:56.343750,153.25
17:46:56.359375,153.19
17:46:56.375000,149.76
17:46:56.390625,143.75
17:46:56.406250,135.85
17:46:56.421875,126.78
17:46:56.437500,117.29
17:46:56.453125,108.09
17:46:56.468750,99.62
17:46:56.484375,91.82
17:46:56.500000,84.16
17:46:56.515625,75.82
17:46:56.531250,66.09
17:46:56.546875,54.71
17:46:56.562500,42.00
17:46:56.578125,28.73
17:46:56.593750,15.82
17:46:56.609375,3.97
17:46:56.625000,-6.53
17:46:56.640625,-15.86
17:46:56.656250,-24.46
17:46:56.671875,-32.77
17:46:56.687500,-40.97
17:46:56.703125,-48.82
17:46:56.718750,-55.77
17:46:56.734375,-61.19
17:46:56.750000,-64.72
17:46:56.765625,-66.53
17:46:56.781250,-67.23
17:46:56.796875,-67.64
17:46:56.812500,-68.45
17:46:56.828125,-69.97
17:46:56.843750,-72.18
17:46:56.859375,-74.88
17:46:56.875000,-77.91
17:46:56.890625,-81.22
17:46:56.906250,-84.71
17:46:56.921875,-88.08
17:46:56.937500,-90.75
17:46:56.953125,-91.97
17:46:56.968750,-91.15
17:46:56.984375,-88.16
17:46:57,-83.38
17:46:57.015625,-77.64
17:46:57.031250,-71.89
17:46:57.046875,-67.04
17:46:57.062500,-63.78
17:46:57.078125,-62.48
17:46:57.093750,-63.16
17:46:57.109375,-65.33
17:46:57.125000,-67.84
17:46:57.140625,-69.07
17:46:57.156250,-67.25
17:46:57.171875,-61.18
17:46:57.187500,-50.78
17:46:57.203125,-37.25
17:46:57.218750,-22.77
17:46:57.234375,-9.63
17:46:57.250000,0.49
17:46:57.265625,7.08
17:46:57.281250,10.65
17:46:57.296875,12.30
17:46:57.312500,13.04
17:46:57.328125,13.41
17:46:57.343750,13.40
17:46:57.359375,12.75
17:46:57.375000,11.28
17:46:57.390625,9.16
17:46:57.406250,6.90
17:46:57.421875,5.13
17:46:57.437500,4.37
17:46:57.453125,4.86
17:46:57.468750,6.47
17:46:57.484375,8.88
17:46:57.500000,11.71
17:46:57.515625,14.67
17:46:57.531250,17.63
17:46:57.546875,20.53
17:46:57.562500,23.29
17:46:57.578125,25.67
17:46:57.593750,27.33
17:46:57.609375,27.92
17:46:57.625000,27.24
17:46:57.640625,25.37
17:46:57.656250,22.68
17:46:57.671875,19.64
17:46:57.687500,16.62
17:46:57.703125,13.76
17:46:57.718750,10.91
17:46:57.734375,7.86
17:46:57.750000,4.47
17:46:57.765625,0.79
17:46:57.781250,-2.98
17:46:57.796875,-6.67
17:46:57.812500,-10.31
17:46:57.828125,-14.14
17:46:57.843750,-18.53
17:46:57.859375,-23.69
17:46:57.875000,-29.52
17:46:57.890625,-35.58
17:46:57.906250,-41.21
17:46:57.921875,-45.93
17:46:57.937500,-49.59
17:46:57.953125,-52.53
17:46:57.968750,-55.39
17:46:57.984375,-58.88
17:46:58,-63.43
17:46:58.015625,-69.02
17:46:58.031250,-75.20
17:46:58.046875,-81.14
17:46:58.062500,-85.85
17:46:58.078125,-88.25
17:46:58.093750,-87.35
17:46:58.109375,-82.46
17:46:58.125000,-73.38
17:46:58.140625,-60.71
17:46:58.156250,-45.86
17:46:58.171875,-30.84
17:46:58.187500,-17.71
17:46:58.203125,-7.99
17:46:58.218750,-2.16
17:46:58.234375,0.30
17:46:58.250000,0.53
17:46:58.265625,-0.33
17:46:58.281250,-1.56
17:46:58.296875,-3.02
17:46:58.312500,-4.98
17:46:58.328125,-7.64
17:46:58.343750,-10.98
17:46:58.359375,-14.63
17:46:58.375000,-18.09
17:46:58.390625,-20.97
17:46:58.406250,-23.11
17:46:58.421875,-24.56
17:46:58.437500,-25.49
17:46:58.453125,-26.02
17:46:58.468750,-26.25
17:46:58.484375,-26.33
17:46:58.500000,-26.50
17:46:58.515625,-27.06
17:46:58.531250,-28.26
17:46:58.546875,-30.12
17:46:58.562500,-32.36
17:46:58.578125,-34.42
17:46:58.593750,-35.73
17:46:58.609375,-35.95
17:46:58.625000,-35.11
17:46:58.640625,-33.61
17:46:58.656250,-32.01
17:46:58.671875,-30.78
17:46:58.687500,-30.10
17:46:58.703125,-29.81
17:46:58.718750,-29.54
17:46:58.734375,-28.87
17:46:58.750000,-27.51
17:46:58.765625,-25.43
17:46:58.781250,-22.79
17:46:58.796875,-19.96
17:46:58.812500,-17.38
17:46:58.828125,-15.38
17:46:58.843750,-14.10
17:46:58.859375,-13.33
17:46:58.875000,-12.63
17:46:58.890625,-11.51
17:46:58.906250,-9.71
17:46:58.921875,-7.49
17:46:58.937500,-5.63
17:46:58.953125,-5.22
17:46:58.968750,-7.24
17:46:58.984375,-11.99
17:46:59,-18.82
17:46:59.015625,-25.99
17:46:59.031250,-31.08
17:46:59.046875,-31.67
17:46:59.062500,-26.16
17:46:59.078125,-14.37
17:46:59.093750,2.25
17:46:59.109375,21.07
17:46:59.125000,39.08
17:46:59.140625,53.86
17:46:59.156250,64.22
17:46:59.171875,70.35
17:46:59.187500,73.42
17:46:59.203125,74.91
17:46:59.218750,75.92
17:46:59.234375,76.96
17:46:59.250000,77.99
17:46:59.265625,78.87
17:46:59.281250,79.62
17:46:59.296875,80.53
17:46:59.312500,81.90
17:46:59.328125,83.70
17:46:59.343750,85.42
17:46:59.359375,86.17
17:46:59.375000,85.20
17:46:59.390625,82.28
17:46:59.406250,77.96
17:46:59.421875,73.30
17:46:59.437500,69.28
17:46:59.453125,66.25
17:46:59.468750,63.74
17:46:59.484375,60.75
17:46:59.500000,56.31
17:46:59.515625,50.07
17:46:59.531250,42.53
17:46:59.546875,34.81
17:46:59.562500,28.14
17:46:59.578125,23.33
17:46:59.593750,20.44
17:46:59.609375,18.69
17:46:59.625000,16.79
17:46:59.640625,13.28
17:46:59.656250,7.05
17:46:59.671875,-2.38
17:46:59.687500,-14.70
17:46:59.703125,-28.84
17:46:59.718750,-43.46
17:46:59.734375,-57.28
17:46:59.750000,-69.59
17:46:59.765625,-80.34
17:46:59.781250,-90.02
17:46:59.796875,-99.21
17:46:59.812500,-108.25
17:46:59.828125,-117.00
17:46:59.843750,-124.96
17:46:59.859375,-131.56
17:46:59.875000,-136.54
17:46:59.890625,-140.12
17:46:59.906250,-142.96
17:46:59.921875,-145.95
17:46:59.937500,-149.88
17:46:59.953125,-155.16
17:46:59.968750,-161.60
17:46:59.984375,-168.18
17:47:00,-173.14
17:47:00.015625,-174.21
17:47:00.031250,-169.18
17:47:00.046875,-156.66
17:47:00.062500,-136.67
17:47:00.078125,-110.82
17:47:00.093750,-81.93
17:47:00.109375,-53.22
17:47:00.125000,-27.27
17:47:00.140625,-5.46
17:47:00.156250,12.19
17:47:00.171875,26.52
17:47:00.187500,38.60
17:47:00.203125,49.21
17:47:00.218750,58.60
17:47:00.234375,66.72
17:47:00.250000,73.54
17:47:00.265625,79.35
17:47:00.281250,84.74
17:47:00.296875,90.42
17:47:00.312500,96.88
17:47:00.328125,104.23
17:47:00.343750,112.17
17:47:00.359375,120.25
17:47:00.375000,128.13
17:47:00.390625,135.72
17:47:00.406250,143.15
17:47:00.421875,150.56
17:47:00.437500,157.86
17:47:00.453125,164.69
17:47:00.468750,170.51
17:47:00.484375,174.75
17:47:00.500000,177.02
17:47:00.515625,177.19
17:47:00.531250,175.29
17:47:00.546875,171.47
17:47:00.562500,165.92
17:47:00.578125,158.75
17:47:00.593750,149.99
17:47:00.609375,139.49
17:47:00.625000,126.92
17:47:00.640625,111.93
17:47:00.656250,94.39
17:47:00.671875,74.70
17:47:00.687500,53.79
17:47:00.703125,32.99
17:47:00.718750,13.51
17:47:00.734375,-3.88
17:47:00.750000,-19.13
17:47:00.765625,-32.64
17:47:00.781250,-44.94
17:47:00.796875,-56.26
17:47:00.812500,-66.41
17:47:00.828125,-74.91
17:47:00.843750,-81.36
17:47:00.859375,-85.79
17:47:00.875000,-88.73
17:47:00.890625,-91.15
17:47:00.906250,-94.18
17:47:00.921875,-98.73
17:47:00.937500,-105.16
17:47:00.953125,-112.92
17:47:00.968750,-120.54
17:47:00.984375,-125.74
17:47:01,-126.14
17:47:01.015625,-119.95
17:47:01.031250,-106.78
17:47:01.046875,-87.93
17:47:01.062500,-66.10
17:47:01.078125,-44.51
17:47:01.093750,-25.91
17:47:01.109375,-11.79
17:47:01.125000,-2.14
17:47:01.140625,4.14
17:47:01.156250,8.51
17:47:01.171875,12.15
17:47:01.187500,15.53
17:47:01.203125,18.53
17:47:01.218750,20.77
17:47:01.234375,22.01
17:47:01.250000,22.34
17:47:01.265625,22.17
17:47:01.281250,22.00
17:47:01.296875,22.12
17:47:01.312500,22.49
17:47:01.328125,22.89
17:47:01.343750,23.03
17:47:01.359375,22.85
17:47:01.375000,22.54
17:47:01.390625,22.41
17:47:01.406250,22.69
17:47:01.421875,23.29
17:47:01.437500,23.70
17:47:01.453125,23.25
17:47:01.468750,21.32
17:47:01.484375,17.71
17:47:01.500000,12.77
17:47:01.515625,7.27
17:47:01.531250,2.14
17:47:01.546875,-1.92
17:47:01.562500,-4.67
17:47:01.578125,-6.38
17:47:01.593750,-7.64
17:47:01.609375,-9.01
17:47:01.625000,-10.79
17:47:01.640625,-12.87
17:47:01.656250,-14.90
17:47:01.671875,-16.52
17:47:01.687500,-17.58
17:47:01.703125,-18.27
17:47:01.718750,-19.08
17:47:01.734375,-20.55
17:47:01.750000,-23.08
17:47:01.765625,-26.78
17:47:01.781250,-31.37
17:47:01.796875,-36.35
17:47:01.812500,-41.11
17:47:01.828125,-45.19
17:47:01.843750,-48.41
17:47:01.859375,-50.94
17:47:01.875000,-53.28
17:47:01.890625,-56.06
17:47:01.906250,-59.94
17:47:01.921875,-65.26
17:47:01.937500,-71.83
17:47:01.953125,-78.76
17:47:01.968750,-84.46
17:47:01.984375,-86.94
17:47:02,-84.39
17:47:02.015625,-75.76
17:47:02.031250,-61.33
17:47:02.046875,-42.77
17:47:02.062500,-22.68
17:47:02.078125,-3.88
17:47:02.093750,11.48
17:47:02.109375,22.42
17:47:02.125000,29.22
17:47:02.140625,33.04
17:47:02.156250,35.27
17:47:02.171875,36.99
17:47:02.187500,38.70
17:47:02.203125,40.31
17:47:02.218750,41.47
17:47:02.234375,41.91
17:47:02.250000,41.65
17:47:02.265625,41.01
17:47:02.281250,40.43
17:47:02.296875,40.21
17:47:02.312500,40.31
17:47:02.328125,40.43
17:47:02.343750,40.23
17:47:02.359375,39.52
17:47:02.375000,38.42
17:47:02.390625,37.23
17:47:02.406250,36.22
17:47:02.421875,35.38
17:47:02.437500,34.38
17:47:02.453125,32.66
17:47:02.468750,29.74
17:47:02.484375,25.41
17:47:02.500000,19.89
17:47:02.515625,13.73
17:47:02.531250,7.62
17:47:02.546875,2.16
17:47:02.562500,-2.31
17:47:02.578125,-5.80
17:47:02.593750,-8.57
17:47:02.609375,-10.98
17:47:02.625000,-13.32
17:47:02.640625,-15.66
17:47:02.656250,-17.83
17:47:02.671875,-19.58
17:47:02.687500,-20.69
17:47:02.703125,-21.09
17:47:02.718750,-20.99
17:47:02.734375,-20.71
17:47:02.750000,-20.59
17:47:02.765625,-20.82
17:47:02.781250,-21.37
17:47:02.796875,-22.03
17:47:02.812500,-22.47
17:47:02.828125,-22.41
17:47:02.843750,-21.71
17:47:02.859375,-20.44
17:47:02.875000,-18.90
17:47:02.890625,-17.52
17:47:02.906250,-16.83
17:47:02.921875,-17.35
17:47:02.937500,-19.45
17:47:02.953125,-23.02
17:47:02.968750,-27.29
17:47:02.984375,-30.67
17:47:03,-31.04
17:47:03.015625,-26.30
17:47:03.031250,-15.28
17:47:03.046875,1.73
17:47:03.062500,22.86
17:47:03.078125,45.22
17:47:03.093750,65.86
17:47:03.109375,82.60
17:47:03.125000,94.51
17:47:03.140625,101.71
17:47:03.156250,104.91
17:47:03.171875,104.97
17:47:03.187500,102.61
17:47:03.203125,98.54
17:47:03.218750,93.46
17:47:03.234375,88.16
17:47:03.250000,83.22
17:47:03.265625,78.90
17:47:03.281250,75.04
17:47:03.296875,71.18
17:47:03.312500,66.84
17:47:03.328125,61.78
17:47:03.343750,55.97
17:47:03.359375,49.61
17:47:03.375000,42.90
17:47:03.390625,35.91
17:47:03.406250,28.54
17:47:03.421875,20.61
17:47:03.437500,11.93
17:47:03.453125,2.43
17:47:03.468750,-7.83
17:47:03.484375,-18.60
17:47:03.500000,-29.47
17:47:03.515625,-39.82
17:47:03.531250,-48.89
17:47:03.546875,-55.83
17:47:03.562500,-59.96
17:47:03.578125,-60.91
17:47:03.593750,-58.84
17:47:03.609375,-54.40
17:47:03.625000,-48.61
17:47:03.640625,-42.47
17:47:03.656250,-36.80
17:47:03.671875,-32.02
17:47:03.687500,-28.16
17:47:03.703125,-25.09
17:47:03.718750,-22.71
17:47:03.734375,-21.02
17:47:03.750000,-20.17
17:47:03.765625,-20.28
17:47:03.781250,-21.36
17:47:03.796875,-23.22
17:47:03.812500,-25.51
17:47:03.828125,-27.79
17:47:03.843750,-29.71
17:47:03.859375,-31.09
17:47:03.875000,-32.00
17:47:03.890625,-32.72
17:47:03.906250,-33.77
17:47:03.921875,-35.69
17:47:03.937500,-38.94
17:47:03.953125,-43.67
17:47:03.968750,-49.46
17:47:03.984375,-55.25
17:47:04,-59.39
17:47:04.015625,-60.02
17:47:04.031250,-55.57
17:47:04.046875,-45.36
17:47:04.062500,-29.93
17:47:04.078125,-10.98
17:47:04.093750,9.16
17:47:04.109375,28.16
17:47:04.125000,44.44
17:47:04.140625,57.47
17:47:04.156250,67.66
17:47:04.171875,75.89
17:47:04.187500,83.00
17:47:04.203125,89.45
17:47:04.218750,95.18
17:47:04.234375,99.89
17:47:04.250000,103.30
17:47:04.265625,105.39
17:47:04.281250,106.47
17:47:04.296875,107.03
17:47:04.312500,107.64
17:47:04.328125,108.79
17:47:04.343750,110.82
17:47:04.359375,113.88
17:47:04.375000,117.76
17:47:04.390625,121.77
17:47:04.406250,124.72
17:47:04.421875,125.06
17:47:04.437500,121.35
17:47:04.453125,112.77
17:47:04.468750,99.52
17:47:04.484375,82.96
17:47:04.500000,65.21
17:47:04.515625,48.57
17:47:04.531250,34.73
17:47:04.546875,24.34
17:47:04.562500,16.99
17:47:04.578125,11.50
17:47:04.593750,6.50
17:47:04.609375,0.95
17:47:04.625000,-5.57
17:47:04.640625,-12.77
17:47:04.656250,-19.88
17:47:04.671875,-25.96
17:47:04.687500,-30.22
17:47:04.703125,-32.26
17:47:04.718750,-32.24
17:47:04.734375,-30.80
17:47:04.750000,-28.90
17:47:04.765625,-27.52
17:47:04.781250,-27.41
17:47:04.796875,-28.81
17:47:04.812500,-31.57
17:47:04.828125,-35.19
17:47:04.843750,-39.13
17:47:04.859375,-43.02
17:47:04.875000,-46.71
17:47:04.890625,-50.29
17:47:04.906250,-53.91
17:47:04.921875,-57.66
17:47:04.937500,-61.34
17:47:04.953125,-64.45
17:47:04.968750,-66.13
17:47:04.984375,-65.32
17:47:05,-61.12
17:47:05.015625,-53.11
17:47:05.031250,-41.72
17:47:05.046875,-28.30
17:47:05.062500,-14.80
17:47:05.078125,-3.23
17:47:05.093750,4.95
17:47:05.109375,9.27
17:47:05.125000,10.23
17:47:05.140625,8.98
17:47:05.156250,6.73
17:47:05.171875,4.39
17:47:05.187500,2.33
17:47:05.203125,0.50
17:47:05.218750,-1.31
17:47:05.234375,-3.26
17:47:05.250000,-5.38
17:47:05.265625,-7.55
17:47:05.281250,-9.60
17:47:05.296875,-11.40
17:47:05.312500,-12.77
17:47:05.328125,-13.51
17:47:05.343750,-13.31
17:47:05.359375,-11.82
17:47:05.375000,-8.85
17:47:05.390625,-4.47
17:47:05.406250,0.76
17:47:05.421875,5.94
17:47:05.437500,10.05
17:47:05.453125,12.29
17:47:05.468750,12.37
17:47:05.484375,10.62
17:47:05.500000,7.76
17:47:05.515625,4.65
17:47:05.531250,1.86
17:47:05.546875,-0.40
17:47:05.562500,-2.32
17:47:05.578125,-4.22
17:47:05.593750,-6.34
17:47:05.609375,-8.73
17:47:05.625000,-11.23
17:47:05.640625,-13.60
17:47:05.656250,-15.74
17:47:05.671875,-17.73
17:47:05.687500,-19.80
17:47:05.703125,-22.20
17:47:05.718750,-25.05
17:47:05.734375,-28.26
17:47:05.750000,-31.57
17:47:05.765625,-34.69
17:47:05.781250,-37.51
17:47:05.796875,-40.13
17:47:05.812500,-42.91
17:47:05.828125,-46.29
17:47:05.843750,-50.64
17:47:05.859375,-56.10
17:47:05.875000,-62.49
17:47:05.890625,-69.34
17:47:05.906250,-75.86
17:47:05.921875,-81.02
17:47:05.937500,-83.57
17:47:05.953125,-82.31
17:47:05.968750,-76.40
17:47:05.984375,-65.74
17:47:06,-51.26
17:47:06.015625,-34.73
17:47:06.031250,-18.42
17:47:06.046875,-4.43
17:47:06.062500,5.92
17:47:06.078125,12.24
17:47:06.093750,14.92
17:47:06.109375,14.78
17:47:06.125000,12.60
17:47:06.140625,8.97
17:47:06.156250,4.24
17:47:06.171875,-1.33
17:47:06.187500,-7.43
17:47:06.203125,-13.75
17:47:06.218750,-19.97
17:47:06.234375,-25.83
17:47:06.250000,-31.14
17:47:06.265625,-35.75
17:47:06.281250,-39.54
17:47:06.296875,-42.34
17:47:06.312500,-43.97
17:47:06.328125,-44.27
17:47:06.343750,-43.20
17:47:06.359375,-40.94
17:47:06.375000,-37.78
17:47:06.390625,-34.06
17:47:06.406250,-29.97
17:47:06.421875,-25.42
17:47:06.437500,-20.03
17:47:06.453125,-13.38
17:47:06.468750,-5.33
17:47:06.484375,3.70
17:47:06.500000,12.73
17:47:06.515625,20.67
17:47:06.531250,26.66
17:47:06.546875,30.63
17:47:06.562500,33.31
17:47:06.578125,35.91
17:47:06.593750,39.50
17:47:06.609375,44.46
17:47:06.625000,50.20
17:47:06.640625,55.35
17:47:06.656250,58.30
17:47:06.671875,57.90
17:47:06.687500,54.00
17:47:06.703125,47.46
17:47:06.718750,39.79
17:47:06.734375,32.52
17:47:06.750000,26.50
17:47:06.765625,21.72
17:47:06.781250,17.26
17:47:06.796875,11.82
17:47:06.812500,4.25
17:47:06.828125,-5.92
17:47:06.843750,-18.18
17:47:06.859375,-31.11
17:47:06.875000,-42.70
17:47:06.890625,-50.91
17:47:06.906250,-54.34
17:47:06.921875,-52.58
17:47:06.937500,-46.35
17:47:06.953125,-37.21
17:47:06.968750,-27.01
17:47:06.984375,-17.36
17:47:07,-9.32
17:47:07.015625,-3.27
17:47:07.031250,0.79
17:47:07.046875,3.09
17:47:07.062500,3.93
17:47:07.078125,3.61
17:47:07.093750,2.56
17:47:07.109375,1.30
17:47:07.125000,0.37
17:47:07.140625,0.21
17:47:07.156250,0.93
17:47:07.171875,2.30
17:47:07.187500,3.81
17:47:07.203125,4.91
17:47:07.218750,5.24
17:47:07.234375,4.81
17:47:07.250000,3.96
17:47:07.265625,3.18
17:47:07.281250,2.78
17:47:07.296875,2.72
17:47:07.312500,2.55
17:47:07.328125,1.67
17:47:07.343750,-0.36
17:47:07.359375,-3.56
17:47:07.375000,-7.47
17:47:07.390625,-11.35
17:47:07.406250,-14.57
17:47:07.421875,-16.80
17:47:07.437500,-18.07
17:47:07.453125,-18.59
17:47:07.468750,-18.60
17:47:07.484375,-18.22
17:47:07.500000,-17.52
17:47:07.515625,-16.61
17:47:07.531250,-15.73
17:47:07.546875,-15.23
17:47:07.562500,-15.34
17:47:07.578125,-16.09
17:47:07.593750,-17.26
17:47:07.609375,-18.50
17:47:07.625000,-19.55
17:47:07.640625,-20.38
17:47:07.656250,-21.21
17:47:07.671875,-22.40
17:47:07.687500,-24.26
17:47:07.703125,-26.92
17:47:07.718750,-30.32
17:47:07.734375,-34.28
17:47:07.750000,-38.59
17:47:07.765625,-43.12
17:47:07.781250,-47.90
17:47:07.796875,-52.89
17:47:07.812500,-57.92
17:47:07.828125,-62.44
17:47:07.843750,-65.51
17:47:07.859375,-66.05
17:47:07.875000,-63.18
17:47:07.890625,-56.60
17:47:07.906250,-46.81
17:47:07.921875,-34.95
17:47:07.937500,-22.41
17:47:07.953125,-10.42
17:47:07.968750,0.27
17:47:07.984375,9.48
17:47:08,17.39
17:47:08.015625,24.35
17:47:08.031250,30.60
17:47:08.046875,36.23
17:47:08.062500,41.22
17:47:08.078125,45.58
17:47:08.093750,49.43
17:47:08.109375,52.99
17:47:08.125000,56.57
17:47:08.140625,60.37
17:47:08.156250,64.37
17:47:08.171875,68.34
17:47:08.187500,71.91
17:47:08.203125,74.74
17:47:08.218750,76.69
17:47:08.234375,77.83
17:47:08.250000,78.34
17:47:08.265625,78.39
17:47:08.281250,77.97
17:47:08.296875,76.92
17:47:08.312500,75.03
17:47:08.328125,72.20
17:47:08.343750,68.49
17:47:08.359375,64.13
17:47:08.375000,59.48
17:47:08.390625,54.88
17:47:08.406250,50.54
17:47:08.421875,46.54
17:47:08.437500,42.84
17:47:08.453125,39.35
17:47:08.468750,36.01
17:47:08.484375,32.79
17:47:08.500000,29.75
17:47:08.515625,26.93
17:47:08.531250,24.32
17:47:08.546875,21.77
17:47:08.562500,19.04
17:47:08.578125,15.85
17:47:08.593750,12.03
17:47:08.609375,7.62
17:47:08.625000,2.89
17:47:08.640625,-1.78
17:47:08.656250,-6.08
17:47:08.671875,-9.92
17:47:08.687500,-13.42
17:47:08.703125,-16.83
17:47:08.718750,-20.35
17:47:08.734375,-24.01
17:47:08.750000,-27.70
17:47:08.765625,-31.20
17:47:08.781250,-34.40
17:47:08.796875,-37.21
17:47:08.812500,-39.50
17:47:08.828125,-40.91
17:47:08.843750,-40.83
17:47:08.859375,-38.54
17:47:08.875000,-33.53
17:47:08.890625,-25.79
17:47:08.906250,-15.98
17:47:08.921875,-5.24
17:47:08.937500,5.18
17:47:08.953125,14.27
17:47:08.968750,21.57
17:47:08.984375,27.05
17:47:09,30.91
17:47:09.015625,33.37
17:47:09.031250,34.39
17:47:09.046875,33.84
17:47:09.062500,31.67
17:47:09.078125,28.15
17:47:09.093750,23.98
17:47:09.109375,20.14
17:47:09.125000,17.54
17:47:09.140625,16.72
17:47:09.156250,17.61
17:47:09.171875,19.59
17:47:09.187500,21.84
17:47:09.203125,23.65
17:47:09.218750,24.76
17:47:09.234375,25.31
17:47:09.250000,25.68
17:47:09.265625,26.16
17:47:09.281250,26.75
17:47:09.296875,27.16
17:47:09.312500,27.00
17:47:09.328125,26.01
17:47:09.343750,24.23
17:47:09.359375,21.99
17:47:09.375000,19.68
17:47:09.390625,17.66
17:47:09.406250,16.01
17:47:09.421875,14.61
17:47:09.437500,13.24
17:47:09.453125,11.71
17:47:09.468750,9.96
17:47:09.484375,8.07
17:47:09.500000,6.22
17:47:09.515625,4.55
17:47:09.531250,3.09
17:47:09.546875,1.77
17:47:09.562500,0.48
17:47:09.578125,-0.86
17:47:09.593750,-2.24
17:47:09.609375,-3.58
17:47:09.625000,-4.76
17:47:09.640625,-5.73
17:47:09.656250,-6.60
17:47:09.671875,-7.60
17:47:09.687500,-8.85
17:47:09.703125,-10.22
17:47:09.718750,-11.13
17:47:09.734375,-10.57
17:47:09.750000,-7.44
17:47:09.765625,-0.95
17:47:09.781250,8.95
17:47:09.796875,21.40
17:47:09.812500,34.90
17:47:09.828125,47.78
17:47:09.843750,58.79
17:47:09.859375,67.47
17:47:09.875000,74.13
17:47:09.890625,79.62
17:47:09.906250,84.79
17:47:09.921875,90.26
17:47:09.937500,96.26
17:47:09.953125,102.74
17:47:09.968750,109.54
17:47:09.984375,116.40
17:47:10,122.95
17:47:10.015625,128.59
17:47:10.031250,132.58
17:47:10.046875,134.21
17:47:10.062500,133.22
17:47:10.078125,129.94
17:47:10.093750,125.25
17:47:10.109375,120.15
17:47:10.125000,115.22
17:47:10.140625,110.32
17:47:10.156250,104.54
17:47:10.171875,96.74
17:47:10.187500,86.06
17:47:10.203125,72.42
17:47:10.218750,56.53
17:47:10.234375,39.64
17:47:10.250000,23.03
17:47:10.265625,7.60
17:47:10.281250,-6.31
17:47:10.296875,-18.83
17:47:10.312500,-30.26
17:47:10.328125,-40.75
17:47:10.343750,-50.20
17:47:10.359375,-58.28
17:47:10.375000,-64.65
17:47:10.390625,-69.18
17:47:10.406250,-72.14
17:47:10.421875,-74.09
17:47:10.437500,-75.57
17:47:10.453125,-76.92
17:47:10.468750,-78.05
17:47:10.484375,-78.58
17:47:10.500000,-78.18
17:47:10.515625,-76.77
17:47:10.531250,-74.77
17:47:10.546875,-72.91
17:47:10.562500,-71.97
17:47:10.578125,-72.39
17:47:10.593750,-74.13
17:47:10.609375,-76.60
17:47:10.625000,-78.86
17:47:10.640625,-79.90
17:47:10.656250,-78.99
17:47:10.671875,-75.84
17:47:10.687500,-70.71
17:47:10.703125,-64.25
17:47:10.718750,-57.32
17:47:10.734375,-50.71
17:47:10.750000,-44.97
17:47:10.765625,-40.38
17:47:10.781250,-37.06
17:47:10.796875,-35.00
17:47:10.812500,-34.17
17:47:10.828125,-34.39
17:47:10.843750,-35.36
17:47:10.859375,-36.65
17:47:10.875000,-37.82
17:47:10.890625,-38.52
17:47:10.906250,-38.66
17:47:10.921875,-38.36
17:47:10.937500,-37.75
17:47:10.953125,-36.95
17:47:10.968750,-35.93
17:47:10.984375,-34.67
17:47:11,-33.27
17:47:11.015625,-31.98
17:47:11.031250,-31.24
17:47:11.046875,-31.37
17:47:11.062500,-32.47
17:47:11.078125,-34.30
17:47:11.093750,-36.33
17:47:11.109375,-37.93
17:47:11.125000,-38.64
17:47:11.140625,-38.30
17:47:11.156250,-37.18
17:47:11.171875,-35.75
17:47:11.187500,-34.53
17:47:11.203125,-33.83
17:47:11.218750,-33.63
17:47:11.234375,-33.61
17:47:11.250000,-33.34
17:47:11.265625,-32.49
17:47:11.281250,-31.08
17:47:11.296875,-29.40
17:47:11.312500,-27.95
17:47:11.328125,-27.05
17:47:11.343750,-26.76
17:47:11.359375,-26.78
17:47:11.375000,-26.58
17:47:11.390625,-25.72
17:47:11.406250,-24.08
17:47:11.421875,-21.94
17:47:11.437500,-19.91
17:47:11.453125,-18.68
17:47:11.468750,-18.79
17:47:11.484375,-20.29
17:47:11.500000,-22.75
17:47:11.515625,-25.25
17:47:11.531250,-26.66
17:47:11.546875,-25.93
17:47:11.562500,-22.37
17:47:11.578125,-15.82
17:47:11.593750,-6.74
17:47:11.609375,3.90
17:47:11.625000,14.78
17:47:11.640625,24.61
17:47:11.656250,32.35
17:47:11.671875,37.46
17:47:11.687500,40.00
17:47:11.703125,40.52
17:47:11.718750,39.82
17:47:11.734375,38.67
17:47:11.750000,37.52
17:47:11.765625,36.47
17:47:11.781250,35.24
17:47:11.796875,33.49
17:47:11.812500,30.94
17:47:11.828125,27.63
17:47:11.843750,23.85
17:47:11.859375,20.08
17:47:11.875000,16.77
17:47:11.890625,14.22
17:47:11.906250,12.49
17:47:11.921875,11.49
17:47:11.937500,11.02
17:47:11.953125,10.90
17:47:11.968750,10.92
17:47:11.984375,10.87
17:47:12,10.49
17:47:12.015625,9.59
17:47:12.031250,8.11
17:47:12.046875,6.12
17:47:12.062500,3.87
17:47:12.078125,1.64
17:47:12.093750,-0.38
17:47:12.109375,-2.14
17:47:12.125000,-3.68
17:47:12.140625,-5.07
17:47:12.156250,-6.35
17:47:12.171875,-7.54
17:47:12.187500,-8.64
17:47:12.203125,-9.70
17:47:12.218750,-10.83
17:47:12.234375,-12.12
17:47:12.250000,-13.60
17:47:12.265625,-15.25
17:47:12.281250,-16.98
17:47:12.296875,-18.67
17:47:12.312500,-20.27
17:47:12.328125,-21.80
17:47:12.343750,-23.34
17:47:12.359375,-25.08
17:47:12.375000,-27.26
17:47:12.390625,-30.08
17:47:12.406250,-33.65
17:47:12.421875,-37.93
17:47:12.437500,-42.67
17:47:12.453125,-47.46
17:47:12.468750,-51.66
17:47:12.484375,-54.49
17:47:12.500000,-55.06
17:47:12.515625,-52.59
17:47:12.531250,-46.70
17:47:12.546875,-37.61
17:47:12.562500,-26.24
17:47:12.578125,-14.05
17:47:12.593750,-2.65
17:47:12.609375,6.78
17:47:12.625000,13.73
17:47:12.640625,18.48
17:47:12.656250,21.73
17:47:12.671875,24.17
17:47:12.687500,26.19
17:47:12.703125,27.73
17:47:12.718750,28.49
17:47:12.734375,28.22
17:47:12.750000,26.93
17:47:12.765625,24.95
17:47:12.781250,22.80
17:47:12.796875,20.99
17:47:12.812500,19.81
17:47:12.828125,19.30
17:47:12.843750,19.29
17:47:12.859375,19.54
17:47:12.875000,19.89
17:47:12.890625,20.29
17:47:12.906250,20.73
17:47:12.921875,21.14
17:47:12.937500,21.39
17:47:12.953125,21.26
17:47:12.968750,20.52
17:47:12.984375,19.08
17:47:13,17.04
17:47:13.015625,14.70
17:47:13.031250,12.42
17:47:13.046875,10.48
17:47:13.062500,8.90
17:47:13.078125,7.51
17:47:13.093750,5.96
17:47:13.109375,3.91
17:47:13.125000,1.25
17:47:13.140625,-1.90
17:47:13.156250,-5.20
17:47:13.171875,-8.26
17:47:13.187500,-10.81
17:47:13.203125,-12.82
17:47:13.218750,-14.45
17:47:13.234375,-15.91
17:47:13.250000,-17.33
17:47:13.265625,-18.66
17:47:13.281250,-19.79
17:47:13.296875,-20.64
17:47:13.312500,-21.34
17:47:13.328125,-22.26
17:47:13.343750,-23.89
17:47:13.359375,-26.70
17:47:13.375000,-30.97
17:47:13.390625,-36.63
17:47:13.406250,-43.32
17:47:13.421875,-50.32
17:47:13.437500,-56.65
17:47:13.453125,-61.16
17:47:13.468750,-62.74
17:47:13.484375,-60.63
17:47:13.500000,-54.71
17:47:13.515625,-45.63
17:47:13.531250,-34.71
17:47:13.546875,-23.60
17:47:13.562500,-13.78
17:47:13.578125,-6.15
17:47:13.593750,-0.81
17:47:13.609375,2.81
17:47:13.625000,5.67
17:47:13.640625,8.71
17:47:13.656250,12.52
17:47:13.671875,17.14
17:47:13.687500,22.09
17:47:13.703125,26.55
17:47:13.718750,29.64
17:47:13.734375,30.75
17:47:13.750000,29.71
17:47:13.765625,26.85
17:47:13.781250,22.87
17:47:13.796875,18.68
17:47:13.812500,15.18
17:47:13.828125,13.05
17:47:13.843750,12.64
17:47:13.859375,13.88
17:47:13.875000,16.33
17:47:13.890625,19.29
17:47:13.906250,21.99
17:47:13.921875,23.76
17:47:13.937500,24.18
17:47:13.953125,23.12
17:47:13.968750,20.66
17:47:13.984375,17.12
17:47:14,12.92
17:47:14.015625,8.56
17:47:14.031250,4.53
17:47:14.046875,1.17
17:47:14.062500,-1.37
17:47:14.078125,-3.14
17:47:14.093750,-4.31
17:47:14.109375,-5.04
17:47:14.125000,-5.46
17:47:14.140625,-5.63
17:47:14.156250,-5.71
17:47:14.171875,-5.97
17:47:14.187500,-6.77
17:47:14.203125,-8.39
17:47:14.218750,-10.86
17:47:14.234375,-13.93
17:47:14.250000,-17.15
17:47:14.265625,-20.08
17:47:14.281250,-22.47
17:47:14.296875,-24.39
17:47:14.312500,-26.09
17:47:14.328125,-27.97
17:47:14.343750,-30.45
17:47:14.359375,-33.83
17:47:14.375000,-38.18
17:47:14.390625,-43.17
17:47:14.406250,-47.95
17:47:14.421875,-51.22
17:47:14.437500,-51.53
17:47:14.453125,-47.77
17:47:14.468750,-39.67
17:47:14.484375,-28.02
17:47:14.500000,-14.47
17:47:14.515625,-1.00
17:47:14.531250,10.69
17:47:14.546875,19.64
17:47:14.562500,25.69
17:47:14.578125,29.28
17:47:14.593750,31.07
17:47:14.609375,31.66
17:47:14.625000,31.46
17:47:14.640625,30.76
17:47:14.656250,29.74
17:47:14.671875,28.56
17:47:14.687500,27.37
17:47:14.703125,26.24
17:47:14.718750,25.22
17:47:14.734375,24.28
17:47:14.750000,23.39
17:47:14.765625,22.62
17:47:14.781250,22.07
17:47:14.796875,21.85
17:47:14.812500,22.02
17:47:14.828125,22.52
17:47:14.843750,23.13
17:47:14.859375,23.53
17:47:14.875000,23.42
17:47:14.890625,22.61
17:47:14.906250,21.08
17:47:14.921875,18.91
17:47:14.937500,16.30
17:47:14.953125,13.45
17:47:14.968750,10.53
17:47:14.984375,7.71
17:47:15,5.14
17:47:15.015625,2.92
17:47:15.031250,1.10
17:47:15.046875,-0.36
17:47:15.062500,-1.57
17:47:15.078125,-2.65
17:47:15.093750,-3.72
17:47:15.109375,-4.82
17:47:15.125000,-6.00
17:47:15.140625,-7.29
17:47:15.156250,-8.79
17:47:15.171875,-10.61
17:47:15.187500,-12.90
17:47:15.203125,-15.67
17:47:15.218750,-18.86
17:47:15.234375,-22.29
17:47:15.250000,-25.78
17:47:15.265625,-29.14
17:47:15.281250,-32.33
17:47:15.296875,-35.49
17:47:15.312500,-38.98
17:47:15.328125,-43.23
17:47:15.343750,-48.59
17:47:15.359375,-54.99
17:47:15.375000,-61.73
17:47:15.390625,-67.44
17:47:15.406250,-70.47
17:47:15.421875,-69.41
17:47:15.437500,-63.62
17:47:15.453125,-53.59
17:47:15.468750,-40.73
17:47:15.484375,-26.91
17:47:15.500000,-13.88
17:47:15.515625,-2.77
17:47:15.531250,5.92
17:47:15.546875,12.21
17:47:15.562500,16.35
17:47:15.578125,18.65
17:47:15.593750,19.43
17:47:15.609375,19.11
17:47:15.625000,18.23
17:47:15.640625,17.41
17:47:15.656250,17.14
17:47:15.671875,17.67
17:47:15.687500,18.98
17:47:15.703125,20.87
17:47:15.718750,23.08
17:47:15.734375,25.44
17:47:15.750000,27.95
17:47:15.765625,30.67
17:47:15.781250,33.64
17:47:15.796875,36.71
17:47:15.812500,39.59
17:47:15.828125,41.86
17:47:15.843750,43.15
17:47:15.859375,43.30
17:47:15.875000,42.40
17:47:15.890625,40.72
17:47:15.906250,38.51
17:47:15.921875,35.93
17:47:15.937500,32.94
17:47:15.953125,29.48
17:47:15.968750,25.50
17:47:15.984375,21.18
17:47:16,16.75
17:47:16.015625,12.50
17:47:16.031250,8.49
17:47:16.046875,4.57
17:47:16.062500,0.42
17:47:16.078125,-4.22
17:47:16.093750,-9.38
17:47:16.109375,-14.82
17:47:16.125000,-20.14
17:47:16.140625,-24.97
17:47:16.156250,-29.19
17:47:16.171875,-32.92
17:47:16.187500,-36.52
17:47:16.203125,-40.36
17:47:16.218750,-44.75
17:47:16.234375,-49.97
17:47:16.250000,-56.18
17:47:16.265625,-63.43
17:47:16.281250,-71.42
17:47:16.296875,-79.36
17:47:16.312500,-85.96
17:47:16.328125,-89.68
17:47:16.343750,-89.17
17:47:16.359375,-83.83
17:47:16.375000,-74.06
17:47:16.390625,-61.19
17:47:16.406250,-47.09
17:47:16.421875,-33.63
17:47:16.437500,-22.22
17:47:16.453125,-13.53
17:47:16.468750,-7.53
17:47:16.484375,-3.67
17:47:16.500000,-1.12
17:47:16.515625,1.01
17:47:16.531250,3.45
17:47:16.546875,6.54
17:47:16.562500,10.27
17:47:16.578125,14.23
17:47:16.593750,17.93
17:47:16.609375,20.97
17:47:16.625000,23.30
17:47:16.640625,25.27
17:47:16.656250,27.44
17:47:16.671875,30.43
17:47:16.687500,34.60
17:47:16.703125,39.96
17:47:16.718750,46.18
17:47:16.734375,52.73
17:47:16.750000,59.03
17:47:16.765625,64.57
17:47:16.781250,68.97
17:47:16.796875,71.97
17:47:16.812500,73.44
17:47:16.828125,73.38
17:47:16.843750,72.00
17:47:16.859375,69.68
17:47:16.875000,66.80
17:47:16.890625,63.61
17:47:16.906250,60.01
17:47:16.921875,55.71
17:47:16.937500,50.34
17:47:16.953125,43.84
17:47:16.968750,36.62
17:47:16.984375,29.48
17:47:17,23.22
17:47:17.015625,18.31
17:47:17.031250,14.58
17:47:17.046875,11.34
17:47:17.062500,7.78
17:47:17.078125,3.38
17:47:17.093750,-1.86
17:47:17.109375,-7.51
17:47:17.125000,-13.05
17:47:17.140625,-18.27
17:47:17.156250,-23.51
17:47:17.171875,-29.53
17:47:17.187500,-37.09
17:47:17.203125,-46.44
17:47:17.218750,-56.98
17:47:17.234375,-67.21
17:47:17.250000,-75.09
17:47:17.265625,-78.69
17:47:17.281250,-76.80
17:47:17.296875,-69.37
17:47:17.312500,-57.52
17:47:17.328125,-43.18
17:47:17.343750,-28.47
17:47:17.359375,-15.14
17:47:17.375000,-4.22
17:47:17.390625,4.06
17:47:17.406250,10.06
17:47:17.421875,14.46
17:47:17.437500,17.93
17:47:17.453125,20.93
17:47:17.468750,23.65
17:47:17.484375,26.09
17:47:17.500000,28.21
17:47:17.515625,29.99
17:47:17.531250,31.56
17:47:17.546875,33.07
17:47:17.562500,34.63
17:47:17.578125,36.26
17:47:17.593750,38.00
17:47:17.609375,39.98
17:47:17.625000,42.50
17:47:17.640625,45.95
17:47:17.656250,50.53
17:47:17.671875,55.96
17:47:17.687500,61.37
17:47:17.703125,65.53
17:47:17.718750,67.32
17:47:17.734375,66.23
17:47:17.750000,62.67
17:47:17.765625,57.73
17:47:17.781250,52.70
17:47:17.796875,48.52
17:47:17.812500,45.40
17:47:17.828125,42.90
17:47:17.843750,40.31
17:47:17.859375,37.10
17:47:17.875000,33.21
17:47:17.890625,29.00
17:47:17.906250,24.95
17:47:17.921875,21.36
17:47:17.937500,18.17
17:47:17.953125,14.94
17:47:17.968750,11.12
17:47:17.984375,6.25
17:47:18,0.17
17:47:18.015625,-6.98
17:47:18.031250,-14.77
17:47:18.046875,-22.68
17:47:18.062500,-30.21
17:47:18.078125,-37.00
17:47:18.093750,-42.86
17:47:18.109375,-47.79
17:47:18.125000,-51.94
17:47:18.140625,-55.56
17:47:18.156250,-58.99
17:47:18.171875,-62.53
17:47:18.187500,-66.22
17:47:18.203125,-69.70
17:47:18.218750,-72.09
17:47:18.234375,-72.16
17:47:18.250000,-68.62
17:47:18.265625,-60.72
17:47:18.281250,-48.64
17:47:18.296875,-33.63
17:47:18.312500,-17.82
17:47:18.328125,-3.51
17:47:18.343750,7.52
17:47:18.359375,14.53
17:47:18.375000,17.89
17:47:18.390625,18.75
17:47:18.406250,18.46
17:47:18.421875,18.02
17:47:18.437500,17.90
17:47:18.453125,18.10
17:47:18.468750,18.39
17:47:18.484375,18.64
17:47:18.500000,18.86
17:47:18.515625,19.23
17:47:18.531250,19.91
17:47:18.546875,20.95
17:47:18.562500,22.30
17:47:18.578125,23.84
17:47:18.593750,25.48
17:47:18.609375,27.21
17:47:18.625000,29.02
17:47:18.640625,30.94
17:47:18.656250,32.87
17:47:18.671875,34.54
17:47:18.687500,35.56
17:47:18.703125,35.52
17:47:18.718750,34.15
17:47:18.734375,31.50
17:47:18.750000,27.95
17:47:18.765625,24.11
17:47:18.781250,20.59
17:47:18.796875,17.79
17:47:18.812500,15.74
17:47:18.828125,14.23
17:47:18.843750,12.90
17:47:18.859375,11.50
17:47:18.875000,9.90
17:47:18.890625,8.20
17:47:18.906250,6.55
17:47:18.921875,5.11
17:47:18.937500,4.02
17:47:18.953125,3.40
17:47:18.968750,3.33
17:47:18.984375,3.83
17:47:19,4.82
17:47:19.015625,6.05
17:47:19.031250,7.16
17:47:19.046875,7.70
17:47:19.062500,7.23
17:47:19.078125,5.37
17:47:19.093750,1.92
17:47:19.109375,-3.03
17:47:19.125000,-8.88
17:47:19.140625,-14.42
17:47:19.156250,-18.00
17:47:19.171875,-18.00
17:47:19.187500,-13.41
17:47:19.203125,-4.41
17:47:19.218750,7.56
17:47:19.234375,20.20
17:47:19.250000,31.15
17:47:19.265625,38.72
17:47:19.281250,42.31
17:47:19.296875,42.32
17:47:19.312500,39.65
17:47:19.328125,35.22
17:47:19.343750,29.75
17:47:19.359375,23.70
17:47:19.375000,17.53
17:47:19.390625,11.75
17:47:19.406250,6.89
17:47:19.421875,3.28
17:47:19.437500,0.88
17:47:19.453125,-0.72
17:47:19.468750,-2.08
17:47:19.484375,-3.69
17:47:19.500000,-5.72
17:47:19.515625,-8.04
17:47:19.531250,-10.29
17:47:19.546875,-12.18
17:47:19.562500,-13.60
17:47:19.578125,-14.70
17:47:19.593750,-15.80
17:47:19.609375,-17.24
17:47:19.625000,-19.26
17:47:19.640625,-21.86
17:47:19.656250,-24.89
17:47:19.671875,-28.10
17:47:19.687500,-31.23
17:47:19.703125,-34.09
17:47:19.718750,-36.51
17:47:19.734375,-38.44
17:47:19.750000,-39.85
17:47:19.765625,-40.86
17:47:19.781250,-41.68
17:47:19.796875,-42.56
17:47:19.812500,-43.69
17:47:19.828125,-45.07
17:47:19.843750,-46.47
17:47:19.859375,-47.47
17:47:19.875000,-47.67
17:47:19.890625,-46.90
17:47:19.906250,-45.35
17:47:19.921875,-43.52
17:47:19.937500,-42.12
17:47:19.953125,-41.82
17:47:19.968750,-43.09
17:47:19.984375,-46.06
17:47:20,-50.42
17:47:20.015625,-55.31
17:47:20.031250,-59.39
17:47:20.046875,-61.02
17:47:20.062500,-58.63
17:47:20.078125,-51.23
17:47:20.093750,-38.87
17:47:20.109375,-22.71
17:47:20.125000,-4.85
17:47:20.140625,12.30
17:47:20.156250,26.65
17:47:20.171875,36.95
17:47:20.187500,42.94
17:47:20.203125,45.18
17:47:20.218750,44.69
17:47:20.234375,42.49
17:47:20.250000,39.37
17:47:20.265625,35.77
17:47:20.281250,31.86
17:47:20.296875,27.75
17:47:20.312500,23.64
17:47:20.328125,19.86
17:47:20.343750,16.83
17:47:20.359375,14.85
17:47:20.375000,13.98
17:47:20.390625,13.97
17:47:20.406250,14.34
17:47:20.421875,14.56
17:47:20.437500,14.25
17:47:20.453125,13.22
17:47:20.468750,11.47
17:47:20.484375,9.07
17:47:20.500000,6.05
17:47:20.515625,2.40
17:47:20.531250,-1.91
17:47:20.546875,-6.85
17:47:20.562500,-12.25
17:47:20.578125,-17.86
17:47:20.593750,-23.37
17:47:20.609375,-28.49
17:47:20.625000,-32.97
17:47:20.640625,-36.70
17:47:20.656250,-39.68
17:47:20.671875,-42.09
17:47:20.687500,-44.20
17:47:20.703125,-46.34
17:47:20.718750,-48.80
17:47:20.734375,-51.66
17:47:20.750000,-54.76
17:47:20.765625,-57.75
17:47:20.781250,-60.20
17:47:20.796875,-61.87
17:47:20.812500,-62.77
17:47:20.828125,-63.21
17:47:20.843750,-63.70
17:47:20.859375,-64.77
17:47:20.875000,-66.84
17:47:20.890625,-70.16
17:47:20.906250,-74.64
17:47:20.921875,-79.75
17:47:20.937500,-84.38
17:47:20.953125,-87.00
17:47:20.968750,-85.89
17:47:20.984375,-79.75
17:47:21,-68.21
17:47:21.015625,-52.10
17:47:21.031250,-33.34
17:47:21.046875,-14.38
17:47:21.062500,2.54
17:47:21.078125,15.89
17:47:21.093750,25.21
17:47:21.109375,30.87
17:47:21.125000,33.74
17:47:21.140625,34.83
17:47:21.156250,34.91
17:47:21.171875,34.48
17:47:21.187500,33.73
17:47:21.203125,32.72
17:47:21.218750,31.43
17:47:21.234375,29.94
17:47:21.250000,28.35
17:47:21.265625,26.85
17:47:21.281250,25.56
17:47:21.296875,24.52
17:47:21.312500,23.68
17:47:21.328125,22.94
17:47:21.343750,22.24
17:47:21.359375,21.59
17:47:21.375000,20.98
17:47:21.390625,20.43
17:47:21.406250,19.86
17:47:21.421875,19.17
17:47:21.437500,18.22
17:47:21.453125,16.94
17:47:21.468750,15.36
17:47:21.484375,13.62
17:47:21.500000,11.82
17:47:21.515625,10.02
17:47:21.531250,8.19
17:47:21.546875,6.18
17:47:21.562500,3.90
17:47:21.578125,1.28
17:47:21.593750,-1.59
17:47:21.609375,-4.54
17:47:21.625000,-7.31
17:47:21.640625,-9.73
17:47:21.656250,-11.78
17:47:21.671875,-13.62
17:47:21.687500,-15.54
17:47:21.703125,-17.79
17:47:21.718750,-20.44
17:47:21.734375,-23.31
17:47:21.750000,-26.09
17:47:21.765625,-28.44
17:47:21.781250,-30.28
17:47:21.796875,-31.84
17:47:21.812500,-33.71
17:47:21.828125,-36.65
17:47:21.843750,-41.25
17:47:21.859375,-47.64
17:47:21.875000,-55.12
17:47:21.890625,-62.12
17:47:21.906250,-66.45
17:47:21.921875,-65.77
17:47:21.937500,-58.46
17:47:21.953125,-44.18
17:47:21.968750,-24.13
17:47:21.984375,-0.82
17:47:22,22.78
17:47:22.015625,44.16
17:47:22.031250,61.93
17:47:22.046875,75.94
17:47:22.062500,86.90
17:47:22.078125,95.81
17:47:22.093750,103.42
17:47:22.109375,110.13
17:47:22.125000,116.08
17:47:22.140625,121.40
17:47:22.156250,126.27
17:47:22.171875,130.89
17:47:22.187500,135.28
17:47:22.203125,139.23
17:47:22.218750,142.33
17:47:22.234375,144.23
17:47:22.250000,144.84
17:47:22.265625,144.30
17:47:22.281250,142.96
17:47:22.296875,141.16
17:47:22.312500,139.10
17:47:22.328125,136.74
17:47:22.343750,133.93
17:47:22.359375,130.43
17:47:22.375000,125.95
17:47:22.390625,120.18
17:47:22.406250,112.88
17:47:22.421875,103.97
17:47:22.437500,93.63
17:47:22.453125,82.40
17:47:22.468750,71.07
17:47:22.484375,60.46
17:47:22.500000,51.21
17:47:22.515625,43.49
17:47:22.531250,36.99
17:47:22.546875,31.11
17:47:22.562500,25.25
17:47:22.578125,19.10
17:47:22.593750,12.78
17:47:22.609375,6.68
17:47:22.625000,1.20
17:47:22.640625,-3.62
17:47:22.656250,-8.13
17:47:22.671875,-12.90
17:47:22.687500,-18.46
17:47:22.703125,-24.89
17:47:22.718750,-31.88
17:47:22.734375,-38.90
17:47:22.750000,-45.54
17:47:22.765625,-51.76
17:47:22.781250,-57.96
17:47:22.796875,-64.73
17:47:22.812500,-72.56
17:47:22.828125,-81.64
17:47:22.843750,-91.69
17:47:22.859375,-102.03
17:47:22.875000,-111.55
17:47:22.890625,-118.95
17:47:22.906250,-122.88
17:47:22.921875,-122.30
17:47:22.937500,-116.82
17:47:22.953125,-106.97
17:47:22.968750,-94.13
17:47:22.984375,-80.26
17:47:23,-67.26
17:47:23.015625,-56.57
17:47:23.031250,-48.75
17:47:23.046875,-43.62
17:47:23.062500,-40.48
17:47:23.078125,-38.54
17:47:23.093750,-37.19
17:47:23.109375,-36.06
17:47:23.125000,-34.98
17:47:23.140625,-33.78
17:47:23.156250,-32.19
17:47:23.171875,-29.81
17:47:23.187500,-26.23
17:47:23.203125,-21.22
17:47:23.218750,-14.89
17:47:23.234375,-7.69
17:47:23.250000,-0.23
17:47:23.265625,6.93
17:47:23.281250,13.55
17:47:23.296875,19.69
17:47:23.312500,25.64
17:47:23.328125,31.54
17:47:23.343750,37.28
17:47:23.359375,42.38
17:47:23.375000,46.24
17:47:23.390625,48.35
17:47:23.406250,48.59
17:47:23.421875,47.27
17:47:23.437500,44.97
17:47:23.453125,42.31
17:47:23.468750,39.66
17:47:23.484375,37.09
17:47:23.500000,34.40
17:47:23.515625,31.37
17:47:23.531250,27.92
17:47:23.546875,24.26
17:47:23.562500,20.77
17:47:23.578125,17.89
17:47:23.593750,15.83
17:47:23.609375,14.41
17:47:23.625000,13.10
17:47:23.640625,11.10
17:47:23.656250,7.76
17:47:23.671875,2.78
17:47:23.687500,-3.63
17:47:23.703125,-10.83
17:47:23.718750,-18.01
17:47:23.734375,-24.53
17:47:23.750000,-30.18
17:47:23.765625,-35.26
17:47:23.781250,-40.43
17:47:23.796875,-46.36
17:47:23.812500,-53.48
17:47:23.828125,-61.70
17:47:23.843750,-70.32
17:47:23.859375,-78.17
17:47:23.875000,-83.76
17:47:23.890625,-85.70
17:47:23.906250,-82.96
17:47:23.921875,-75.25
17:47:23.937500,-63.11
17:47:23.953125,-47.86
17:47:23.968750,-31.34
17:47:23.984375,-15.40
17:47:24,-1.52
17:47:24.015625,9.42
17:47:24.031250,17.32
17:47:24.046875,22.57
17:47:24.062500,25.83
17:47:24.078125,27.76
17:47:24.093750,28.82
17:47:24.109375,29.32
17:47:24.125000,29.53
17:47:24.140625,29.74
17:47:24.156250,30.34
17:47:24.171875,31.70
17:47:24.187500,34.05
17:47:24.203125,37.35
17:47:24.218750,41.26
17:47:24.234375,45.28
17:47:24.250000,48.96
17:47:24.265625,52.04
17:47:24.281250,54.48
17:47:24.296875,56.43
17:47:24.312500,57.98
17:47:24.328125,59.12
17:47:24.343750,59.66
17:47:24.359375,59.36
17:47:24.375000,58.06
17:47:24.390625,55.70
17:47:24.406250,52.41
17:47:24.421875,48.33
17:47:24.437500,43.59
17:47:24.453125,38.19
17:47:24.468750,32.13
17:47:24.484375,25.44
17:47:24.500000,18.32
17:47:24.515625,11.05
17:47:24.531250,3.98
17:47:24.546875,-2.58
17:47:24.562500,-8.54
17:47:24.578125,-13.96
17:47:24.593750,-19.05
17:47:24.609375,-24.08
17:47:24.625000,-29.24
17:47:24.640625,-34.64
17:47:24.656250,-40.25
17:47:24.671875,-45.90
17:47:24.687500,-51.33
17:47:24.703125,-56.19
17:47:24.718750,-60.22
17:47:24.734375,-63.31
17:47:24.750000,-65.62
17:47:24.765625,-67.70
17:47:24.781250,-70.24
17:47:24.796875,-73.90
17:47:24.812500,-78.87
17:47:24.828125,-84.57
17:47:24.843750,-89.54
17:47:24.859375,-91.77
17:47:24.875000,-89.19
17:47:24.890625,-80.55
17:47:24.906250,-65.84
17:47:24.921875,-46.51
17:47:24.937500,-25.00
17:47:24.953125,-4.04
17:47:24.968750,14.24
17:47:24.984375,28.69
17:47:25,39.31
17:47:25.015625,46.73
17:47:25.031250,51.81
17:47:25.046875,55.18
17:47:25.062500,57.16
17:47:25.078125,57.87
17:47:25.093750,57.40
17:47:25.109375,55.91
17:47:25.125000,53.67
17:47:25.140625,50.91
17:47:25.156250,47.76
17:47:25.171875,44.27
17:47:25.187500,40.45
17:47:25.203125,36.40
17:47:25.218750,32.38
17:47:25.234375,28.73
17:47:25.250000,25.79
17:47:25.265625,23.66
17:47:25.281250,22.20
17:47:25.296875,21.00
17:47:25.312500,19.54
17:47:25.328125,17.41
17:47:25.343750,14.52
17:47:25.359375,11.06
17:47:25.375000,7.47
17:47:25.390625,4.18
17:47:25.406250,1.45
17:47:25.421875,-0.74
17:47:25.437500,-2.58
17:47:25.453125,-4.30
17:47:25.468750,-6.00
17:47:25.484375,-7.57
17:47:25.500000,-8.75
17:47:25.515625,-9.33
17:47:25.531250,-9.21
17:47:25.546875,-8.50
17:47:25.562500,-7.47
17:47:25.578125,-6.46
17:47:25.593750,-5.66
17:47:25.609375,-5.14
17:47:25.625000,-4.78
17:47:25.640625,-4.45
17:47:25.656250,-4.05
17:47:25.671875,-3.61
17:47:25.687500,-3.23
17:47:25.703125,-3.07
17:47:25.718750,-3.31
17:47:25.734375,-4.15
17:47:25.750000,-5.79
17:47:25.765625,-8.45
17:47:25.781250,-12.18
17:47:25.796875,-16.72
17:47:25.812500,-21.45
17:47:25.828125,-25.50
17:47:25.843750,-28.01
17:47:25.859375,-28.48
17:47:25.875000,-27.01
17:47:25.890625,-24.34
17:47:25.906250,-21.56
17:47:25.921875,-19.79
17:47:25.937500,-19.76
17:47:25.953125,-21.64
17:47:25.968750,-25.05
17:47:25.984375,-29.20
17:47:26,-33.17
17:47:26.015625,-36.19
17:47:26.031250,-37.78
17:47:26.046875,-37.76
17:47:26.062500,-36.19
17:47:26.078125,-33.18
17:47:26.093750,-28.78
17:47:26.109375,-22.98
17:47:26.125000,-15.78
17:47:26.140625,-7.39
17:47:26.156250,1.73
17:47:26.171875,10.88
17:47:26.187500,19.33
17:47:26.203125,26.53
17:47:26.218750,32.29
17:47:26.234375,36.70
17:47:26.250000,39.99
17:47:26.265625,42.31
17:47:26.281250,43.67
17:47:26.296875,43.98
17:47:26.312500,43.21
17:47:26.328125,41.48
17:47:26.343750,39.13
17:47:26.359375,36.63
17:47:26.375000,34.39
17:47:26.390625,32.60
17:47:26.406250,31.22
17:47:26.421875,30.01
17:47:26.437500,28.70
17:47:26.453125,27.13
17:47:26.468750,25.31
17:47:26.484375,23.41
17:47:26.500000,21.73
17:47:26.515625,20.47
17:47:26.531250,19.73
17:47:26.546875,19.44
17:47:26.562500,19.38
17:47:26.578125,19.27
17:47:26.593750,18.84
17:47:26.609375,17.88
17:47:26.625000,16.26
17:47:26.640625,13.94
17:47:26.656250,10.98
17:47:26.671875,7.57
17:47:26.687500,3.98
17:47:26.703125,0.49
17:47:26.718750,-2.72
17:47:26.734375,-5.69
17:47:26.750000,-8.71
17:47:26.765625,-12.30
17:47:26.781250,-17.05
17:47:26.796875,-23.36
17:47:26.812500,-31.17
17:47:26.828125,-39.79
17:47:26.843750,-47.84
17:47:26.859375,-53.57
17:47:26.875000,-55.27
17:47:26.890625,-51.91
17:47:26.906250,-43.50
17:47:26.921875,-31.12
17:47:26.937500,-16.66
17:47:26.953125,-2.20
17:47:26.968750,10.53
17:47:26.984375,20.48
17:47:27,27.34
17:47:27.015625,31.24
17:47:27.031250,32.48
17:47:27.046875,31.35
17:47:27.062500,28.09
17:47:27.078125,23.03
17:47:27.093750,16.68
17:47:27.109375,9.76
17:47:27.125000,3.03
17:47:27.140625,-2.92
17:47:27.156250,-7.88
17:47:27.171875,-12.01
17:47:27.187500,-15.80
17:47:27.203125,-19.74
17:47:27.218750,-24.12
17:47:27.234375,-28.84
17:47:27.250000,-33.49
17:47:27.265625,-37.66
17:47:27.281250,-41.15
17:47:27.296875,-44.15
17:47:27.312500,-47.18
17:47:27.328125,-50.91
17:47:27.343750,-55.74
17:47:27.359375,-61.67
17:47:27.375000,-68.16
17:47:27.390625,-74.36
17:47:27.406250,-79.36
17:47:27.421875,-82.40
17:47:27.437500,-83.10
17:47:27.453125,-81.34
17:47:27.468750,-77.28
17:47:27.484375,-71.19
17:47:27.500000,-63.36
17:47:27.515625,-54.09
17:47:27.531250,-43.66
17:47:27.546875,-32.47
17:47:27.562500,-21.04
17:47:27.578125,-10.06
17:47:27.593750,-0.32
17:47:27.609375,7.46
17:47:27.625000,12.84
17:47:27.640625,15.76
17:47:27.656250,16.56
17:47:27.671875,15.82
17:47:27.687500,14.19
17:47:27.703125,12.10
17:47:27.718750,9.65
17:47:27.734375,6.61
17:47:27.750000,2.57
17:47:27.765625,-3.01
17:47:27.781250,-10.44
17:47:27.796875,-19.61
17:47:27.812500,-29.77
17:47:27.828125,-39.37
17:47:27.843750,-46.31
17:47:27.859375,-48.46
17:47:27.875000,-44.33
17:47:27.890625,-33.71
17:47:27.906250,-17.89
17:47:27.921875,0.64
17:47:27.937500,19.03
17:47:27.953125,34.84
17:47:27.968750,46.69
17:47:27.984375,54.46
17:47:28,58.94
17:47:28.015625,61.26
17:47:28.031250,62.41
17:47:28.046875,63.01
17:47:28.062500,63.29
17:47:28.078125,63.31
17:47:28.093750,63.16
17:47:28.109375,62.96
17:47:28.125000,62.90
17:47:28.140625,63.04
17:47:28.156250,63.24
17:47:28.171875,63.21
17:47:28.187500,62.62
17:47:28.203125,61.30
17:47:28.218750,59.31
17:47:28.234375,56.90
17:47:28.250000,54.36
17:47:28.265625,51.77
17:47:28.281250,48.88
17:47:28.296875,45.24
17:47:28.312500,40.29
17:47:28.328125,33.65
17:47:28.343750,25.31
17:47:28.359375,15.68
17:47:28.375000,5.63
17:47:28.390625,-3.76
17:47:28.406250,-11.46
17:47:28.421875,-16.78
17:47:28.437500,-19.58
17:47:28.453125,-20.30
17:47:28.468750,-19.71
17:47:28.484375,-18.64
17:47:28.500000,-17.57
17:47:28.515625,-16.61
17:47:28.531250,-15.52
17:47:28.546875,-13.98
17:47:28.562500,-11.85
17:47:28.578125,-9.28
17:47:28.593750,-6.58
17:47:28.609375,-4.17
17:47:28.625000,-2.30
17:47:28.640625,-1.14
17:47:28.656250,-0.72
17:47:28.671875,-0.98
17:47:28.687500,-1.86
17:47:28.703125,-3.25
17:47:28.718750,-5.09
17:47:28.734375,-7.41
17:47:28.750000,-10.29
17:47:28.765625,-13.98
17:47:28.781250,-18.76
17:47:28.796875,-24.91
17:47:28.812500,-32.57
17:47:28.828125,-41.69
17:47:28.843750,-51.82
17:47:28.859375,-62.21
17:47:28.875000,-71.85
17:47:28.890625,-79.82
17:47:28.906250,-85.48
17:47:28.921875,-88.63
17:47:28.937500,-89.41
17:47:28.953125,-88.13
17:47:28.968750,-85.07
17:47:28.984375,-80.52
17:47:29,-74.72
17:47:29.015625,-67.96
17:47:29.031250,-60.44
17:47:29.046875,-52.17
17:47:29.062500,-42.87
17:47:29.078125,-32.22
17:47:29.093750,-20.06
17:47:29.109375,-6.64
17:47:29.125000,7.39
17:47:29.140625,21.18
17:47:29.156250,34.03
17:47:29.171875,45.55
17:47:29.187500,55.63
17:47:29.203125,64.16
17:47:29.218750,70.81
17:47:29.234375,74.95
17:47:29.250000,75.87
17:47:29.265625,73.06
17:47:29.281250,66.58
17:47:29.296875,57.11
17:47:29.312500,45.86
17:47:29.328125,34.31
17:47:29.343750,23.89
17:47:29.359375,15.66
17:47:29.375000,10.19
17:47:29.390625,7.55
17:47:29.406250,7.42
17:47:29.421875,9.27
17:47:29.437500,12.53
17:47:29.453125,16.61
17:47:29.468750,20.95
17:47:29.484375,24.97
17:47:29.500000,28.16
17:47:29.515625,30.02
17:47:29.531250,30.20
17:47:29.546875,28.52
17:47:29.562500,25.08
17:47:29.578125,20.26
17:47:29.593750,14.70
17:47:29.609375,9.15
17:47:29.625000,4.28
17:47:29.640625,0.45
17:47:29.656250,-2.39
17:47:29.671875,-4.65
17:47:29.687500,-6.91
17:47:29.703125,-9.65
17:47:29.718750,-13.15
17:47:29.734375,-17.35
17:47:29.750000,-21.95
17:47:29.765625,-26.60
17:47:29.781250,-30.99
17:47:29.796875,-34.96
17:47:29.812500,-38.54
17:47:29.828125,-41.90
17:47:29.843750,-45.41
17:47:29.859375,-49.60
17:47:29.875000,-55.00
17:47:29.890625,-62.00
17:47:29.906250,-70.34
17:47:29.921875,-78.95
17:47:29.937500,-85.84
17:47:29.953125,-88.61
17:47:29.968750,-85.25
17:47:29.984375,-74.93
17:47:30,-58.48
17:47:30.015625,-38.31
17:47:30.031250,-17.61
17:47:30.046875,0.67
17:47:30.062500,14.64
17:47:30.078125,23.91
17:47:30.093750,29.30
17:47:30.109375,32.25
17:47:30.125000,34.17
17:47:30.140625,35.90
17:47:30.156250,37.72
17:47:30.171875,39.52
17:47:30.187500,41.12
17:47:30.203125,42.47
17:47:30.218750,43.69
17:47:30.234375,44.91
17:47:30.250000,46.17
17:47:30.265625,47.31
17:47:30.281250,48.09
17:47:30.296875,48.42
17:47:30.312500,48.41
17:47:30.328125,48.38
17:47:30.343750,48.64
17:47:30.359375,49.30
17:47:30.375000,50.17
17:47:30.390625,50.82
17:47:30.406250,50.87
17:47:30.421875,50.16
17:47:30.437500,48.94
17:47:30.453125,47.67
17:47:30.468750,46.89
17:47:30.484375,46.95
17:47:30.500000,47.95
17:47:30.515625,49.65
17:47:30.531250,51.60
17:47:30.546875,53.27
17:47:30.562500,54.09
17:47:30.578125,53.56
17:47:30.593750,51.42
17:47:30.609375,47.66
17:47:30.625000,42.59
17:47:30.640625,36.75
17:47:30.656250,30.83
17:47:30.671875,25.39
17:47:30.687500,20.72
17:47:30.703125,16.69
17:47:30.718750,12.84
17:47:30.734375,8.50
17:47:30.750000,3.08
17:47:30.765625,-3.76
17:47:30.781250,-11.98
17:47:30.796875,-21.18
17:47:30.812500,-30.65
17:47:30.828125,-39.56
17:47:30.843750,-47.12
17:47:30.859375,-52.72
17:47:30.875000,-56.11
17:47:30.890625,-57.49
17:47:30.906250,-57.56
17:47:30.921875,-57.41
17:47:30.937500,-58.27
17:47:30.953125,-61.15
17:47:30.968750,-66.54
17:47:30.984375,-74.13
17:47:31,-82.74
17:47:31.015625,-90.59
17:47:31.031250,-95.75
17:47:31.046875,-96.79
17:47:31.062500,-93.21
17:47:31.078125,-85.47
17:47:31.093750,-74.63
17:47:31.109375,-61.79
17:47:31.125000,-47.65
17:47:31.140625,-32.54
17:47:31.156250,-16.70
17:47:31.171875,-0.77
17:47:31.187500,14.16
17:47:31.203125,26.81
17:47:31.218750,36.30
17:47:31.234375,42.56
17:47:31.250000,46.36
17:47:31.265625,48.77
17:47:31.281250,50.70
17:47:31.296875,52.49
17:47:31.312500,54.01
17:47:31.328125,55.04
17:47:31.343750,55.55
17:47:31.359375,55.81
17:47:31.375000,56.28
17:47:31.390625,57.35
17:47:31.406250,59.12
17:47:31.421875,61.41
17:47:31.437500,63.82
17:47:31.453125,65.95
17:47:31.468750,67.50
17:47:31.484375,68.37
17:47:31.500000,68.55
17:47:31.515625,67.98
17:47:31.531250,66.40
17:47:31.546875,63.38
17:47:31.562500,58.43
17:47:31.578125,51.40
17:47:31.593750,42.61
17:47:31.609375,32.86
17:47:31.625000,23.12
17:47:31.640625,14.02
17:47:31.656250,5.65
17:47:31.671875,-2.46
17:47:31.687500,-10.92
17:47:31.703125,-20.04
17:47:31.718750,-29.65
17:47:31.734375,-39.18
17:47:31.750000,-48.06
17:47:31.765625,-56.00
17:47:31.781250,-63.05
17:47:31.796875,-69.36
17:47:31.812500,-75.06
17:47:31.828125,-80.07
17:47:31.843750,-84.33
17:47:31.859375,-87.83
17:47:31.875000,-90.73
17:47:31.890625,-93.21
17:47:31.906250,-95.23
17:47:31.921875,-96.50
17:47:31.937500,-96.54
17:47:31.953125,-94.99
17:47:31.968750,-91.87
17:47:31.984375,-87.68
17:47:32,-83.34
17:47:32.015625,-79.91
17:47:32.031250,-78.25
17:47:32.046875,-78.68
17:47:32.062500,-80.77
17:47:32.078125,-83.28
17:47:32.093750,-84.31
17:47:32.109375,-81.76
17:47:32.125000,-73.95
17:47:32.140625,-60.31
17:47:32.156250,-41.64
17:47:32.171875,-20.03
17:47:32.187500,1.73
17:47:32.203125,21.06
17:47:32.218750,36.27
17:47:32.234375,46.84
17:47:32.250000,53.36
17:47:32.265625,56.91
17:47:32.281250,58.53
17:47:32.296875,58.92
17:47:32.312500,58.34
17:47:32.328125,56.85
17:47:32.343750,54.58
17:47:32.359375,51.92
17:47:32.375000,49.42
17:47:32.390625,47.63
17:47:32.406250,46.85
17:47:32.421875,46.98
17:47:32.437500,47.67
17:47:32.453125,48.48
17:47:32.468750,49.16
17:47:32.484375,49.65
17:47:32.500000,50.09
17:47:32.515625,50.48
17:47:32.531250,50.67
17:47:32.546875,50.26
17:47:32.562500,48.81
17:47:32.578125,46.10
17:47:32.593750,42.25
17:47:32.609375,37.79
17:47:32.625000,33.38
17:47:32.640625,29.59
17:47:32.656250,26.62
17:47:32.671875,24.33
17:47:32.687500,22.28
17:47:32.703125,20.00
17:47:32.718750,17.26
17:47:32.734375,14.11
17:47:32.750000,10.91
17:47:32.765625,8.12
17:47:32.781250,6.08
17:47:32.796875,4.78
17:47:32.812500,3.87
17:47:32.828125,2.74
17:47:32.843750,0.77
17:47:32.859375,-2.35
17:47:32.875000,-6.56
17:47:32.890625,-11.41
17:47:32.906250,-16.32
17:47:32.921875,-20.84
17:47:32.937500,-24.81
17:47:32.953125,-28.39
17:47:32.968750,-31.94
17:47:32.984375,-35.86
17:47:33,-40.49
17:47:33.015625,-46.04
17:47:33.031250,-52.51
17:47:33.046875,-59.56
17:47:33.062500,-66.38
17:47:33.078125,-71.73
17:47:33.093750,-74.16
17:47:33.109375,-72.43
17:47:33.125000,-65.92
17:47:33.140625,-54.90
17:47:33.156250,-40.46
17:47:33.171875,-24.17
17:47:33.187500,-7.61
17:47:33.203125,8.01
17:47:33.218750,22.07
17:47:33.234375,34.43
17:47:33.250000,45.25
17:47:33.265625,54.75
17:47:33.281250,63.02
17:47:33.296875,70.03
17:47:33.312500,75.69
