17:10:33,-0.00
17:10:33.015625,-0.00
17:10:33.031250,-0.00
17:10:33.046875,-0.00
17:10:33.062500,-0.00
17:10:33.078125,-0.00
17:10:33.093750,-0.00
17:10:33.109375,-0.00
17:10:33.125000,-0.00
17:10:33.140625,-0.00
17:10:33.156250,0.00
17:10:33.171875,0.01
17:10:33.187500,0.01
17:10:33.203125,-0.00
17:10:33.218750,-0.03
17:10:33.234375,-0.05
17:10:33.250000,-0.05
17:10:33.265625,0.00
17:10:33.281250,0.13
17:10:33.296875,0.36
17:10:33.312500,0.66
17:10:33.328125,1.01
17:10:33.343750,1.37
17:10:33.359375,1.72
17:10:33.375000,2.06
17:10:33.390625,2.40
17:10:33.406250,2.79
17:10:33.421875,3.24
17:10:33.437500,3.80
17:10:33.453125,4.42
17:10:33.468750,5.06
17:10:33.484375,5.66
17:10:33.500000,6.20
17:10:33.515625,6.68
17:10:33.531250,7.15
17:10:33.546875,7.68
17:10:33.562500,8.31
17:10:33.578125,9.14
17:10:33.593750,10.09
17:10:33.609375,11.04
17:10:33.625000,11.88
17:10:33.640625,12.56
17:10:33.656250,13.14
17:10:33.671875,13.76
17:10:33.687500,14.65
17:10:33.703125,15.96
17:10:33.718750,17.91
17:10:33.734375,20.32
17:10:33.750000,22.90
17:10:33.765625,25.38
17:10:33.781250,27.58
17:10:33.796875,29.57
17:10:33.812500,31.68
17:10:33.828125,34.32
17:10:33.843750,37.81
17:10:33.859375,42.54
17:10:33.875000,48.15
17:10:33.890625,54.10
17:10:33.906250,59.83
17:10:33.921875,64.97
17:10:33.937500,69.58
17:10:33.953125,74.14
17:10:33.968750,79.34
17:10:33.984375,85.71
17:10:34,93.76
17:10:34.015625,103.00
17:10:34.031250,112.62
17:10:34.046875,121.73
17:10:34.062500,129.77
17:10:34.078125,136.75
17:10:34.093750,143.30
17:10:34.109375,150.75
17:10:34.125000,157.77
17:10:34.140625,166.64
17:10:34.156250,177.95
17:10:34.171875,191.79
17:10:34.187500,206.97
17:10:34.203125,220.57
17:10:34.218750,228.25
17:10:34.234375,225.36
17:10:34.250000,208.53
17:10:34.265625,176.87
17:10:34.281250,132.76
17:10:34.296875,80.05
17:10:34.312500,23.07
17:10:34.328125,-34.94
17:10:34.343750,-92.44
17:10:34.359375,-149.16
17:10:34.375000,-205.23
17:10:34.390625,-260.37
17:10:34.406250,-313.74
17:10:34.421875,-363.87
17:10:34.437500,-409.83
17:10:34.453125,-450.91
17:10:34.468750,-486.50
17:10:34.484375,-515.74
17:10:34.500000,-537.23
17:10:34.515625,-549.22
17:10:34.531250,-549.96
17:10:34.546875,-538.37
17:10:34.562500,-514.21
17:10:34.578125,-478.67
17:10:34.593750,-433.88
17:10:34.609375,-382.45
17:10:34.625000,-327.02
17:10:34.640625,-269.84
17:10:34.656250,-212.63
17:10:34.671875,-156.66
17:10:34.687500,-102.95
17:10:34.703125,-52.37
17:10:34.718750,-5.90
17:10:34.734375,35.58
17:10:34.750000,71.43
17:10:34.765625,101.35
17:10:34.781250,125.50
17:10:34.796875,144.38
17:10:34.812500,158.69
17:10:34.828125,169.15
17:10:34.843750,176.37
17:10:34.859375,180.75
17:10:34.875000,182.57
17:10:34.890625,182.07
17:10:34.906250,179.51
17:10:34.921875,175.23
17:10:34.937500,169.65
17:10:34.953125,163.18
17:10:34.968750,156.15
17:10:34.984375,148.81
17:10:35,141.30
17:10:35.015625,133.69
17:10:35.031250,126.02
17:10:35.046875,118.33
17:10:35.062500,110.69
17:10:35.078125,103.16
17:10:35.093750,95.80
17:10:35.109375,88.68
17:10:35.125000,81.83
17:10:35.140625,75.25
17:10:35.156250,68.95
17:10:35.171875,62.95
17:10:35.187500,57.25
17:10:35.203125,51.86
17:10:35.218750,46.78
17:10:35.234375,42.03
17:10:35.250000,37.59
17:10:35.265625,33.45
17:10:35.281250,29.61
17:10:35.296875,26.07
17:10:35.312500,22.81
17:10:35.328125,19.83
17:10:35.343750,17.11
17:10:35.359375,14.67
17:10:35.375000,12.48
17:10:35.390625,10.54
17:10:35.406250,8.83
17:10:35.421875,7.35
17:10:35.437500,6.07
17:10:35.453125,4.97
17:10:35.468750,4.05
17:10:35.484375,3.27
17:10:35.500000,2.62
17:10:35.515625,2.09
17:10:35.531250,1.65
17:10:35.546875,1.30
17:10:35.562500,1.01
17:10:35.578125,0.79
17:10:35.593750,0.61
17:10:35.609375,0.48
17:10:35.625000,0.37
17:10:35.640625,0.29
17:10:35.656250,0.24
17:10:35.671875,0.20
17:10:35.687500,0.18
17:10:35.703125,0.18
17:10:35.718750,0.18
17:10:35.734375,0.19
17:10:35.750000,0.22
17:10:35.765625,0.24
17:10:35.781250,0.28
17:10:35.796875,0.32
17:10:35.812500,0.36
17:10:35.828125,0.40
17:10:35.843750,0.45
17:10:35.859375,0.49
17:10:35.875000,0.54
17:10:35.890625,0.59
17:10:35.906250,0.64
17:10:35.921875,0.70
17:10:35.937500,0.76
17:10:35.953125,0.83
17:10:35.968750,0.89
17:10:35.984375,0.97
17:10:36,1.05
17:10:36.015625,1.15
17:10:36.031250,1.25
17:10:36.046875,1.36
17:10:36.062500,1.50
17:10:36.078125,1.64
17:10:36.093750,1.80
17:10:36.109375,1.99
17:10:36.125000,2.19
17:10:36.140625,2.41
17:10:36.156250,2.67
17:10:36.171875,2.94
17:10:36.187500,3.25
17:10:36.203125,3.58
17:10:36.218750,3.95
17:10:36.234375,4.35
17:10:36.250000,4.79
17:10:36.265625,5.26
17:10:36.281250,5.77
17:10:36.296875,6.32
17:10:36.312500,6.91
17:10:36.328125,7.54
17:10:36.343750,8.22
17:10:36.359375,8.93
17:10:36.375000,9.70
17:10:36.390625,10.51
17:10:36.406250,11.37
17:10:36.421875,12.27
17:10:36.437500,13.22
17:10:36.453125,14.22
17:10:36.468750,15.28
17:10:36.484375,16.41
17:10:36.500000,17.60
17:10:36.515625,18.85
17:10:36.531250,20.14
17:10:36.546875,21.42
17:10:36.562500,22.66
17:10:36.578125,23.74
17:10:36.593750,24.59
17:10:36.609375,25.07
17:10:36.625000,25.08
17:10:36.640625,24.51
17:10:36.656250,23.25
17:10:36.671875,21.26
17:10:36.687500,18.51
17:10:36.703125,15.03
17:10:36.718750,10.89
17:10:36.734375,6.28
17:10:36.750000,1.40
17:10:36.765625,-3.48
17:10:36.781250,-8.13
17:10:36.796875,-12.32
17:10:36.812500,-15.89
17:10:36.828125,-18.76
17:10:36.843750,-20.91
17:10:36.859375,-22.36
17:10:36.875000,-23.13
17:10:36.890625,-23.31
17:10:36.906250,-22.96
17:10:36.921875,-22.13
17:10:36.937500,-20.95
17:10:36.953125,-19.52
17:10:36.968750,-18.01
17:10:36.984375,-16.52
17:10:37,-15.15
17:10:37.015625,-13.90
17:10:37.031250,-12.76
17:10:37.046875,-11.62
17:10:37.062500,-10.41
17:10:37.078125,-9.08
17:10:37.093750,-7.72
17:10:37.109375,-6.49
17:10:37.125000,-5.56
17:10:37.140625,-5.02
17:10:37.156250,-4.82
17:10:37.171875,-4.87
17:10:37.187500,-4.92
17:10:37.203125,-4.70
17:10:37.218750,-4.11
17:10:37.234375,-3.27
17:10:37.250000,-2.54
17:10:37.265625,-2.29
17:10:37.281250,-2.73
17:10:37.296875,-3.81
17:10:37.312500,-5.42
17:10:37.328125,-7.13
17:10:37.343750,-8.48
17:10:37.359375,-9.26
17:10:37.375000,-9.68
17:10:37.390625,-10.32
17:10:37.406250,-11.79
17:10:37.421875,-14.45
17:10:37.437500,-18.16
17:10:37.453125,-22.80
17:10:37.468750,-27.74
17:10:37.484375,-32.27
17:10:37.500000,-35.99
17:10:37.515625,-39.00
17:10:37.531250,-41.79
17:10:37.546875,-45.06
17:10:37.562500,-49.63
17:10:37.578125,-56.28
17:10:37.593750,-66.21
17:10:37.609375,-79.39
17:10:37.625000,-94.39
17:10:37.640625,-108.35
17:10:37.656250,-117.82
17:10:37.671875,-119.97
17:10:37.687500,-113.98
17:10:37.703125,-101.58
17:10:37.718750,-82.54
17:10:37.734375,-60.59
17:10:37.750000,-39.73
17:10:37.765625,-22.62
17:10:37.781250,-9.97
17:10:37.796875,-1.07
17:10:37.812500,5.27
17:10:37.828125,9.89
17:10:37.843750,13.12
17:10:37.859375,15.21
17:10:37.875000,16.06
17:10:37.890625,16.32
17:10:37.906250,16.89
17:10:37.921875,18.30
17:10:37.937500,20.38
17:10:37.953125,22.49
17:10:37.968750,23.83
17:10:37.984375,23.98
17:10:38,23.15
17:10:38.015625,21.46
17:10:38.031250,19.50
17:10:38.046875,17.77
17:10:38.062500,16.41
17:10:38.078125,15.14
17:10:38.093750,13.44
17:10:38.109375,10.80
17:10:38.125000,7.05
17:10:38.140625,2.47
17:10:38.156250,-2.55
17:10:38.171875,-7.20
17:10:38.187500,-10.64
17:10:38.203125,-12.30
17:10:38.218750,-12.10
17:10:38.234375,-10.45
17:10:38.250000,-8.00
17:10:38.265625,-5.35
17:10:38.281250,-2.80
17:10:38.296875,-0.44
17:10:38.312500,1.97
17:10:38.328125,4.69
17:10:38.343750,7.83
17:10:38.359375,11.23
17:10:38.375000,14.51
17:10:38.390625,17.26
17:10:38.406250,19.23
17:10:38.421875,20.37
17:10:38.437500,20.81
17:10:38.453125,20.82
17:10:38.468750,20.64
17:10:38.484375,20.47
17:10:38.500000,20.36
17:10:38.515625,20.28
17:10:38.531250,20.17
17:10:38.546875,19.97
17:10:38.562500,19.60
17:10:38.578125,19.03
17:10:38.593750,18.19
17:10:38.609375,16.96
17:10:38.625000,15.27
17:10:38.640625,13.12
17:10:38.656250,10.62
17:10:38.671875,7.97
17:10:38.687500,5.41
17:10:38.703125,3.11
17:10:38.718750,1.10
17:10:38.734375,-0.68
17:10:38.750000,-2.36
17:10:38.765625,-4.07
17:10:38.781250,-5.92
17:10:38.796875,-8.01
17:10:38.812500,-10.44
17:10:38.828125,-13.34
17:10:38.843750,-16.63
17:10:38.859375,-20.06
17:10:38.875000,-23.17
17:10:38.890625,-25.41
17:10:38.906250,-26.31
17:10:38.921875,-25.69
17:10:38.937500,-23.63
17:10:38.953125,-20.44
17:10:38.968750,-16.49
17:10:38.984375,-12.15
17:10:39,-7.63
17:10:39.015625,-3.09
17:10:39.031250,1.35
17:10:39.046875,5.62
17:10:39.062500,9.63
17:10:39.078125,13.32
17:10:39.093750,16.63
17:10:39.109375,19.52
17:10:39.125000,21.94
17:10:39.140625,23.84
17:10:39.156250,25.19
17:10:39.171875,25.95
17:10:39.187500,26.13
17:10:39.203125,25.78
17:10:39.218750,25.02
17:10:39.234375,24.00
17:10:39.250000,22.87
17:10:39.265625,21.77
17:10:39.281250,20.81
17:10:39.296875,20.02
17:10:39.312500,19.33
17:10:39.328125,18.61
17:10:39.343750,17.69
17:10:39.359375,16.40
17:10:39.375000,14.63
17:10:39.390625,12.36
17:10:39.406250,9.72
17:10:39.421875,6.89
17:10:39.437500,4.10
17:10:39.453125,1.49
17:10:39.468750,-0.86
17:10:39.484375,-3.01
17:10:39.500000,-5.11
17:10:39.515625,-7.32
17:10:39.531250,-9.85
17:10:39.546875,-12.82
17:10:39.562500,-16.26
17:10:39.578125,-20.03
17:10:39.593750,-23.86
17:10:39.609375,-27.32
17:10:39.625000,-29.96
17:10:39.640625,-31.42
17:10:39.656250,-31.45
17:10:39.671875,-30.04
17:10:39.687500,-27.37
17:10:39.703125,-23.81
17:10:39.718750,-19.85
17:10:39.734375,-15.95
17:10:39.750000,-12.39
17:10:39.765625,-9.27
17:10:39.781250,-6.48
17:10:39.796875,-3.84
17:10:39.812500,-1.27
17:10:39.828125,1.16
17:10:39.843750,3.26
17:10:39.859375,4.84
17:10:39.875000,5.87
17:10:39.890625,6.47
17:10:39.906250,6.82
17:10:39.921875,7.06
17:10:39.937500,7.14
17:10:39.953125,6.95
17:10:39.968750,6.37
17:10:39.984375,5.44
17:10:40,4.36
17:10:40.015625,3.40
17:10:40.031250,2.71
17:10:40.046875,2.25
17:10:40.062500,1.76
17:10:40.078125,0.91
17:10:40.093750,-0.61
17:10:40.109375,-2.88
17:10:40.125000,-5.79
17:10:40.140625,-9.08
17:10:40.156250,-12.39
17:10:40.171875,-15.41
17:10:40.187500,-17.92
17:10:40.203125,-19.85
17:10:40.218750,-21.30
17:10:40.234375,-22.52
17:10:40.250000,-23.77
17:10:40.265625,-25.30
17:10:40.281250,-27.22
17:10:40.296875,-29.40
17:10:40.312500,-31.59
17:10:40.328125,-33.44
17:10:40.343750,-34.70
17:10:40.359375,-35.25
17:10:40.375000,-35.10
17:10:40.390625,-34.38
17:10:40.406250,-33.16
17:10:40.421875,-31.49
17:10:40.437500,-29.32
17:10:40.453125,-26.53
17:10:40.468750,-22.91
17:10:40.484375,-18.09
17:10:40.500000,-11.72
17:10:40.515625,-3.52
17:10:40.531250,6.41
17:10:40.546875,17.51
17:10:40.562500,28.78
17:10:40.578125,39.08
17:10:40.593750,47.52
17:10:40.609375,53.72
17:10:40.625000,57.88
17:10:40.640625,60.57
17:10:40.656250,62.34
17:10:40.671875,63.49
17:10:40.687500,64.01
17:10:40.703125,63.69
17:10:40.718750,62.40
17:10:40.734375,60.13
17:10:40.750000,57.06
17:10:40.765625,53.38
17:10:40.781250,49.16
17:10:40.796875,44.34
17:10:40.812500,38.85
17:10:40.828125,32.83
17:10:40.843750,26.66
17:10:40.859375,20.98
17:10:40.875000,16.45
17:10:40.890625,13.48
17:10:40.906250,12.07
17:10:40.921875,11.78
17:10:40.937500,11.95
17:10:40.953125,11.92
17:10:40.968750,11.34
17:10:40.984375,10.13
17:10:41,8.54
17:10:41.015625,6.85
17:10:41.031250,5.31
17:10:41.046875,4.00
17:10:41.062500,2.92
17:10:41.078125,1.98
17:10:41.093750,1.16
17:10:41.109375,0.51
17:10:41.125000,0.17
17:10:41.140625,0.29
17:10:41.156250,0.99
17:10:41.171875,2.30
17:10:41.187500,4.19
17:10:41.203125,6.62
17:10:41.218750,9.54
17:10:41.234375,12.94
17:10:41.250000,16.81
17:10:41.265625,21.05
17:10:41.281250,25.53
17:10:41.296875,30.06
17:10:41.312500,34.36
17:10:41.328125,38.20
17:10:41.343750,41.37
17:10:41.359375,43.74
17:10:41.375000,45.23
17:10:41.390625,45.74
17:10:41.406250,45.13
17:10:41.421875,43.26
17:10:41.437500,40.06
17:10:41.453125,35.65
17:10:41.468750,30.39
17:10:41.484375,24.85
17:10:41.500000,19.68
17:10:41.515625,15.37
17:10:41.531250,12.08
17:10:41.546875,9.63
17:10:41.562500,7.60
17:10:41.578125,5.58
17:10:41.593750,3.31
17:10:41.609375,0.80
17:10:41.625000,-1.81
17:10:41.640625,-4.32
17:10:41.656250,-6.63
17:10:41.671875,-8.76
17:10:41.687500,-10.84
17:10:41.703125,-12.99
17:10:41.718750,-15.22
17:10:41.734375,-17.43
17:10:41.750000,-19.38
17:10:41.765625,-20.79
17:10:41.781250,-21.44
17:10:41.796875,-21.22
17:10:41.812500,-20.18
17:10:41.828125,-18.41
17:10:41.843750,-16.04
17:10:41.859375,-13.18
17:10:41.875000,-9.96
17:10:41.890625,-6.51
17:10:41.906250,-3.04
17:10:41.921875,0.23
17:10:41.937500,3.16
17:10:41.953125,5.67
17:10:41.968750,7.90
17:10:41.984375,10.01
17:10:42,12.09
17:10:42.015625,14.10
17:10:42.031250,15.84
17:10:42.046875,17.08
17:10:42.062500,17.66
17:10:42.078125,17.57
17:10:42.093750,16.92
17:10:42.109375,15.91
17:10:42.125000,14.73
17:10:42.140625,13.54
17:10:42.156250,12.42
17:10:42.171875,11.47
17:10:42.187500,10.74
17:10:42.203125,10.26
17:10:42.218750,10.00
17:10:42.234375,9.85
17:10:42.250000,9.60
17:10:42.265625,9.03
17:10:42.281250,7.97
17:10:42.296875,6.36
17:10:42.312500,4.32
17:10:42.328125,2.06
17:10:42.343750,-0.14
17:10:42.359375,-2.10
17:10:42.375000,-3.73
17:10:42.390625,-5.04
17:10:42.406250,-6.12
17:10:42.421875,-7.09
17:10:42.437500,-8.01
17:10:42.453125,-8.97
17:10:42.468750,-10.02
17:10:42.484375,-11.20
17:10:42.500000,-12.56
17:10:42.515625,-13.99
17:10:42.531250,-15.33
17:10:42.546875,-16.29
17:10:42.562500,-16.58
17:10:42.578125,-16.02
17:10:42.593750,-14.55
17:10:42.609375,-12.29
17:10:42.625000,-9.45
17:10:42.640625,-6.27
17:10:42.656250,-2.91
17:10:42.671875,0.52
17:10:42.687500,3.97
17:10:42.703125,7.35
17:10:42.718750,10.52
17:10:42.734375,13.31
17:10:42.750000,15.53
17:10:42.765625,17.12
17:10:42.781250,18.09
17:10:42.796875,18.55
17:10:42.812500,18.64
17:10:42.828125,18.51
17:10:42.843750,18.28
17:10:42.859375,18.05
17:10:42.875000,17.88
17:10:42.890625,17.78
17:10:42.906250,17.73
17:10:42.921875,17.64
17:10:42.937500,17.43
17:10:42.953125,17.07
17:10:42.968750,16.60
17:10:42.984375,16.10
17:10:43,15.58
17:10:43.015625,15.01
17:10:43.031250,14.25
17:10:43.046875,13.18
17:10:43.062500,11.79
17:10:43.078125,10.19
17:10:43.093750,8.58
17:10:43.109375,7.18
17:10:43.125000,6.05
17:10:43.140625,5.11
17:10:43.156250,4.16
17:10:43.171875,3.05
17:10:43.187500,1.70
17:10:43.203125,0.21
17:10:43.218750,-1.27
17:10:43.234375,-2.56
17:10:43.250000,-3.61
17:10:43.265625,-4.43
17:10:43.281250,-5.10
17:10:43.296875,-5.67
17:10:43.312500,-6.14
17:10:43.328125,-6.45
17:10:43.343750,-6.50
17:10:43.359375,-6.21
17:10:43.375000,-5.53
17:10:43.390625,-4.48
17:10:43.406250,-3.16
17:10:43.421875,-1.79
17:10:43.437500,-0.57
17:10:43.453125,0.33
17:10:43.468750,0.88
17:10:43.484375,1.22
17:10:43.500000,1.61
17:10:43.515625,2.35
17:10:43.531250,3.64
17:10:43.546875,5.57
17:10:43.562500,8.06
17:10:43.578125,10.93
17:10:43.593750,13.89
17:10:43.609375,16.52
17:10:43.625000,18.37
17:10:43.640625,19.00
17:10:43.656250,18.16
17:10:43.671875,15.90
17:10:43.687500,12.61
17:10:43.703125,8.89
17:10:43.718750,5.31
17:10:43.734375,2.27
17:10:43.750000,-0.13
17:10:43.765625,-2.06
17:10:43.781250,-3.73
17:10:43.796875,-5.31
17:10:43.812500,-6.77
17:10:43.828125,-8.05
17:10:43.843750,-9.02
17:10:43.859375,-9.64
17:10:43.875000,-9.91
17:10:43.890625,-9.86
17:10:43.906250,-9.49
17:10:43.921875,-8.74
17:10:43.937500,-7.64
17:10:43.953125,-6.28
17:10:43.968750,-4.93
17:10:43.984375,-3.96
17:10:44,-3.73
17:10:44.015625,-4.45
17:10:44.031250,-6.06
17:10:44.046875,-8.24
17:10:44.062500,-10.48
17:10:44.078125,-12.28
17:10:44.093750,-13.24
17:10:44.109375,-13.23
17:10:44.125000,-12.33
17:10:44.140625,-10.74
17:10:44.156250,-8.70
17:10:44.171875,-6.41
17:10:44.187500,-3.93
17:10:44.203125,-1.31
17:10:44.218750,1.47
17:10:44.234375,4.38
17:10:44.250000,7.32
17:10:44.265625,10.13
17:10:44.281250,12.53
17:10:44.296875,14.30
17:10:44.312500,15.23
17:10:44.328125,15.24
17:10:44.343750,14.41
17:10:44.359375,12.89
17:10:44.375000,10.98
17:10:44.390625,8.92
17:10:44.406250,6.93
17:10:44.421875,5.14
17:10:44.437500,3.60
17:10:44.453125,2.35
17:10:44.468750,1.43
17:10:44.484375,0.92
17:10:44.500000,0.88
17:10:44.515625,1.29
17:10:44.531250,1.97
17:10:44.546875,2.62
17:10:44.562500,2.89
17:10:44.578125,2.54
17:10:44.593750,1.55
17:10:44.609375,0.13
17:10:44.625000,-1.38
17:10:44.640625,-2.67
17:10:44.656250,-3.63
17:10:44.671875,-4.34
17:10:44.687500,-5.01
17:10:44.703125,-5.85
17:10:44.718750,-6.98
17:10:44.734375,-8.38
17:10:44.750000,-9.90
17:10:44.765625,-11.34
17:10:44.781250,-12.48
17:10:44.796875,-13.18
17:10:44.812500,-13.35
17:10:44.828125,-12.95
17:10:44.843750,-12.03
17:10:44.859375,-10.63
17:10:44.875000,-8.84
17:10:44.890625,-6.80
17:10:44.906250,-4.65
17:10:44.921875,-2.54
17:10:44.937500,-0.57
17:10:44.953125,1.24
17:10:44.968750,2.95
17:10:44.984375,4.58
17:10:45,6.11
17:10:45.015625,7.39
17:10:45.031250,8.24
17:10:45.046875,8.53
17:10:45.062500,8.27
17:10:45.078125,7.63
17:10:45.093750,6.87
17:10:45.109375,6.21
17:10:45.125000,5.73
17:10:45.140625,5.40
17:10:45.156250,5.07
17:10:45.171875,4.60
17:10:45.187500,3.91
17:10:45.203125,3.01
17:10:45.218750,1.97
17:10:45.234375,0.91
17:10:45.250000,-0.06
17:10:45.265625,-0.84
17:10:45.281250,-1.38
17:10:45.296875,-1.70
17:10:45.312500,-1.81
17:10:45.328125,-1.82
17:10:45.343750,-1.81
17:10:45.359375,-1.87
17:10:45.375000,-2.06
17:10:45.390625,-2.41
17:10:45.406250,-2.85
17:10:45.421875,-3.37
17:10:45.437500,-3.94
17:10:45.453125,-4.56
17:10:45.468750,-5.27
17:10:45.484375,-6.12
17:10:45.500000,-7.08
17:10:45.515625,-8.10
17:10:45.531250,-9.07
17:10:45.546875,-9.85
17:10:45.562500,-10.33
17:10:45.578125,-10.40
17:10:45.593750,-9.99
17:10:45.609375,-9.07
17:10:45.625000,-7.66
17:10:45.640625,-5.87
17:10:45.656250,-3.85
17:10:45.671875,-1.76
17:10:45.687500,0.28
17:10:45.703125,2.18
17:10:45.718750,3.92
17:10:45.734375,5.47
17:10:45.750000,6.77
17:10:45.765625,7.73
17:10:45.781250,8.28
17:10:45.796875,8.37
17:10:45.812500,8.03
17:10:45.828125,7.38
17:10:45.843750,6.62
17:10:45.859375,5.94
17:10:45.875000,5.45
17:10:45.890625,5.18
17:10:45.906250,5.06
17:10:45.921875,4.93
17:10:45.937500,4.70
17:10:45.953125,4.33
17:10:45.968750,3.96
17:10:45.984375,3.75
17:10:46,3.87
17:10:46.015625,4.36
17:10:46.031250,5.13
17:10:46.046875,5.95
17:10:46.062500,6.54
17:10:46.078125,6.61
17:10:46.093750,5.94
17:10:46.109375,4.41
17:10:46.125000,2.06
17:10:46.140625,-0.96
17:10:46.156250,-4.36
17:10:46.171875,-7.83
17:10:46.187500,-11.07
17:10:46.203125,-13.85
17:10:46.218750,-16.00
17:10:46.234375,-17.40
17:10:46.250000,-17.99
17:10:46.265625,-17.74
17:10:46.281250,-16.69
17:10:46.296875,-14.98
17:10:46.312500,-12.75
17:10:46.328125,-10.20
17:10:46.343750,-7.47
17:10:46.359375,-4.70
17:10:46.375000,-2.01
17:10:46.390625,0.48
17:10:46.406250,2.59
17:10:46.421875,4.15
17:10:46.437500,4.99
17:10:46.453125,5.10
17:10:46.468750,4.56
17:10:46.484375,3.61
17:10:46.500000,2.55
17:10:46.515625,1.68
17:10:46.531250,1.18
17:10:46.546875,1.11
17:10:46.562500,1.39
17:10:46.578125,1.85
17:10:46.593750,2.37
17:10:46.609375,2.89
17:10:46.625000,3.48
17:10:46.640625,4.22
17:10:46.656250,5.17
17:10:46.671875,6.25
17:10:46.687500,7.29
17:10:46.703125,8.05
17:10:46.718750,8.33
17:10:46.734375,8.04
17:10:46.750000,7.19
17:10:46.765625,5.92
17:10:46.781250,4.30
17:10:46.796875,2.44
17:10:46.812500,0.38
17:10:46.828125,-1.84
17:10:46.843750,-4.06
17:10:46.859375,-6.09
17:10:46.875000,-7.65
17:10:46.890625,-8.55
17:10:46.906250,-8.73
17:10:46.921875,-8.34
17:10:46.937500,-7.64
17:10:46.953125,-6.91
17:10:46.968750,-6.37
17:10:46.984375,-6.04
17:10:47,-5.83
17:10:47.015625,-5.64
17:10:47.031250,-5.46
17:10:47.046875,-5.37
17:10:47.062500,-5.48
17:10:47.078125,-5.85
17:10:47.093750,-6.39
17:10:47.109375,-6.94
17:10:47.125000,-7.32
17:10:47.140625,-7.47
17:10:47.156250,-7.38
17:10:47.171875,-7.08
17:10:47.187500,-6.55
17:10:47.203125,-5.68
17:10:47.218750,-4.36
17:10:47.234375,-2.57
17:10:47.250000,-0.42
17:10:47.265625,1.83
17:10:47.281250,3.93
17:10:47.296875,5.65
17:10:47.312500,6.92
17:10:47.328125,7.75
17:10:47.343750,8.17
17:10:47.359375,8.19
17:10:47.375000,7.80
17:10:47.390625,7.01
17:10:47.406250,5.86
17:10:47.421875,4.47
17:10:47.437500,3.01
17:10:47.453125,1.68
17:10:47.468750,0.60
17:10:47.484375,-0.12
17:10:47.500000,-0.51
17:10:47.515625,-0.62
17:10:47.531250,-0.53
17:10:47.546875,-0.34
17:10:47.562500,-0.11
17:10:47.578125,0.11
17:10:47.593750,0.30
17:10:47.609375,0.47
17:10:47.625000,0.64
17:10:47.640625,0.78
17:10:47.656250,0.86
17:10:47.671875,0.83
17:10:47.687500,0.61
17:10:47.703125,0.16
17:10:47.718750,-0.54
17:10:47.734375,-1.43
17:10:47.750000,-2.44
17:10:47.765625,-3.48
17:10:47.781250,-4.49
17:10:47.796875,-5.42
17:10:47.812500,-6.21
17:10:47.828125,-6.78
17:10:47.843750,-7.00
17:10:47.859375,-6.77
17:10:47.875000,-6.08
17:10:47.890625,-5.05
17:10:47.906250,-3.90
17:10:47.921875,-2.85
17:10:47.937500,-2.03
17:10:47.953125,-1.43
17:10:47.968750,-0.89
17:10:47.984375,-0.25
17:10:48,0.58
17:10:48.015625,1.54
17:10:48.031250,2.47
17:10:48.046875,3.22
17:10:48.062500,3.64
17:10:48.078125,3.76
17:10:48.093750,3.62
17:10:48.109375,3.34
17:10:48.125000,2.99
17:10:48.140625,2.57
17:10:48.156250,2.08
17:10:48.171875,1.47
17:10:48.187500,0.72
17:10:48.203125,-0.13
17:10:48.218750,-1.00
17:10:48.234375,-1.79
17:10:48.250000,-2.41
17:10:48.265625,-2.87
17:10:48.281250,-3.21
17:10:48.296875,-3.52
17:10:48.312500,-3.86
17:10:48.328125,-4.24
17:10:48.343750,-4.63
17:10:48.359375,-4.93
17:10:48.375000,-5.11
17:10:48.390625,-5.17
17:10:48.406250,-5.20
17:10:48.421875,-5.28
17:10:48.437500,-5.51
17:10:48.453125,-5.90
17:10:48.468750,-6.42
17:10:48.484375,-7.03
17:10:48.500000,-7.68
17:10:48.515625,-8.37
17:10:48.531250,-9.08
17:10:48.546875,-9.73
17:10:48.562500,-10.18
17:10:48.578125,-10.22
17:10:48.593750,-9.69
17:10:48.609375,-8.52
17:10:48.625000,-6.80
17:10:48.640625,-4.80
17:10:48.656250,-2.84
17:10:48.671875,-1.15
17:10:48.687500,0.17
17:10:48.703125,1.20
17:10:48.718750,2.12
17:10:48.734375,3.05
17:10:48.750000,4.03
17:10:48.765625,4.94
17:10:48.781250,5.63
17:10:48.796875,6.03
17:10:48.812500,6.11
17:10:48.828125,5.98
17:10:48.843750,5.75
17:10:48.859375,5.47
17:10:48.875000,5.13
17:10:48.890625,4.70
17:10:48.906250,4.17
17:10:48.921875,3.61
17:10:48.937500,3.10
17:10:48.953125,2.73
17:10:48.968750,2.55
17:10:48.984375,2.55
17:10:49,2.68
17:10:49.015625,2.88
17:10:49.031250,3.06
17:10:49.046875,3.10
17:10:49.062500,2.91
17:10:49.078125,2.43
17:10:49.093750,1.72
17:10:49.109375,0.87
17:10:49.125000,0.04
17:10:49.140625,-0.68
17:10:49.156250,-1.25
17:10:49.171875,-1.73
17:10:49.187500,-2.19
17:10:49.203125,-2.67
17:10:49.218750,-3.20
17:10:49.234375,-3.77
17:10:49.250000,-4.39
17:10:49.265625,-5.06
17:10:49.281250,-5.77
17:10:49.296875,-6.39
17:10:49.312500,-6.72
17:10:49.328125,-6.53
17:10:49.343750,-5.66
17:10:49.359375,-4.12
17:10:49.375000,-2.10
17:10:49.390625,0.10
17:10:49.406250,2.16
17:10:49.421875,3.96
17:10:49.437500,5.51
17:10:49.453125,6.97
17:10:49.468750,8.51
17:10:49.484375,10.26
17:10:49.500000,12.24
17:10:49.515625,14.38
17:10:49.531250,16.55
17:10:49.546875,18.67
17:10:49.562500,20.65
17:10:49.578125,22.49
17:10:49.593750,24.25
17:10:49.609375,26.01
17:10:49.625000,27.86
17:10:49.640625,29.77
17:10:49.656250,31.60
17:10:49.671875,33.11
17:10:49.687500,34.05
17:10:49.703125,34.32
17:10:49.718750,33.98
17:10:49.734375,33.24
17:10:49.750000,32.34
17:10:49.765625,31.37
17:10:49.781250,30.21
17:10:49.796875,28.59
17:10:49.812500,26.20
17:10:49.828125,22.93
17:10:49.843750,18.86
17:10:49.859375,14.28
17:10:49.875000,9.54
17:10:49.890625,5.00
17:10:49.906250,0.94
17:10:49.921875,-2.43
17:10:49.937500,-4.93
17:10:49.953125,-6.49
17:10:49.968750,-7.17
17:10:49.984375,-7.21
17:10:50,-7.13
17:10:50.015625,-7.61
17:10:50.031250,-9.28
17:10:50.046875,-12.43
17:10:50.062500,-16.82
17:10:50.078125,-21.60
17:10:50.093750,-25.56
17:10:50.109375,-27.56
17:10:50.125000,-27.03
17:10:50.140625,-24.14
17:10:50.156250,-19.79
17:10:50.171875,-15.19
17:10:50.187500,-11.34
17:10:50.203125,-8.65
17:10:50.218750,-6.83
17:10:50.234375,-5.16
17:10:50.250000,-2.84
17:10:50.265625,0.62
17:10:50.281250,5.25
17:10:50.296875,10.61
17:10:50.312500,15.96
17:10:50.328125,20.52
17:10:50.343750,23.58
17:10:50.359375,24.78
17:10:50.375000,24.17
17:10:50.390625,22.29
17:10:50.406250,20.09
17:10:50.421875,18.75
17:10:50.437500,19.35
17:10:50.453125,22.37
17:10:50.468750,27.43
17:10:50.484375,33.27
17:10:50.500000,38.03
17:10:50.515625,39.87
17:10:50.531250,37.52
17:10:50.546875,30.75
17:10:50.562500,20.33
17:10:50.578125,7.72
17:10:50.593750,-5.40
17:10:50.609375,-17.63
17:10:50.625000,-28.02
17:10:50.640625,-36.13
17:10:50.656250,-41.89
17:10:50.671875,-45.51
17:10:50.687500,-47.38
17:10:50.703125,-47.99
17:10:50.718750,-47.86
17:10:50.734375,-47.29
17:10:50.750000,-46.31
17:10:50.765625,-44.69
17:10:50.781250,-42.13
17:10:50.796875,-38.43
17:10:50.812500,-33.71
17:10:50.828125,-28.39
17:10:50.843750,-23.00
17:10:50.859375,-18.06
17:10:50.875000,-13.86
17:10:50.890625,-10.50
17:10:50.906250,-7.92
17:10:50.921875,-6.05
17:10:50.937500,-4.84
17:10:50.953125,-4.28
17:10:50.968750,-4.37
17:10:50.984375,-5.11
17:10:51,-6.49
17:10:51.015625,-8.47
17:10:51.031250,-10.90
17:10:51.046875,-13.50
17:10:51.062500,-15.86
17:10:51.078125,-17.61
17:10:51.093750,-18.51
17:10:51.109375,-18.55
17:10:51.125000,-17.86
17:10:51.140625,-16.61
17:10:51.156250,-14.84
17:10:51.171875,-12.54
17:10:51.187500,-9.69
17:10:51.203125,-6.43
17:10:51.218750,-3.03
17:10:51.234375,0.18
17:10:51.250000,2.95
17:10:51.265625,5.31
17:10:51.281250,7.43
17:10:51.296875,9.53
17:10:51.312500,11.73
17:10:51.328125,13.97
17:10:51.343750,16.11
17:10:51.359375,18.01
17:10:51.375000,19.74
17:10:51.390625,21.45
17:10:51.406250,23.33
17:10:51.421875,25.38
17:10:51.437500,27.40
17:10:51.453125,29.07
17:10:51.468750,30.12
17:10:51.484375,30.47
17:10:51.500000,30.26
17:10:51.515625,29.75
17:10:51.531250,29.24
17:10:51.546875,28.96
17:10:51.562500,29.03
17:10:51.578125,29.60
17:10:51.593750,30.70
17:10:51.609375,32.25
17:10:51.625000,33.90
17:10:51.640625,35.02
17:10:51.656250,34.90
17:10:51.671875,33.02
17:10:51.687500,29.42
17:10:51.703125,24.74
17:10:51.718750,20.01
17:10:51.734375,16.24
17:10:51.750000,14.02
17:10:51.765625,13.31
17:10:51.781250,13.62
17:10:51.796875,14.32
17:10:51.812500,15.04
17:10:51.828125,15.82
17:10:51.843750,16.86
17:10:51.859375,18.27
17:10:51.875000,19.74
17:10:51.890625,20.56
17:10:51.906250,19.88
17:10:51.921875,16.97
17:10:51.937500,11.50
17:10:51.953125,3.57
17:10:51.968750,-6.42
17:10:51.984375,-17.95
17:10:52,-30.44
17:10:52.015625,-43.26
17:10:52.031250,-55.71
17:10:52.046875,-67.03
17:10:52.062500,-76.46
17:10:52.078125,-83.42
17:10:52.093750,-87.66
17:10:52.109375,-89.34
17:10:52.125000,-88.99
17:10:52.140625,-87.32
17:10:52.156250,-84.94
17:10:52.171875,-82.22
17:10:52.187500,-79.14
17:10:52.203125,-75.39
17:10:52.218750,-70.62
17:10:52.234375,-64.67
17:10:52.250000,-57.72
17:10:52.265625,-50.24
17:10:52.281250,-42.81
17:10:52.296875,-35.95
17:10:52.312500,-30.03
17:10:52.328125,-25.25
17:10:52.343750,-21.66
17:10:52.359375,-19.17
17:10:52.375000,-17.52
17:10:52.390625,-16.36
17:10:52.406250,-15.23
17:10:52.421875,-13.81
17:10:52.437500,-12.01
17:10:52.453125,-9.95
17:10:52.468750,-7.89
17:10:52.484375,-6.07
17:10:52.500000,-4.57
17:10:52.515625,-3.34
17:10:52.531250,-2.22
17:10:52.546875,-1.10
17:10:52.562500,0.05
17:10:52.578125,1.09
17:10:52.593750,1.77
17:10:52.609375,1.78
17:10:52.625000,0.78
17:10:52.640625,-1.38
17:10:52.656250,-4.63
17:10:52.671875,-8.60
17:10:52.687500,-12.63
17:10:52.703125,-15.91
17:10:52.718750,-17.75
17:10:52.734375,-17.80
17:10:52.750000,-16.19
17:10:52.765625,-13.53
17:10:52.781250,-10.80
17:10:52.796875,-8.99
17:10:52.812500,-8.87
17:10:52.828125,-10.71
17:10:52.843750,-14.27
17:10:52.859375,-18.82
17:10:52.875000,-23.46
17:10:52.890625,-27.33
17:10:52.906250,-29.77
17:10:52.921875,-30.46
17:10:52.937500,-29.38
17:10:52.953125,-26.75
17:10:52.968750,-23.05
17:10:52.984375,-18.87
17:10:53,-14.87
17:10:53.015625,-11.60
17:10:53.031250,-9.36
17:10:53.046875,-8.13
17:10:53.062500,-7.62
17:10:53.078125,-7.38
17:10:53.093750,-7.01
17:10:53.109375,-6.30
17:10:53.125000,-5.30
17:10:53.140625,-4.18
17:10:53.156250,-3.17
17:10:53.171875,-2.39
17:10:53.187500,-1.88
17:10:53.203125,-1.54
17:10:53.218750,-1.23
17:10:53.234375,-0.81
17:10:53.250000,-0.17
17:10:53.265625,0.70
17:10:53.281250,1.72
17:10:53.296875,2.77
17:10:53.312500,3.72
17:10:53.328125,4.48
17:10:53.343750,4.99
17:10:53.359375,5.29
17:10:53.375000,5.42
17:10:53.390625,5.44
17:10:53.406250,5.33
17:10:53.421875,5.09
17:10:53.437500,4.74
17:10:53.453125,4.36
17:10:53.468750,4.09
17:10:53.484375,4.11
17:10:53.500000,4.52
17:10:53.515625,5.25
17:10:53.531250,6.07
17:10:53.546875,6.62
17:10:53.562500,6.58
17:10:53.578125,5.74
17:10:53.593750,4.09
17:10:53.609375,1.82
17:10:53.625000,-0.79
17:10:53.640625,-3.46
17:10:53.656250,-5.92
17:10:53.671875,-7.97
17:10:53.687500,-9.40
17:10:53.703125,-10.02
17:10:53.718750,-9.71
17:10:53.734375,-8.41
17:10:53.750000,-6.30
17:10:53.765625,-3.64
17:10:53.781250,-0.83
17:10:53.796875,1.76
17:10:53.812500,3.81
17:10:53.828125,5.11
17:10:53.843750,5.59
17:10:53.859375,5.27
17:10:53.875000,4.27
17:10:53.890625,2.82
17:10:53.906250,1.21
17:10:53.921875,-0.24
17:10:53.937500,-1.19
17:10:53.953125,-1.44
17:10:53.968750,-0.91
17:10:53.984375,0.25
17:10:54,1.83
17:10:54.015625,3.56
17:10:54.031250,5.23
17:10:54.046875,6.67
17:10:54.062500,7.78
17:10:54.078125,8.50
17:10:54.093750,8.73
17:10:54.109375,8.44
17:10:54.125000,7.61
17:10:54.140625,6.31
17:10:54.156250,4.66
17:10:54.171875,2.79
17:10:54.187500,0.85
17:10:54.203125,-0.96
17:10:54.218750,-2.47
17:10:54.234375,-3.50
17:10:54.250000,-3.89
17:10:54.265625,-3.62
17:10:54.281250,-2.83
17:10:54.296875,-1.79
17:10:54.312500,-0.79
17:10:54.328125,-0.02
17:10:54.343750,0.51
17:10:54.359375,0.98
17:10:54.375000,1.65
17:10:54.390625,2.67
17:10:54.406250,4.01
17:10:54.421875,5.51
17:10:54.437500,6.96
17:10:54.453125,8.25
17:10:54.468750,9.42
17:10:54.484375,10.62
17:10:54.500000,11.95
17:10:54.515625,13.41
17:10:54.531250,14.85
17:10:54.546875,16.03
17:10:54.562500,16.77
17:10:54.578125,16.98
17:10:54.593750,16.70
17:10:54.609375,16.03
17:10:54.625000,15.12
17:10:54.640625,14.09
17:10:54.656250,13.03
17:10:54.671875,11.93
17:10:54.687500,10.67
17:10:54.703125,9.11
17:10:54.718750,7.13
17:10:54.734375,4.79
17:10:54.750000,2.33
17:10:54.765625,0.12
17:10:54.781250,-1.45
17:10:54.796875,-2.10
17:10:54.812500,-1.76
17:10:54.828125,-0.60
17:10:54.843750,1.06
17:10:54.859375,2.75
17:10:54.875000,4.00
17:10:54.890625,4.43
17:10:54.906250,3.88
17:10:54.921875,2.46
17:10:54.937500,0.53
17:10:54.953125,-1.38
17:10:54.968750,-2.81
17:10:54.984375,-3.46
17:10:55,-3.37
17:10:55.015625,-2.77
17:10:55.031250,-1.97
17:10:55.046875,-1.23
17:10:55.062500,-0.68
17:10:55.078125,-0.29
17:10:55.093750,-0.02
17:10:55.109375,0.17
17:10:55.125000,0.21
17:10:55.140625,0.02
17:10:55.156250,-0.44
17:10:55.171875,-1.02
17:10:55.187500,-1.45
17:10:55.203125,-1.44
17:10:55.218750,-0.78
17:10:55.234375,0.46
17:10:55.250000,2.04
17:10:55.265625,3.57
17:10:55.281250,4.75
17:10:55.296875,5.39
17:10:55.312500,5.55
17:10:55.328125,5.37
17:10:55.343750,5.08
17:10:55.359375,4.83
17:10:55.375000,4.75
17:10:55.390625,4.93
17:10:55.406250,5.40
17:10:55.421875,6.17
17:10:55.437500,7.12
17:10:55.453125,8.04
17:10:55.468750,8.70
17:10:55.484375,8.89
17:10:55.500000,8.53
17:10:55.515625,7.68
17:10:55.531250,6.56
17:10:55.546875,5.38
17:10:55.562500,4.34
17:10:55.578125,3.50
17:10:55.593750,2.86
17:10:55.609375,2.39
17:10:55.625000,2.08
17:10:55.640625,1.93
17:10:55.656250,1.90
17:10:55.671875,1.88
17:10:55.687500,1.68
17:10:55.703125,1.13
17:10:55.718750,0.19
17:10:55.734375,-1.01
17:10:55.750000,-2.25
17:10:55.765625,-3.29
17:10:55.781250,-4.00
17:10:55.796875,-4.34
17:10:55.812500,-4.36
17:10:55.828125,-4.08
17:10:55.843750,-3.41
17:10:55.859375,-2.23
17:10:55.875000,-0.49
17:10:55.890625,1.74
17:10:55.906250,4.29
17:10:55.921875,6.87
17:10:55.937500,9.26
17:10:55.953125,11.35
17:10:55.968750,13.07
17:10:55.984375,14.36
17:10:56,15.17
17:10:56.015625,15.45
17:10:56.031250,15.22
17:10:56.046875,14.62
17:10:56.062500,13.85
17:10:56.078125,13.12
17:10:56.093750,12.60
17:10:56.109375,12.32
17:10:56.125000,12.27
17:10:56.140625,12.40
17:10:56.156250,12.67
17:10:56.171875,13.02
17:10:56.187500,13.38
17:10:56.203125,13.62
17:10:56.218750,13.56
17:10:56.234375,13.08
17:10:56.250000,12.10
17:10:56.265625,10.64
17:10:56.281250,8.78
17:10:56.296875,6.62
17:10:56.312500,4.21
17:10:56.328125,1.64
17:10:56.343750,-1.08
17:10:56.359375,-3.97
17:10:56.375000,-7.06
17:10:56.390625,-10.35
17:10:56.406250,-13.77
17:10:56.421875,-17.13
17:10:56.437500,-20.07
17:10:56.453125,-22.15
17:10:56.468750,-22.94
17:10:56.484375,-22.22
17:10:56.500000,-20.05
17:10:56.515625,-16.80
17:10:56.531250,-13.04
17:10:56.546875,-9.30
17:10:56.562500,-5.93
17:10:56.578125,-2.95
17:10:56.593750,-0.11
17:10:56.609375,2.97
17:10:56.625000,6.58
17:10:56.640625,10.84
17:10:56.656250,15.62
17:10:56.671875,20.64
17:10:56.687500,25.65
17:10:56.703125,30.51
17:10:56.718750,35.24
17:10:56.734375,39.92
17:10:56.750000,44.56
17:10:56.765625,49.02
17:10:56.781250,53.08
17:10:56.796875,56.51
17:10:56.812500,59.27
17:10:56.828125,61.49
17:10:56.843750,63.52
17:10:56.859375,65.71
17:10:56.875000,68.30
17:10:56.890625,71.37
17:10:56.906250,74.82
17:10:56.921875,78.44
17:10:56.937500,81.98
17:10:56.953125,85.12
17:10:56.968750,87.44
17:10:56.984375,88.36
17:10:57,87.30
17:10:57.015625,83.81
17:10:57.031250,77.85
17:10:57.046875,69.97
17:10:57.062500,61.24
17:10:57.078125,52.96
17:10:57.093750,46.29
17:10:57.109375,41.79
17:10:57.125000,39.37
17:10:57.140625,38.44
17:10:57.156250,38.28
17:10:57.171875,38.39
17:10:57.187500,38.65
17:10:57.203125,39.23
17:10:57.218750,40.43
17:10:57.234375,42.62
17:10:57.250000,46.08
17:10:57.265625,51.14
17:10:57.281250,58.06
17:10:57.296875,66.84
17:10:57.312500,77.08
17:10:57.328125,87.99
17:10:57.343750,98.68
17:10:57.359375,108.58
17:10:57.375000,117.68
17:10:57.390625,126.47
17:10:57.406250,135.56
17:10:57.421875,145.21
17:10:57.437500,155.03
17:10:57.453125,164.13
17:10:57.468750,171.45
17:10:57.484375,176.13
17:10:57.500000,177.75
17:10:57.515625,176.30
17:10:57.531250,172.07
17:10:57.546875,165.54
17:10:57.562500,157.29
17:10:57.578125,148.00
17:10:57.593750,138.25
17:10:57.609375,128.35
17:10:57.625000,118.33
17:10:57.640625,108.06
17:10:57.656250,97.57
17:10:57.671875,87.40
17:10:57.687500,78.57
17:10:57.703125,72.48
17:10:57.718750,70.26
17:10:57.734375,72.28
17:10:57.750000,77.66
17:10:57.765625,84.33
17:10:57.781250,89.49
17:10:57.796875,90.37
17:10:57.812500,85.12
17:10:57.828125,73.23
17:10:57.843750,55.70
17:10:57.859375,34.57
17:10:57.875000,12.21
17:10:57.890625,-9.41
17:10:57.906250,-29.12
17:10:57.921875,-46.55
17:10:57.937500,-61.91
17:10:57.953125,-75.51
17:10:57.968750,-87.46
17:10:57.984375,-97.62
17:10:58,-105.61
17:10:58.015625,-110.98
17:10:58.031250,-113.54
17:10:58.046875,-113.46
17:10:58.062500,-111.36
17:10:58.078125,-108.06
17:10:58.093750,-104.22
17:10:58.109375,-100.05
17:10:58.125000,-95.30
17:10:58.140625,-89.49
17:10:58.156250,-82.53
17:10:58.171875,-75.02
17:10:58.187500,-68.34
17:10:58.203125,-64.14
17:10:58.218750,-63.70
17:10:58.234375,-67.31
17:10:58.250000,-74.25
17:10:58.265625,-83.12
17:10:58.281250,-92.48
17:10:58.296875,-101.27
17:10:58.312500,-109.07
17:10:58.328125,-115.81
17:10:58.343750,-121.56
17:10:58.359375,-126.17
17:10:58.375000,-129.28
17:10:58.390625,-130.37
17:10:58.406250,-129.02
17:10:58.421875,-125.07
17:10:58.437500,-118.72
17:10:58.453125,-110.59
17:10:58.468750,-101.56
17:10:58.484375,-92.68
17:10:58.500000,-84.78
17:10:58.515625,-78.38
17:10:58.531250,-73.50
17:10:58.546875,-69.75
17:10:58.562500,-66.62
17:10:58.578125,-63.68
17:10:58.593750,-60.73
17:10:58.609375,-57.70
17:10:58.625000,-54.51
17:10:58.640625,-50.95
17:10:58.656250,-46.71
17:10:58.671875,-41.67
17:10:58.687500,-36.07
17:10:58.703125,-30.71
17:10:58.718750,-26.74
17:10:58.734375,-25.29
17:10:58.750000,-26.99
17:10:58.765625,-31.61
17:10:58.781250,-38.08
17:10:58.796875,-44.75
17:10:58.812500,-50.02
17:10:58.828125,-52.81
17:10:58.843750,-52.96
17:10:58.859375,-51.20
17:10:58.875000,-48.80
17:10:58.890625,-47.07
17:10:58.906250,-46.80
17:10:58.921875,-48.08
17:10:58.937500,-50.29
17:10:58.953125,-52.50
17:10:58.968750,-53.85
17:10:58.984375,-53.91
17:10:59,-52.79
17:10:59.015625,-50.94
17:10:59.031250,-48.97
17:10:59.046875,-47.31
17:10:59.062500,-46.14
17:10:59.078125,-45.32
17:10:59.093750,-44.66
17:10:59.109375,-44.04
17:10:59.125000,-43.59
17:10:59.140625,-43.71
17:10:59.156250,-44.99
17:10:59.171875,-47.95
17:10:59.187500,-52.89
17:10:59.203125,-59.73
17:10:59.218750,-67.85
17:10:59.234375,-76.24
17:10:59.250000,-83.70
17:10:59.265625,-89.06
17:10:59.281250,-91.54
17:10:59.296875,-90.90
17:10:59.312500,-87.40
17:10:59.328125,-81.70
17:10:59.343750,-74.60
17:10:59.359375,-66.97
17:10:59.375000,-59.53
17:10:59.390625,-52.91
17:10:59.406250,-47.53
17:10:59.421875,-43.61
17:10:59.437500,-41.03
17:10:59.453125,-39.39
17:10:59.468750,-38.07
17:10:59.484375,-36.49
17:10:59.500000,-34.22
17:10:59.515625,-31.15
17:10:59.531250,-27.46
17:10:59.546875,-23.50
17:10:59.562500,-19.64
17:10:59.578125,-16.13
17:10:59.593750,-13.11
17:10:59.609375,-10.57
17:10:59.625000,-8.40
17:10:59.640625,-6.48
17:10:59.656250,-4.69
17:10:59.671875,-2.93
17:10:59.687500,-1.22
17:10:59.703125,0.37
17:10:59.718750,1.73
17:10:59.734375,2.76
17:10:59.750000,3.42
17:10:59.765625,3.74
17:10:59.781250,3.82
17:10:59.796875,3.74
17:10:59.812500,3.51
17:10:59.828125,3.06
17:10:59.843750,2.22
17:10:59.859375,0.83
17:10:59.875000,-1.15
17:10:59.890625,-3.57
17:10:59.906250,-6.11
17:10:59.921875,-8.34
17:10:59.937500,-9.87
17:10:59.953125,-10.43
17:10:59.968750,-9.94
17:10:59.984375,-8.59
17:11:00,-6.68
17:11:00.015625,-4.55
17:11:00.031250,-2.45
17:11:00.046875,-0.52
17:11:00.062500,1.24
17:11:00.078125,2.87
17:11:00.093750,4.35
17:11:00.109375,5.59
17:11:00.125000,6.44
17:11:00.140625,6.77
17:11:00.156250,6.48
17:11:00.171875,5.58
17:11:00.187500,4.17
17:11:00.203125,2.41
17:11:00.218750,0.53
17:11:00.234375,-1.25
17:11:00.250000,-2.66
17:11:00.265625,-3.45
17:11:00.281250,-3.43
17:11:00.296875,-2.55
17:11:00.312500,-0.95
17:11:00.328125,1.02
17:11:00.343750,2.87
17:11:00.359375,4.16
17:11:00.375000,4.58
17:11:00.390625,4.08
17:11:00.406250,2.81
17:11:00.421875,1.06
17:11:00.437500,-0.92
17:11:00.453125,-2.93
17:11:00.468750,-4.84
17:11:00.484375,-6.60
17:11:00.500000,-8.18
17:11:00.515625,-9.59
17:11:00.531250,-10.89
17:11:00.546875,-12.20
17:11:00.562500,-13.62
17:11:00.578125,-15.05
17:11:00.593750,-16.31
17:11:00.609375,-17.05
17:11:00.625000,-17.01
17:11:00.640625,-16.12
17:11:00.656250,-14.59
17:11:00.671875,-12.77
17:11:00.687500,-11.00
17:11:00.703125,-9.42
17:11:00.718750,-7.96
17:11:00.734375,-6.44
17:11:00.750000,-4.72
17:11:00.765625,-2.82
17:11:00.781250,-0.96
17:11:00.796875,0.60
17:11:00.812500,1.69
17:11:00.828125,2.32
17:11:00.843750,2.67
17:11:00.859375,2.91
17:11:00.875000,3.14
17:11:00.890625,3.28
17:11:00.906250,3.21
17:11:00.921875,2.83
17:11:00.937500,2.19
17:11:00.953125,1.47
17:11:00.968750,0.92
17:11:00.984375,0.66
17:11:01,0.68
17:11:01.015625,0.77
17:11:01.031250,0.73
17:11:01.046875,0.42
17:11:01.062500,-0.18
17:11:01.078125,-0.98
17:11:01.093750,-1.89
17:11:01.109375,-2.88
17:11:01.125000,-4.01
17:11:01.140625,-5.28
17:11:01.156250,-6.65
17:11:01.171875,-7.94
17:11:01.187500,-8.95
17:11:01.203125,-9.54
17:11:01.218750,-9.77
17:11:01.234375,-9.90
17:11:01.250000,-10.31
17:11:01.265625,-11.28
17:11:01.281250,-12.88
17:11:01.296875,-14.85
17:11:01.312500,-16.68
17:11:01.328125,-17.81
17:11:01.343750,-17.89
17:11:01.359375,-16.89
17:11:01.375000,-15.13
17:11:01.390625,-13.06
17:11:01.406250,-11.12
17:11:01.421875,-9.48
17:11:01.437500,-8.09
17:11:01.453125,-6.75
17:11:01.468750,-5.34
17:11:01.484375,-3.82
17:11:01.500000,-2.33
17:11:01.515625,-1.03
17:11:01.531250,-0.01
17:11:01.546875,0.69
17:11:01.562500,1.14
17:11:01.578125,1.34
17:11:01.593750,1.26
17:11:01.609375,0.86
17:11:01.625000,0.15
17:11:01.640625,-0.80
17:11:01.656250,-1.84
17:11:01.671875,-2.81
17:11:01.687500,-3.58
17:11:01.703125,-4.10
17:11:01.718750,-4.40
17:11:01.734375,-4.52
17:11:01.750000,-4.55
17:11:01.765625,-4.58
17:11:01.781250,-4.73
17:11:01.796875,-5.10
17:11:01.812500,-5.73
17:11:01.828125,-6.59
17:11:01.843750,-7.53
17:11:01.859375,-8.38
17:11:01.875000,-9.07
17:11:01.890625,-9.66
17:11:01.906250,-10.35
17:11:01.921875,-11.37
17:11:01.937500,-12.88
17:11:01.953125,-14.82
17:11:01.968750,-17.01
17:11:01.984375,-19.11
17:11:02,-20.81
17:11:02.015625,-21.86
17:11:02.031250,-22.18
17:11:02.046875,-21.82
17:11:02.062500,-20.89
17:11:02.078125,-19.55
17:11:02.093750,-17.89
17:11:02.109375,-15.97
17:11:02.125000,-13.79
17:11:02.140625,-11.37
17:11:02.156250,-8.77
17:11:02.171875,-6.07
17:11:02.187500,-3.40
17:11:02.203125,-0.86
17:11:02.218750,1.46
17:11:02.234375,3.47
17:11:02.250000,5.06
17:11:02.265625,6.12
17:11:02.281250,6.60
17:11:02.296875,6.54
17:11:02.312500,6.08
17:11:02.328125,5.40
17:11:02.343750,4.70
17:11:02.359375,4.05
17:11:02.375000,3.47
17:11:02.390625,2.94
17:11:02.406250,2.43
17:11:02.421875,1.98
17:11:02.437500,1.59
17:11:02.453125,1.29
17:11:02.468750,1.08
17:11:02.484375,0.90
17:11:02.500000,0.72
17:11:02.515625,0.48
17:11:02.531250,0.11
17:11:02.546875,-0.46
17:11:02.562500,-1.25
17:11:02.578125,-2.26
17:11:02.593750,-3.39
17:11:02.609375,-4.56
17:11:02.625000,-5.71
17:11:02.640625,-6.86
17:11:02.656250,-8.10
17:11:02.671875,-9.52
17:11:02.687500,-11.17
17:11:02.703125,-12.96
17:11:02.718750,-14.67
17:11:02.734375,-16.00
17:11:02.750000,-16.67
17:11:02.765625,-16.54
17:11:02.781250,-15.61
17:11:02.796875,-14.07
17:11:02.812500,-12.20
17:11:02.828125,-10.26
17:11:02.843750,-8.40
17:11:02.859375,-6.65
17:11:02.875000,-4.90
17:11:02.890625,-3.03
17:11:02.906250,-0.95
17:11:02.921875,1.36
17:11:02.937500,3.84
17:11:02.953125,6.39
17:11:02.968750,8.90
17:11:02.984375,11.23
17:11:03,13.25
17:11:03.015625,14.83
17:11:03.031250,15.87
17:11:03.046875,16.38
17:11:03.062500,16.41
17:11:03.078125,16.13
17:11:03.093750,15.68
17:11:03.109375,15.21
17:11:03.125000,14.81
17:11:03.140625,14.54
17:11:03.156250,14.42
17:11:03.171875,14.40
17:11:03.187500,14.39
17:11:03.203125,14.25
17:11:03.218750,13.87
17:11:03.234375,13.20
17:11:03.250000,12.32
17:11:03.265625,11.37
17:11:03.281250,10.48
17:11:03.296875,9.70
17:11:03.312500,8.96
17:11:03.328125,8.13
17:11:03.343750,7.11
17:11:03.359375,5.84
17:11:03.375000,4.37
17:11:03.390625,2.75
17:11:03.406250,0.98
17:11:03.421875,-0.95
17:11:03.437500,-3.08
17:11:03.453125,-5.34
17:11:03.468750,-7.53
17:11:03.484375,-9.38
17:11:03.500000,-10.64
17:11:03.515625,-11.14
17:11:03.531250,-10.89
17:11:03.546875,-10.06
17:11:03.562500,-8.83
17:11:03.578125,-7.38
17:11:03.593750,-5.75
17:11:03.609375,-3.93
17:11:03.625000,-1.86
17:11:03.640625,0.47
17:11:03.656250,2.99
17:11:03.671875,5.57
17:11:03.687500,8.03
17:11:03.703125,10.26
17:11:03.718750,12.22
17:11:03.734375,13.93
17:11:03.750000,15.43
17:11:03.765625,16.68
17:11:03.781250,17.59
17:11:03.796875,18.09
17:11:03.812500,18.21
17:11:03.828125,18.11
17:11:03.843750,18.02
17:11:03.859375,18.13
17:11:03.875000,18.50
17:11:03.890625,19.06
17:11:03.906250,19.62
17:11:03.921875,19.98
17:11:03.937500,20.04
17:11:03.953125,19.84
17:11:03.968750,19.42
17:11:03.984375,18.85
17:11:04,18.13
17:11:04.015625,17.23
17:11:04.031250,16.18
17:11:04.046875,15.03
17:11:04.062500,13.86
17:11:04.078125,12.75
17:11:04.093750,11.69
17:11:04.109375,10.59
17:11:04.125000,9.33
17:11:04.140625,7.82
17:11:04.156250,6.01
17:11:04.171875,3.85
17:11:04.187500,1.33
17:11:04.203125,-1.53
17:11:04.218750,-4.62
17:11:04.234375,-7.72
17:11:04.250000,-10.56
17:11:04.265625,-12.88
17:11:04.281250,-14.49
17:11:04.296875,-15.31
17:11:04.312500,-15.38
17:11:04.328125,-14.78
17:11:04.343750,-13.60
17:11:04.359375,-11.98
17:11:04.375000,-10.06
17:11:04.390625,-8.00
17:11:04.406250,-5.91
17:11:04.421875,-3.81
17:11:04.437500,-1.66
17:11:04.453125,0.54
17:11:04.468750,2.69
17:11:04.484375,4.59
17:11:04.500000,5.96
17:11:04.515625,6.65
17:11:04.531250,6.68
17:11:04.546875,6.24
17:11:04.562500,5.60
17:11:04.578125,5.05
17:11:04.593750,4.78
17:11:04.609375,4.89
17:11:04.625000,5.46
17:11:04.640625,6.44
17:11:04.656250,7.71
17:11:04.671875,9.04
17:11:04.687500,10.13
17:11:04.703125,10.76
17:11:04.718750,10.85
17:11:04.734375,10.53
17:11:04.750000,10.05
17:11:04.765625,9.65
17:11:04.781250,9.46
17:11:04.796875,9.42
17:11:04.812500,9.34
17:11:04.828125,9.03
17:11:04.843750,8.31
17:11:04.859375,7.08
17:11:04.875000,5.37
17:11:04.890625,3.24
17:11:04.906250,0.72
17:11:04.921875,-2.20
17:11:04.937500,-5.51
17:11:04.953125,-9.18
17:11:04.968750,-12.97
17:11:04.984375,-16.48
17:11:05,-19.23
17:11:05.015625,-20.90
17:11:05.031250,-21.37
17:11:05.046875,-20.89
17:11:05.062500,-19.84
17:11:05.078125,-18.55
17:11:05.093750,-17.18
17:11:05.109375,-15.59
17:11:05.125000,-13.58
17:11:05.140625,-10.97
17:11:05.156250,-7.84
17:11:05.171875,-4.42
17:11:05.187500,-1.07
17:11:05.203125,1.96
17:11:05.218750,4.52
17:11:05.234375,6.56
17:11:05.250000,8.14
17:11:05.265625,9.31
17:11:05.281250,10.12
17:11:05.296875,10.64
17:11:05.312500,10.98
17:11:05.328125,11.20
17:11:05.343750,11.38
17:11:05.359375,11.58
17:11:05.375000,11.79
17:11:05.390625,12.04
17:11:05.406250,12.36
17:11:05.421875,12.76
17:11:05.437500,13.24
17:11:05.453125,13.79
17:11:05.468750,14.35
17:11:05.484375,14.87
17:11:05.500000,15.27
17:11:05.515625,15.50
17:11:05.531250,15.49
17:11:05.546875,15.19
17:11:05.562500,14.59
17:11:05.578125,13.71
17:11:05.593750,12.57
17:11:05.609375,11.21
17:11:05.625000,9.66
17:11:05.640625,7.96
17:11:05.656250,6.17
17:11:05.671875,4.32
17:11:05.687500,2.47
17:11:05.703125,0.60
17:11:05.718750,-1.32
17:11:05.734375,-3.31
17:11:05.750000,-5.31
17:11:05.765625,-7.14
17:11:05.781250,-8.57
17:11:05.796875,-9.32
17:11:05.812500,-9.22
17:11:05.828125,-8.22
17:11:05.843750,-6.49
17:11:05.859375,-4.23
17:11:05.875000,-1.73
17:11:05.890625,0.74
17:11:05.906250,3.05
17:11:05.921875,5.14
17:11:05.937500,7.05
17:11:05.953125,8.93
17:11:05.968750,10.91
17:11:05.984375,13.07
17:11:06,15.33
17:11:06.015625,17.53
17:11:06.031250,19.46
17:11:06.046875,20.93
17:11:06.062500,21.91
17:11:06.078125,22.49
17:11:06.093750,22.83
17:11:06.109375,23.11
17:11:06.125000,23.40
17:11:06.140625,23.69
17:11:06.156250,23.91
17:11:06.171875,23.98
17:11:06.187500,23.88
17:11:06.203125,23.61
17:11:06.218750,23.21
17:11:06.234375,22.66
17:11:06.250000,21.95
17:11:06.265625,21.07
17:11:06.281250,20.09
17:11:06.296875,19.06
17:11:06.312500,18.03
17:11:06.328125,16.96
17:11:06.343750,15.69
17:11:06.359375,14.04
17:11:06.375000,11.91
17:11:06.390625,9.28
17:11:06.406250,6.28
17:11:06.421875,3.08
17:11:06.437500,-0.22
17:11:06.453125,-3.59
17:11:06.468750,-7.00
17:11:06.484375,-10.38
17:11:06.500000,-13.54
17:11:06.515625,-16.22
17:11:06.531250,-18.21
17:11:06.546875,-19.48
17:11:06.562500,-20.09
17:11:06.578125,-20.25
17:11:06.593750,-20.06
17:11:06.609375,-19.55
17:11:06.625000,-18.64
17:11:06.640625,-17.25
17:11:06.656250,-15.34
17:11:06.671875,-12.99
17:11:06.687500,-10.35
17:11:06.703125,-7.58
17:11:06.718750,-4.85
17:11:06.734375,-2.34
17:11:06.750000,-0.27
17:11:06.765625,1.22
17:11:06.781250,2.09
17:11:06.796875,2.50
17:11:06.812500,2.75
17:11:06.828125,3.12
17:11:06.843750,3.80
17:11:06.859375,4.72
17:11:06.875000,5.64
17:11:06.890625,6.32
17:11:06.906250,6.61
17:11:06.921875,6.54
17:11:06.937500,6.31
17:11:06.953125,6.01
17:11:06.968750,5.69
17:11:06.984375,5.23
17:11:07,4.52
17:11:07.015625,3.47
17:11:07.031250,2.16
17:11:07.046875,0.69
17:11:07.062500,-0.87
17:11:07.078125,-2.58
17:11:07.093750,-4.62
17:11:07.109375,-7.25
17:11:07.125000,-10.69
17:11:07.140625,-15.02
17:11:07.156250,-20.14
17:11:07.171875,-25.74
17:11:07.187500,-31.40
17:11:07.203125,-36.63
17:11:07.218750,-41.02
17:11:07.234375,-44.27
17:11:07.250000,-46.28
17:11:07.265625,-47.03
17:11:07.281250,-46.65
17:11:07.296875,-45.34
17:11:07.312500,-43.30
17:11:07.328125,-40.76
17:11:07.343750,-37.95
17:11:07.359375,-34.97
17:11:07.375000,-31.87
17:11:07.390625,-28.57
17:11:07.406250,-24.96
17:11:07.421875,-21.02
17:11:07.437500,-16.83
17:11:07.453125,-12.66
17:11:07.468750,-8.80
17:11:07.484375,-5.57
17:11:07.500000,-3.07
17:11:07.515625,-1.25
17:11:07.531250,0.04
17:11:07.546875,0.99
17:11:07.562500,1.80
17:11:07.578125,2.59
17:11:07.593750,3.47
17:11:07.609375,4.49
17:11:07.625000,5.63
17:11:07.640625,6.84
17:11:07.656250,8.02
17:11:07.671875,9.06
17:11:07.687500,9.97
17:11:07.703125,10.75
17:11:07.718750,11.52
17:11:07.734375,12.34
17:11:07.750000,13.19
17:11:07.765625,13.91
17:11:07.781250,14.22
17:11:07.796875,13.81
17:11:07.812500,12.39
17:11:07.828125,9.83
17:11:07.843750,6.16
17:11:07.859375,1.57
17:11:07.875000,-3.64
17:11:07.890625,-9.16
17:11:07.906250,-14.65
17:11:07.921875,-19.81
17:11:07.937500,-24.39
17:11:07.953125,-28.13
17:11:07.968750,-30.85
17:11:07.984375,-32.47
17:11:08,-33.05
17:11:08.015625,-32.74
17:11:08.031250,-31.72
17:11:08.046875,-30.07
17:11:08.062500,-27.73
17:11:08.078125,-24.59
17:11:08.093750,-20.52
17:11:08.109375,-15.57
17:11:08.125000,-9.98
17:11:08.140625,-4.17
17:11:08.156250,1.41
17:11:08.171875,6.39
17:11:08.187500,10.62
17:11:08.203125,14.17
17:11:08.218750,17.21
17:11:08.234375,19.92
17:11:08.250000,22.38
17:11:08.265625,24.58
17:11:08.281250,26.45
17:11:08.296875,27.88
17:11:08.312500,28.83
17:11:08.328125,29.32
17:11:08.343750,29.43
17:11:08.359375,29.18
17:11:08.375000,28.65
17:11:08.390625,27.81
17:11:08.406250,26.68
17:11:08.421875,25.27
17:11:08.437500,23.67
17:11:08.453125,21.96
17:11:08.468750,20.25
17:11:08.484375,18.59
17:11:08.500000,16.94
17:11:08.515625,15.20
17:11:08.531250,13.25
17:11:08.546875,11.00
17:11:08.562500,8.46
17:11:08.578125,5.66
17:11:08.593750,2.73
17:11:08.609375,-0.31
17:11:08.625000,-3.40
17:11:08.640625,-6.51
17:11:08.656250,-9.56
17:11:08.671875,-12.40
17:11:08.687500,-14.83
17:11:08.703125,-16.59
17:11:08.718750,-17.50
17:11:08.734375,-17.41
17:11:08.750000,-16.32
17:11:08.765625,-14.25
17:11:08.781250,-11.30
17:11:08.796875,-7.58
17:11:08.812500,-3.19
17:11:08.828125,1.78
17:11:08.843750,7.18
17:11:08.859375,12.86
17:11:08.875000,18.59
17:11:08.890625,24.10
17:11:08.906250,29.08
17:11:08.921875,33.30
17:11:08.937500,36.68
17:11:08.953125,39.27
17:11:08.968750,41.21
17:11:08.984375,42.65
17:11:09,43.61
17:11:09.015625,44.05
17:11:09.031250,43.93
17:11:09.046875,43.30
17:11:09.062500,42.34
17:11:09.078125,41.28
17:11:09.093750,40.31
17:11:09.109375,39.41
17:11:09.125000,38.39
17:11:09.140625,36.98
17:11:09.156250,34.99
17:11:09.171875,32.38
17:11:09.187500,29.34
17:11:09.203125,26.11
17:11:09.218750,22.93
17:11:09.234375,19.82
17:11:09.250000,16.68
17:11:09.265625,13.24
17:11:09.281250,9.32
17:11:09.296875,4.73
17:11:09.312500,-0.57
17:11:09.328125,-6.54
17:11:09.343750,-13.08
17:11:09.359375,-19.99
17:11:09.375000,-26.92
17:11:09.390625,-33.34
17:11:09.406250,-38.54
17:11:09.421875,-41.78
17:11:09.437500,-42.45
17:11:09.453125,-40.30
17:11:09.468750,-35.54
17:11:09.484375,-28.80
17:11:09.500000,-20.95
17:11:09.515625,-12.86
17:11:09.531250,-5.17
17:11:09.546875,1.74
17:11:09.562500,7.77
17:11:09.578125,12.95
17:11:09.593750,17.33
17:11:09.609375,20.93
17:11:09.625000,23.74
17:11:09.640625,25.80
17:11:09.656250,27.26
17:11:09.671875,28.32
17:11:09.687500,29.21
17:11:09.703125,30.02
17:11:09.718750,30.66
17:11:09.734375,30.93
17:11:09.750000,30.65
17:11:09.765625,29.77
17:11:09.781250,28.47
17:11:09.796875,27.07
17:11:09.812500,25.83
17:11:09.828125,24.79
17:11:09.843750,23.71
17:11:09.859375,22.21
17:11:09.875000,19.93
17:11:09.890625,16.77
17:11:09.906250,12.84
17:11:09.921875,8.43
17:11:09.937500,3.80
17:11:09.953125,-0.95
17:11:09.968750,-5.86
17:11:09.984375,-11.03
17:11:10,-16.52
17:11:10.015625,-22.32
17:11:10.031250,-28.34
17:11:10.046875,-34.56
17:11:10.062500,-40.89
17:11:10.078125,-47.18
17:11:10.093750,-53.08
17:11:10.109375,-58.06
17:11:10.125000,-61.57
17:11:10.140625,-63.22
17:11:10.156250,-62.92
17:11:10.171875,-60.85
17:11:10.187500,-57.33
17:11:10.203125,-52.67
17:11:10.218750,-47.04
17:11:10.234375,-40.53
17:11:10.250000,-33.23
17:11:10.265625,-25.33
17:11:10.281250,-17.09
17:11:10.296875,-8.91
17:11:10.312500,-1.19
17:11:10.328125,5.67
17:11:10.343750,11.41
17:11:10.359375,15.94
17:11:10.375000,19.30
17:11:10.390625,21.74
17:11:10.406250,23.52
17:11:10.421875,24.87
17:11:10.437500,25.91
17:11:10.453125,26.68
17:11:10.468750,27.20
17:11:10.484375,27.57
17:11:10.500000,27.92
17:11:10.515625,28.36
17:11:10.531250,28.86
17:11:10.546875,29.18
17:11:10.562500,28.97
17:11:10.578125,27.92
17:11:10.593750,25.90
17:11:10.609375,23.03
17:11:10.625000,19.66
17:11:10.640625,16.25
17:11:10.656250,13.14
17:11:10.671875,10.48
17:11:10.687500,8.13
17:11:10.703125,5.74
17:11:10.718750,2.85
17:11:10.734375,-0.85
17:11:10.750000,-5.51
17:11:10.765625,-11.01
17:11:10.781250,-17.02
17:11:10.796875,-23.05
17:11:10.812500,-28.59
17:11:10.828125,-33.15
17:11:10.843750,-36.30
17:11:10.859375,-37.77
17:11:10.875000,-37.45
17:11:10.890625,-35.43
17:11:10.906250,-31.95
17:11:10.921875,-27.34
17:11:10.937500,-21.90
17:11:10.953125,-15.85
17:11:10.968750,-9.33
17:11:10.984375,-2.44
17:11:11,4.63
17:11:11.015625,11.57
17:11:11.031250,17.95
17:11:11.046875,23.36
17:11:11.062500,27.52
17:11:11.078125,30.32
17:11:11.093750,31.93
17:11:11.109375,32.70
17:11:11.125000,33.06
17:11:11.140625,33.43
17:11:11.156250,34.06
17:11:11.171875,35.04
17:11:11.187500,36.25
17:11:11.203125,37.43
17:11:11.218750,38.26
17:11:11.234375,38.44
17:11:11.250000,37.75
17:11:11.265625,36.12
17:11:11.281250,33.60
17:11:11.296875,30.33
17:11:11.312500,26.49
17:11:11.328125,22.29
17:11:11.343750,17.88
17:11:11.359375,13.36
17:11:11.375000,8.74
17:11:11.390625,3.94
17:11:11.406250,-1.21
17:11:11.421875,-6.88
17:11:11.437500,-13.19
17:11:11.453125,-20.14
17:11:11.468750,-27.58
17:11:11.484375,-35.23
17:11:11.500000,-42.68
17:11:11.515625,-49.43
17:11:11.531250,-54.94
17:11:11.546875,-58.72
17:11:11.562500,-60.46
17:11:11.578125,-60.07
17:11:11.593750,-57.74
17:11:11.609375,-53.80
17:11:11.625000,-48.56
17:11:11.640625,-42.22
17:11:11.656250,-34.86
17:11:11.671875,-26.53
17:11:11.687500,-17.44
17:11:11.703125,-8.00
17:11:11.718750,1.24
17:11:11.734375,9.71
17:11:11.750000,16.97
17:11:11.765625,22.80
17:11:11.781250,27.20
17:11:11.796875,30.28
17:11:11.812500,32.25
17:11:11.828125,33.29
17:11:11.843750,33.62
17:11:11.859375,33.42
17:11:11.875000,32.91
17:11:11.890625,32.28
17:11:11.906250,31.67
17:11:11.921875,31.14
17:11:11.937500,30.66
17:11:11.953125,30.10
17:11:11.968750,29.31
17:11:11.984375,28.15
17:11:12,26.55
17:11:12.015625,24.50
17:11:12.031250,22.03
17:11:12.046875,19.24
17:11:12.062500,16.19
17:11:12.078125,12.96
17:11:12.093750,9.63
17:11:12.109375,6.17
17:11:12.125000,2.54
17:11:12.140625,-1.41
17:11:12.156250,-5.88
17:11:12.171875,-11.08
17:11:12.187500,-17.11
17:11:12.203125,-23.88
17:11:12.218750,-31.02
17:11:12.234375,-37.93
17:11:12.250000,-43.88
17:11:12.265625,-48.16
17:11:12.281250,-50.29
17:11:12.296875,-50.08
17:11:12.312500,-47.61
17:11:12.328125,-43.19
17:11:12.343750,-37.24
17:11:12.359375,-30.16
17:11:12.375000,-22.33
17:11:12.390625,-14.05
17:11:12.406250,-5.61
17:11:12.421875,2.72
17:11:12.437500,10.69
17:11:12.453125,18.03
17:11:12.468750,24.44
17:11:12.484375,29.66
17:11:12.500000,33.46
17:11:12.515625,35.82
17:11:12.531250,36.93
17:11:12.546875,37.11
17:11:12.562500,36.71
17:11:12.578125,35.97
17:11:12.593750,35.00
17:11:12.609375,33.76
17:11:12.625000,32.23
17:11:12.640625,30.47
17:11:12.656250,28.66
17:11:12.671875,26.98
17:11:12.687500,25.50
17:11:12.703125,24.11
17:11:12.718750,22.53
17:11:12.734375,20.44
17:11:12.750000,17.68
17:11:12.765625,14.28
17:11:12.781250,10.56
17:11:12.796875,6.87
17:11:12.812500,3.50
17:11:12.828125,0.54
17:11:12.843750,-2.13
17:11:12.859375,-4.79
17:11:12.875000,-7.75
17:11:12.890625,-11.22
17:11:12.906250,-15.23
17:11:12.921875,-19.61
17:11:12.937500,-24.00
17:11:12.953125,-27.90
17:11:12.968750,-30.77
17:11:12.984375,-32.14
17:11:13,-31.70
17:11:13.015625,-29.39
17:11:13.031250,-25.39
17:11:13.046875,-20.05
17:11:13.062500,-13.75
17:11:13.078125,-6.77
17:11:13.093750,0.71
17:11:13.109375,8.60
17:11:13.125000,16.79
17:11:13.140625,25.02
17:11:13.156250,32.91
17:11:13.171875,39.96
17:11:13.187500,45.76
17:11:13.203125,50.04
17:11:13.218750,52.81
17:11:13.234375,54.29
17:11:13.250000,54.81
17:11:13.265625,54.70
17:11:13.281250,54.22
17:11:13.296875,53.51
17:11:13.312500,52.64
17:11:13.328125,51.67
17:11:13.343750,50.62
17:11:13.359375,49.51
17:11:13.375000,48.31
17:11:13.390625,46.89
17:11:13.406250,45.08
17:11:13.421875,42.70
17:11:13.437500,39.63
17:11:13.453125,35.86
17:11:13.468750,31.52
17:11:13.484375,26.79
17:11:13.500000,21.91
17:11:13.515625,17.00
17:11:13.531250,12.13
17:11:13.546875,7.23
17:11:13.562500,2.12
17:11:13.578125,-3.41
17:11:13.593750,-9.59
17:11:13.609375,-16.48
17:11:13.625000,-24.01
17:11:13.640625,-31.79
17:11:13.656250,-39.25
17:11:13.671875,-45.71
17:11:13.687500,-50.50
17:11:13.703125,-53.20
17:11:13.718750,-53.66
17:11:13.734375,-52.08
17:11:13.750000,-48.80
17:11:13.765625,-44.29
17:11:13.781250,-38.86
17:11:13.796875,-32.70
17:11:13.812500,-25.91
17:11:13.828125,-18.55
17:11:13.843750,-10.78
17:11:13.859375,-2.93
17:11:13.875000,4.57
17:11:13.890625,11.23
17:11:13.906250,16.68
17:11:13.921875,20.73
17:11:13.937500,23.42
17:11:13.953125,24.94
17:11:13.968750,25.58
17:11:13.984375,25.60
17:11:14,25.19
17:11:14.015625,24.49
17:11:14.031250,23.63
17:11:14.046875,22.73
17:11:14.062500,21.87
17:11:14.078125,21.11
17:11:14.093750,20.47
17:11:14.109375,19.85
17:11:14.125000,19.12
17:11:14.140625,18.13
17:11:14.156250,16.77
17:11:14.171875,14.94
17:11:14.187500,12.62
17:11:14.203125,9.85
17:11:14.218750,6.72
17:11:14.234375,3.32
17:11:14.250000,-0.19
17:11:14.265625,-3.71
17:11:14.281250,-7.22
17:11:14.296875,-10.79
17:11:14.312500,-14.61
17:11:14.328125,-18.93
17:11:14.343750,-23.88
17:11:14.359375,-29.40
17:11:14.375000,-35.13
17:11:14.390625,-40.45
17:11:14.406250,-44.66
17:11:14.421875,-47.16
17:11:14.437500,-47.60
17:11:14.453125,-45.93
17:11:14.468750,-42.38
17:11:14.484375,-37.30
17:11:14.500000,-31.10
17:11:14.515625,-24.11
17:11:14.531250,-16.60
17:11:14.546875,-8.73
17:11:14.562500,-0.61
17:11:14.578125,7.70
17:11:14.593750,16.10
17:11:14.609375,24.42
17:11:14.625000,32.39
17:11:14.640625,39.58
17:11:14.656250,45.59
17:11:14.671875,50.01
17:11:14.687500,52.69
17:11:14.703125,53.69
17:11:14.718750,53.31
17:11:14.734375,52.04
17:11:14.750000,50.37
17:11:14.765625,48.77
17:11:14.781250,47.50
17:11:14.796875,46.70
17:11:14.812500,46.31
17:11:14.828125,46.17
17:11:14.843750,46.07
17:11:14.859375,45.81
17:11:14.875000,45.27
17:11:14.890625,44.45
17:11:14.906250,43.48
17:11:14.921875,42.49
17:11:14.937500,41.53
17:11:14.953125,40.46
17:11:14.968750,38.97
17:11:14.984375,36.66
17:11:15,33.25
17:11:15.015625,28.68
17:11:15.031250,23.22
17:11:15.046875,17.33
17:11:15.062500,11.47
17:11:15.078125,5.95
17:11:15.093750,0.84
17:11:15.109375,-4.04
17:11:15.125000,-8.89
17:11:15.140625,-13.80
17:11:15.156250,-18.68
17:11:15.171875,-23.21
17:11:15.187500,-26.96
17:11:15.203125,-29.58
17:11:15.218750,-30.78
17:11:15.234375,-30.45
17:11:15.250000,-28.54
17:11:15.265625,-25.09
17:11:15.281250,-20.21
17:11:15.296875,-14.14
17:11:15.312500,-7.28
17:11:15.328125,-0.19
17:11:15.343750,6.60
17:11:15.359375,12.63
17:11:15.375000,17.65
17:11:15.390625,21.71
17:11:15.406250,24.98
17:11:15.421875,27.75
17:11:15.437500,30.25
17:11:15.453125,32.61
17:11:15.468750,34.91
17:11:15.484375,37.19
17:11:15.500000,39.47
17:11:15.515625,41.79
17:11:15.531250,44.13
17:11:15.546875,46.28
17:11:15.562500,47.79
17:11:15.578125,48.05
17:11:15.593750,46.44
17:11:15.609375,42.54
17:11:15.625000,36.32
17:11:15.640625,28.17
17:11:15.656250,18.82
17:11:15.671875,9.17
17:11:15.687500,0.07
17:11:15.703125,-7.81
17:11:15.718750,-14.06
17:11:15.734375,-18.60
17:11:15.750000,-21.60
17:11:15.765625,-23.50
17:11:15.781250,-24.81
17:11:15.796875,-25.98
17:11:15.812500,-27.28
17:11:15.828125,-28.64
17:11:15.843750,-29.80
17:11:15.859375,-30.36
17:11:15.875000,-30.21
17:11:15.890625,-29.71
17:11:15.906250,-29.84
17:11:15.921875,-31.92
17:11:15.937500,-37.09
17:11:15.953125,-45.73
17:11:15.968750,-57.07
17:11:15.984375,-69.35
17:11:16,-80.34
17:11:16.015625,-88.19
17:11:16.031250,-91.99
17:11:16.046875,-91.93
17:11:16.062500,-88.98
17:11:16.078125,-84.31
17:11:16.093750,-78.77
17:11:16.109375,-72.66
17:11:16.125000,-65.87
17:11:16.140625,-58.06
17:11:16.156250,-48.95
17:11:16.171875,-38.39
17:11:16.187500,-26.44
17:11:16.203125,-13.44
17:11:16.218750,-0.04
17:11:16.234375,12.85
17:11:16.250000,24.25
17:11:16.265625,33.19
17:11:16.281250,39.01
17:11:16.296875,41.42
17:11:16.312500,40.56
17:11:16.328125,36.94
17:11:16.343750,31.39
17:11:16.359375,24.98
17:11:16.375000,18.81
17:11:16.390625,13.83
17:11:16.406250,10.57
17:11:16.421875,9.00
17:11:16.437500,8.62
17:11:16.453125,8.58
17:11:16.468750,8.02
17:11:16.484375,6.36
17:11:16.500000,3.35
17:11:16.515625,-0.87
17:11:16.531250,-5.96
17:11:16.546875,-11.52
17:11:16.562500,-17.16
17:11:16.578125,-22.68
17:11:16.593750,-28.02
17:11:16.609375,-33.24
17:11:16.625000,-38.45
17:11:16.640625,-43.68
17:11:16.656250,-48.71
17:11:16.671875,-53.10
17:11:16.687500,-56.23
17:11:16.703125,-57.55
17:11:16.718750,-56.76
17:11:16.734375,-53.96
17:11:16.750000,-49.54
17:11:16.765625,-44.04
17:11:16.781250,-37.90
17:11:16.796875,-31.39
17:11:16.812500,-24.59
17:11:16.828125,-17.57
17:11:16.843750,-10.46
17:11:16.859375,-3.58
17:11:16.875000,2.66
17:11:16.890625,7.87
17:11:16.906250,11.83
17:11:16.921875,14.58
17:11:16.937500,16.39
17:11:16.953125,17.64
17:11:16.968750,18.66
17:11:16.984375,19.60
17:11:17,20.49
17:11:17.015625,21.21
17:11:17.031250,21.72
17:11:17.046875,22.04
17:11:17.062500,22.31
17:11:17.078125,22.62
17:11:17.093750,22.98
17:11:17.109375,23.24
17:11:17.125000,23.16
17:11:17.140625,22.55
17:11:17.156250,21.35
17:11:17.171875,19.69
17:11:17.187500,17.82
17:11:17.203125,15.95
17:11:17.218750,14.23
17:11:17.234375,12.66
17:11:17.250000,11.08
17:11:17.265625,9.34
17:11:17.281250,7.23
17:11:17.296875,4.56
17:11:17.312500,1.19
17:11:17.328125,-2.96
17:11:17.343750,-7.76
17:11:17.359375,-12.92
17:11:17.375000,-17.89
17:11:17.390625,-22.08
17:11:17.406250,-24.99
17:11:17.421875,-26.32
17:11:17.437500,-26.12
17:11:17.453125,-24.69
17:11:17.468750,-22.48
17:11:17.484375,-19.88
17:11:17.500000,-17.11
17:11:17.515625,-14.14
17:11:17.531250,-10.85
17:11:17.546875,-7.09
17:11:17.562500,-2.83
17:11:17.578125,1.73
17:11:17.593750,6.28
17:11:17.609375,10.44
17:11:17.625000,13.90
17:11:17.640625,16.49
17:11:17.656250,18.20
17:11:17.671875,19.12
17:11:17.687500,19.43
17:11:17.703125,19.32
17:11:17.718750,18.97
17:11:17.734375,18.54
17:11:17.750000,18.16
17:11:17.765625,17.87
17:11:17.781250,17.68
17:11:17.796875,17.51
17:11:17.812500,17.29
17:11:17.828125,16.92
17:11:17.843750,16.33
17:11:17.859375,15.45
17:11:17.875000,14.22
17:11:17.890625,12.63
17:11:17.906250,10.72
17:11:17.921875,8.61
17:11:17.937500,6.43
17:11:17.953125,4.30
17:11:17.968750,2.20
17:11:17.984375,0.05
17:11:18,-2.31
17:11:18.015625,-5.04
17:11:18.031250,-8.23
17:11:18.046875,-11.86
17:11:18.062500,-15.86
17:11:18.078125,-20.08
17:11:18.093750,-24.36
17:11:18.109375,-28.48
17:11:18.125000,-32.17
17:11:18.140625,-35.14
17:11:18.156250,-37.15
17:11:18.171875,-38.05
17:11:18.187500,-37.85
17:11:18.203125,-36.60
17:11:18.218750,-34.37
17:11:18.234375,-31.24
17:11:18.250000,-27.26
17:11:18.265625,-22.53
17:11:18.281250,-17.21
17:11:18.296875,-11.55
17:11:18.312500,-5.90
17:11:18.328125,-0.55
17:11:18.343750,4.24
17:11:18.359375,8.27
17:11:18.375000,11.44
17:11:18.390625,13.71
17:11:18.406250,15.17
17:11:18.421875,15.98
17:11:18.437500,16.41
17:11:18.453125,16.68
17:11:18.468750,16.95
17:11:18.484375,17.23
17:11:18.500000,17.42
17:11:18.515625,17.35
17:11:18.531250,16.96
17:11:18.546875,16.27
17:11:18.562500,15.42
17:11:18.578125,14.60
17:11:18.593750,13.90
17:11:18.609375,13.31
17:11:18.625000,12.72
17:11:18.640625,11.95
17:11:18.656250,10.86
17:11:18.671875,9.39
17:11:18.687500,7.55
17:11:18.703125,5.41
17:11:18.718750,3.06
17:11:18.734375,0.59
17:11:18.750000,-1.92
17:11:18.765625,-4.46
17:11:18.781250,-7.06
17:11:18.796875,-9.80
17:11:18.812500,-12.82
17:11:18.828125,-16.17
17:11:18.843750,-19.83
17:11:18.859375,-23.64
17:11:18.875000,-27.29
17:11:18.890625,-30.39
17:11:18.906250,-32.55
17:11:18.921875,-33.46
17:11:18.937500,-32.95
17:11:18.953125,-31.06
17:11:18.968750,-28.00
17:11:18.984375,-24.09
17:11:19,-19.68
17:11:19.015625,-15.07
17:11:19.031250,-10.48
17:11:19.046875,-5.99
17:11:19.062500,-1.62
17:11:19.078125,2.66
17:11:19.093750,6.88
17:11:19.109375,10.96
17:11:19.125000,14.82
17:11:19.140625,18.31
17:11:19.156250,21.28
17:11:19.171875,23.64
17:11:19.187500,25.40
17:11:19.203125,26.61
17:11:19.218750,27.36
17:11:19.234375,27.70
17:11:19.250000,27.66
17:11:19.265625,27.28
17:11:19.281250,26.64
17:11:19.296875,25.92
17:11:19.312500,25.37
17:11:19.328125,25.11
17:11:19.343750,25.15
17:11:19.359375,25.36
17:11:19.375000,25.54
17:11:19.390625,25.49
17:11:19.406250,25.13
17:11:19.421875,24.40
17:11:19.437500,23.30
17:11:19.453125,21.80
17:11:19.468750,19.86
17:11:19.484375,17.53
17:11:19.500000,14.95
17:11:19.515625,12.29
17:11:19.531250,9.71
17:11:19.546875,7.17
17:11:19.562500,4.50
17:11:19.578125,1.43
17:11:19.593750,-2.25
17:11:19.609375,-6.51
17:11:19.625000,-11.11
17:11:19.640625,-15.63
17:11:19.656250,-19.63
17:11:19.671875,-22.77
17:11:19.687500,-24.90
17:11:19.703125,-26.00
17:11:19.718750,-26.14
17:11:19.734375,-25.48
17:11:19.750000,-24.15
17:11:19.765625,-22.26
17:11:19.781250,-19.91
17:11:19.796875,-17.16
17:11:19.812500,-14.05
17:11:19.828125,-10.55
17:11:19.843750,-6.68
17:11:19.859375,-2.52
17:11:19.875000,1.75
17:11:19.890625,5.83
17:11:19.906250,9.34
17:11:19.921875,11.96
17:11:19.937500,13.55
17:11:19.953125,14.14
17:11:19.968750,14.00
17:11:19.984375,13.44
17:11:20,12.73
17:11:20.015625,11.97
17:11:20.031250,11.13
17:11:20.046875,10.12
17:11:20.062500,8.88
17:11:20.078125,7.48
17:11:20.093750,6.03
17:11:20.109375,4.68
17:11:20.125000,3.45
17:11:20.140625,2.24
17:11:20.156250,0.88
17:11:20.171875,-0.77
17:11:20.187500,-2.74
17:11:20.203125,-4.97
17:11:20.218750,-7.27
17:11:20.234375,-9.43
17:11:20.250000,-11.35
17:11:20.265625,-13.01
17:11:20.281250,-14.50
17:11:20.296875,-15.93
17:11:20.312500,-17.44
17:11:20.328125,-19.11
17:11:20.343750,-20.98
17:11:20.359375,-23.11
17:11:20.375000,-25.49
17:11:20.390625,-28.07
17:11:20.406250,-30.66
17:11:20.421875,-32.98
17:11:20.437500,-34.65
17:11:20.453125,-35.36
17:11:20.468750,-34.92
17:11:20.484375,-33.39
17:11:20.500000,-30.96
17:11:20.515625,-27.89
17:11:20.531250,-24.37
17:11:20.546875,-20.49
17:11:20.562500,-16.25
17:11:20.578125,-11.67
17:11:20.593750,-6.86
17:11:20.609375,-2.03
17:11:20.625000,2.52
17:11:20.640625,6.45
17:11:20.656250,9.55
17:11:20.671875,11.68
17:11:20.687500,12.91
17:11:20.703125,13.38
17:11:20.718750,13.31
17:11:20.734375,12.87
17:11:20.750000,12.16
17:11:20.765625,11.19
17:11:20.781250,9.98
17:11:20.796875,8.60
17:11:20.812500,7.18
17:11:20.828125,5.94
17:11:20.843750,5.05
17:11:20.859375,4.57
17:11:20.875000,4.42
17:11:20.890625,4.46
17:11:20.906250,4.46
17:11:20.921875,4.23
17:11:20.937500,3.59
17:11:20.953125,2.47
17:11:20.968750,0.85
17:11:20.984375,-1.16
17:11:21,-3.36
17:11:21.015625,-5.56
17:11:21.031250,-7.59
17:11:21.046875,-9.41
17:11:21.062500,-11.12
17:11:21.078125,-12.90
17:11:21.093750,-14.93
17:11:21.109375,-17.30
17:11:21.125000,-19.99
17:11:21.140625,-22.85
17:11:21.156250,-25.59
17:11:21.171875,-27.92
17:11:21.187500,-29.48
17:11:21.203125,-30.02
17:11:21.218750,-29.43
17:11:21.234375,-27.85
17:11:21.250000,-25.61
17:11:21.265625,-23.08
17:11:21.281250,-20.56
17:11:21.296875,-18.03
17:11:21.312500,-15.24
17:11:21.328125,-11.80
17:11:21.343750,-7.50
17:11:21.359375,-2.47
17:11:21.375000,2.89
17:11:21.390625,8.04
17:11:21.406250,12.52
17:11:21.421875,16.14
17:11:21.437500,18.90
17:11:21.453125,20.91
17:11:21.468750,22.24
17:11:21.484375,22.83
17:11:21.500000,22.60
17:11:21.515625,21.51
17:11:21.531250,19.70
17:11:21.546875,17.43
17:11:21.562500,15.03
17:11:21.578125,12.82
17:11:21.593750,10.98
17:11:21.609375,9.58
17:11:21.625000,8.54
17:11:21.640625,7.74
17:11:21.656250,6.99
17:11:21.671875,6.12
17:11:21.687500,5.04
17:11:21.703125,3.69
17:11:21.718750,2.14
17:11:21.734375,0.44
17:11:21.750000,-1.33
17:11:21.765625,-3.12
17:11:21.781250,-4.96
17:11:21.796875,-6.95
17:11:21.812500,-9.23
17:11:21.828125,-11.93
17:11:21.843750,-15.08
17:11:21.859375,-18.54
17:11:21.875000,-22.02
17:11:21.890625,-25.17
17:11:21.906250,-27.65
17:11:21.921875,-29.26
17:11:21.937500,-29.88
17:11:21.953125,-29.40
17:11:21.968750,-27.80
17:11:21.984375,-25.07
17:11:22,-21.30
17:11:22.015625,-16.77
17:11:22.031250,-11.83
17:11:22.046875,-6.89
17:11:22.062500,-2.20
17:11:22.078125,2.16
17:11:22.093750,6.30
17:11:22.109375,10.37
17:11:22.125000,14.41
17:11:22.140625,18.29
17:11:22.156250,21.74
17:11:22.171875,24.53
17:11:22.187500,26.56
17:11:22.203125,27.91
17:11:22.218750,28.76
17:11:22.234375,29.29
17:11:22.250000,29.52
17:11:22.265625,29.44
17:11:22.281250,28.95
17:11:22.296875,28.06
17:11:22.312500,26.88
17:11:22.328125,25.63
17:11:22.343750,24.52
17:11:22.359375,23.70
17:11:22.375000,23.17
17:11:22.390625,22.83
17:11:22.406250,22.53
17:11:22.421875,22.11
17:11:22.437500,21.48
17:11:22.453125,20.59
17:11:22.468750,19.47
17:11:22.484375,18.20
17:11:22.500000,16.91
17:11:22.515625,15.71
17:11:22.531250,14.61
17:11:22.546875,13.54
17:11:22.562500,12.29
17:11:22.578125,10.64
17:11:22.593750,8.45
17:11:22.609375,5.70
17:11:22.625000,2.50
17:11:22.640625,-0.90
17:11:22.656250,-4.20
17:11:22.671875,-7.12
17:11:22.687500,-9.37
17:11:22.703125,-10.77
17:11:22.718750,-11.21
17:11:22.734375,-10.72
17:11:22.750000,-9.42
17:11:22.765625,-7.51
17:11:22.781250,-5.25
17:11:22.796875,-2.91
17:11:22.812500,-0.73
17:11:22.828125,1.12
17:11:22.843750,2.60
17:11:22.859375,3.78
17:11:22.875000,4.85
17:11:22.890625,5.94
17:11:22.906250,7.09
17:11:22.921875,8.24
17:11:22.937500,9.22
17:11:22.953125,9.93
17:11:22.968750,10.37
17:11:22.984375,10.71
17:11:23,11.13
17:11:23.015625,11.76
17:11:23.031250,12.58
17:11:23.046875,13.46
17:11:23.062500,14.27
17:11:23.078125,14.88
17:11:23.093750,15.25
17:11:23.109375,15.34
17:11:23.125000,15.09
17:11:23.140625,14.38
17:11:23.156250,13.11
17:11:23.171875,11.29
17:11:23.187500,9.05
17:11:23.203125,6.58
17:11:23.218750,4.06
17:11:23.234375,1.58
17:11:23.250000,-0.89
17:11:23.265625,-3.46
17:11:23.281250,-6.23
17:11:23.296875,-9.25
17:11:23.312500,-12.47
17:11:23.328125,-15.80
17:11:23.343750,-19.16
17:11:23.359375,-22.48
17:11:23.375000,-25.69
17:11:23.390625,-28.66
17:11:23.406250,-31.24
17:11:23.421875,-33.20
17:11:23.437500,-34.32
17:11:23.453125,-34.43
17:11:23.468750,-33.52
17:11:23.484375,-31.64
17:11:23.500000,-28.97
17:11:23.515625,-25.68
17:11:23.531250,-21.93
17:11:23.546875,-17.85
17:11:23.562500,-13.61
17:11:23.578125,-9.38
17:11:23.593750,-5.39
17:11:23.609375,-1.90
17:11:23.625000,0.93
17:11:23.640625,3.02
17:11:23.656250,4.38
17:11:23.671875,5.09
17:11:23.687500,5.25
17:11:23.703125,4.94
17:11:23.718750,4.27
17:11:23.734375,3.34
17:11:23.750000,2.29
17:11:23.765625,1.29
17:11:23.781250,0.43
17:11:23.796875,-0.21
17:11:23.812500,-0.66
17:11:23.828125,-0.92
17:11:23.843750,-1.03
17:11:23.859375,-1.05
17:11:23.875000,-1.04
17:11:23.890625,-1.15
17:11:23.906250,-1.54
17:11:23.921875,-2.36
17:11:23.937500,-3.58
17:11:23.953125,-5.05
17:11:23.968750,-6.53
17:11:23.984375,-7.81
17:11:24,-8.92
17:11:24.015625,-10.16
17:11:24.031250,-12.00
17:11:24.046875,-14.82
17:11:24.062500,-18.75
17:11:24.078125,-23.45
17:11:24.093750,-28.28
17:11:24.109375,-32.43
17:11:24.125000,-35.27
17:11:24.140625,-36.54
17:11:24.156250,-36.30
17:11:24.171875,-34.87
17:11:24.187500,-32.57
17:11:24.203125,-29.62
17:11:24.218750,-26.08
17:11:24.234375,-21.89
17:11:24.250000,-17.02
17:11:24.265625,-11.56
17:11:24.281250,-5.77
17:11:24.296875,-0.01
17:11:24.312500,5.34
17:11:24.328125,10.02
17:11:24.343750,13.93
17:11:24.359375,17.09
17:11:24.375000,19.55
17:11:24.390625,21.38
17:11:24.406250,22.62
17:11:24.421875,23.33
17:11:24.437500,23.59
17:11:24.453125,23.51
17:11:24.468750,23.24
17:11:24.484375,22.85
17:11:24.500000,22.36
17:11:24.515625,21.71
17:11:24.531250,20.89
17:11:24.546875,19.90
17:11:24.562500,18.83
17:11:24.578125,17.77
17:11:24.593750,16.76
17:11:24.609375,15.74
17:11:24.625000,14.56
17:11:24.640625,13.05
17:11:24.656250,11.09
17:11:24.671875,8.73
17:11:24.687500,6.16
17:11:24.703125,3.57
17:11:24.718750,1.13
17:11:24.734375,-1.15
17:11:24.750000,-3.43
17:11:24.765625,-5.90
17:11:24.781250,-8.72
17:11:24.796875,-11.90
17:11:24.812500,-15.26
17:11:24.828125,-18.49
17:11:24.843750,-21.25
17:11:24.859375,-23.24
17:11:24.875000,-24.24
17:11:24.890625,-24.17
17:11:24.906250,-23.05
17:11:24.921875,-20.97
17:11:24.937500,-18.10
17:11:24.953125,-14.61
17:11:24.968750,-10.64
17:11:24.984375,-6.28
17:11:25,-1.56
17:11:25.015625,3.46
17:11:25.031250,8.67
17:11:25.046875,13.89
17:11:25.062500,18.84
17:11:25.078125,23.20
17:11:25.093750,26.78
17:11:25.109375,29.49
17:11:25.125000,31.44
17:11:25.140625,32.81
17:11:25.156250,33.77
17:11:25.171875,34.41
17:11:25.187500,34.75
17:11:25.203125,34.80
17:11:25.218750,34.64
17:11:25.234375,34.39
17:11:25.250000,34.21
17:11:25.265625,34.17
17:11:25.281250,34.23
17:11:25.296875,34.19
17:11:25.312500,33.77
17:11:25.328125,32.75
17:11:25.343750,31.03
17:11:25.359375,28.66
17:11:25.375000,25.83
17:11:25.390625,22.79
17:11:25.406250,19.74
17:11:25.421875,16.77
17:11:25.437500,13.80
17:11:25.453125,10.69
17:11:25.468750,7.24
17:11:25.484375,3.30
17:11:25.500000,-1.21
17:11:25.515625,-6.24
17:11:25.531250,-11.64
17:11:25.546875,-17.10
17:11:25.562500,-22.25
17:11:25.578125,-26.68
17:11:25.593750,-30.02
17:11:25.609375,-32.12
17:11:25.625000,-33.05
17:11:25.640625,-33.00
17:11:25.656250,-32.27
17:11:25.671875,-31.03
17:11:25.687500,-29.28
17:11:25.703125,-26.87
17:11:25.718750,-23.68
17:11:25.734375,-19.70
17:11:25.750000,-15.12
17:11:25.765625,-10.36
17:11:25.781250,-5.86
17:11:25.796875,-2.04
17:11:25.812500,0.87
17:11:25.828125,2.88
17:11:25.843750,4.13
17:11:25.859375,4.82
17:11:25.875000,5.11
17:11:25.890625,5.08
17:11:25.906250,4.72
17:11:25.921875,4.05
17:11:25.937500,3.18
17:11:25.953125,2.33
17:11:25.968750,1.69
17:11:25.984375,1.38
17:11:26,1.33
17:11:26.015625,1.31
17:11:26.031250,0.96
17:11:26.046875,0.01
17:11:26.062500,-1.64
17:11:26.078125,-3.90
17:11:26.093750,-6.49
17:11:26.109375,-9.06
17:11:26.125000,-11.39
17:11:26.140625,-13.43
17:11:26.156250,-15.31
17:11:26.171875,-17.22
17:11:26.187500,-19.37
17:11:26.203125,-21.90
17:11:26.218750,-24.83
17:11:26.234375,-28.12
17:11:26.250000,-31.62
17:11:26.265625,-35.09
17:11:26.281250,-38.17
17:11:26.296875,-40.46
17:11:26.312500,-41.59
17:11:26.328125,-41.32
17:11:26.343750,-39.57
17:11:26.359375,-36.50
17:11:26.375000,-32.37
17:11:26.390625,-27.50
17:11:26.406250,-22.20
17:11:26.421875,-16.71
17:11:26.437500,-11.19
17:11:26.453125,-5.72
17:11:26.468750,-0.36
17:11:26.484375,4.80
17:11:26.500000,9.57
17:11:26.515625,13.69
17:11:26.531250,16.88
17:11:26.546875,19.01
17:11:26.562500,20.17
17:11:26.578125,20.68
17:11:26.593750,20.93
17:11:26.609375,21.22
17:11:26.625000,21.61
17:11:26.640625,21.94
17:11:26.656250,22.00
17:11:26.671875,21.67
17:11:26.687500,21.03
17:11:26.703125,20.27
17:11:26.718750,19.60
17:11:26.734375,19.04
17:11:26.750000,18.43
17:11:26.765625,17.46
17:11:26.781250,15.85
17:11:26.796875,13.49
17:11:26.812500,10.53
17:11:26.828125,7.24
17:11:26.843750,3.93
17:11:26.859375,0.83
17:11:26.875000,-1.98
17:11:26.890625,-4.55
17:11:26.906250,-7.04
17:11:26.921875,-9.63
17:11:26.937500,-12.51
17:11:26.953125,-15.78
17:11:26.968750,-19.38
17:11:26.984375,-23.07
17:11:27,-26.41
17:11:27.015625,-28.93
17:11:27.031250,-30.22
17:11:27.046875,-30.10
17:11:27.062500,-28.64
17:11:27.078125,-26.09
17:11:27.093750,-22.71
17:11:27.109375,-18.68
17:11:27.125000,-14.06
17:11:27.140625,-8.88
17:11:27.156250,-3.17
17:11:27.171875,2.91
17:11:27.187500,9.13
17:11:27.203125,15.19
17:11:27.218750,20.75
17:11:27.234375,25.47
17:11:27.250000,29.05
17:11:27.265625,31.33
17:11:27.281250,32.36
17:11:27.296875,32.41
17:11:27.312500,31.94
17:11:27.328125,31.42
17:11:27.343750,31.23
17:11:27.359375,31.57
17:11:27.375000,32.42
17:11:27.390625,33.64
17:11:27.406250,35.02
17:11:27.421875,36.34
17:11:27.437500,37.43
17:11:27.453125,38.10
17:11:27.468750,38.18
17:11:27.484375,37.54
17:11:27.500000,36.12
17:11:27.515625,33.97
17:11:27.531250,31.25
17:11:27.546875,28.25
17:11:27.562500,25.27
17:11:27.578125,22.52
17:11:27.593750,20.10
17:11:27.609375,17.90
17:11:27.625000,15.67
17:11:27.640625,13.09
17:11:27.656250,9.93
17:11:27.671875,6.06
17:11:27.687500,1.51
17:11:27.703125,-3.51
17:11:27.718750,-8.68
17:11:27.734375,-13.60
17:11:27.750000,-17.88
17:11:27.765625,-21.16
17:11:27.781250,-23.26
17:11:27.796875,-24.14
17:11:27.812500,-23.90
17:11:27.828125,-22.71
17:11:27.843750,-20.69
17:11:27.859375,-17.93
17:11:27.875000,-14.51
17:11:27.890625,-10.51
17:11:27.906250,-6.09
17:11:27.921875,-1.48
17:11:27.937500,3.03
17:11:27.953125,7.21
17:11:27.968750,10.88
17:11:27.984375,13.92
17:11:28,16.31
17:11:28.015625,18.08
17:11:28.031250,19.34
17:11:28.046875,20.18
17:11:28.062500,20.75
17:11:28.078125,21.10
17:11:28.093750,21.30
17:11:28.109375,21.35
17:11:28.125000,21.21
17:11:28.140625,20.90
17:11:28.156250,20.43
17:11:28.171875,19.85
17:11:28.187500,19.17
17:11:28.203125,18.38
17:11:28.218750,17.36
17:11:28.234375,15.95
17:11:28.250000,14.01
17:11:28.265625,11.50
17:11:28.281250,8.54
17:11:28.296875,5.32
17:11:28.312500,2.10
17:11:28.328125,-1.02
17:11:28.343750,-4.08
17:11:28.359375,-7.32
17:11:28.375000,-11.01
17:11:28.390625,-15.35
17:11:28.406250,-20.35
17:11:28.421875,-25.78
17:11:28.437500,-31.24
17:11:28.453125,-36.28
17:11:28.468750,-40.47
17:11:28.484375,-43.49
17:11:28.500000,-45.18
17:11:28.515625,-45.50
17:11:28.531250,-44.55
17:11:28.546875,-42.46
17:11:28.562500,-39.36
17:11:28.578125,-35.36
17:11:28.593750,-30.58
17:11:28.609375,-25.17
17:11:28.625000,-19.35
17:11:28.640625,-13.39
17:11:28.656250,-7.59
17:11:28.671875,-2.17
17:11:28.687500,2.64
17:11:28.703125,6.70
17:11:28.718750,9.92
17:11:28.734375,12.30
17:11:28.750000,13.92
17:11:28.765625,14.95
17:11:28.781250,15.58
17:11:28.796875,15.95
17:11:28.812500,16.08
17:11:28.828125,15.96
17:11:28.843750,15.58
17:11:28.859375,14.98
17:11:28.875000,14.29
17:11:28.890625,13.64
17:11:28.906250,13.06
17:11:28.921875,12.50
17:11:28.937500,11.79
17:11:28.953125,10.75
17:11:28.968750,9.28
17:11:28.984375,7.41
17:11:29,5.22
17:11:29.015625,2.87
17:11:29.031250,0.53
17:11:29.046875,-1.70
17:11:29.062500,-3.81
17:11:29.078125,-5.85
17:11:29.093750,-7.96
17:11:29.109375,-10.30
17:11:29.125000,-13.03
17:11:29.140625,-16.23
17:11:29.156250,-19.90
17:11:29.171875,-23.95
17:11:29.187500,-28.17
17:11:29.203125,-32.24
17:11:29.218750,-35.71
17:11:29.234375,-38.16
17:11:29.250000,-39.26
17:11:29.265625,-38.95
17:11:29.281250,-37.45
17:11:29.296875,-35.07
17:11:29.312500,-32.15
17:11:29.328125,-28.79
17:11:29.343750,-24.92
17:11:29.359375,-20.35
17:11:29.375000,-14.97
17:11:29.390625,-8.88
17:11:29.406250,-2.39
17:11:29.421875,4.03
17:11:29.437500,9.93
17:11:29.453125,14.94
17:11:29.468750,18.86
17:11:29.484375,21.64
17:11:29.500000,23.36
17:11:29.515625,24.20
17:11:29.531250,24.41
17:11:29.546875,24.30
17:11:29.562500,24.11
17:11:29.578125,24.04
17:11:29.593750,24.19
17:11:29.609375,24.53
17:11:29.625000,25.00
17:11:29.640625,25.45
17:11:29.656250,25.75
17:11:29.671875,25.76
17:11:29.687500,25.36
17:11:29.703125,24.52
17:11:29.718750,23.28
17:11:29.734375,21.71
17:11:29.750000,19.95
17:11:29.765625,18.07
17:11:29.781250,16.12
17:11:29.796875,14.08
17:11:29.812500,11.95
17:11:29.828125,9.71
17:11:29.843750,7.37
17:11:29.859375,4.88
17:11:29.875000,2.15
17:11:29.890625,-0.98
17:11:29.906250,-4.64
17:11:29.921875,-8.84
17:11:29.937500,-13.43
17:11:29.953125,-18.05
17:11:29.968750,-22.29
17:11:29.984375,-25.72
17:11:30,-27.98
17:11:30.015625,-28.93
17:11:30.031250,-28.52
17:11:30.046875,-26.91
17:11:30.062500,-24.28
17:11:30.078125,-20.90
17:11:30.093750,-16.98
17:11:30.109375,-12.64
17:11:30.125000,-7.98
17:11:30.140625,-3.10
17:11:30.156250,1.84
17:11:30.171875,6.61
17:11:30.187500,10.95
17:11:30.203125,14.63
17:11:30.218750,17.53
17:11:30.234375,19.69
17:11:30.250000,21.25
17:11:30.265625,22.38
17:11:30.281250,23.29
17:11:30.296875,24.15
17:11:30.312500,25.02
17:11:30.328125,25.93
17:11:30.343750,26.84
17:11:30.359375,27.69
17:11:30.375000,28.46
17:11:30.390625,29.17
17:11:30.406250,29.80
17:11:30.421875,30.26
17:11:30.437500,30.40
17:11:30.453125,29.99
17:11:30.468750,28.91
17:11:30.484375,27.12
17:11:30.500000,24.76
17:11:30.515625,22.03
17:11:30.531250,19.10
17:11:30.546875,16.05
17:11:30.562500,12.85
17:11:30.578125,9.45
17:11:30.593750,5.81
17:11:30.609375,1.93
17:11:30.625000,-2.20
17:11:30.640625,-6.67
17:11:30.656250,-11.60
17:11:30.671875,-17.02
17:11:30.687500,-22.76
17:11:30.703125,-28.41
17:11:30.718750,-33.43
17:11:30.734375,-37.33
17:11:30.750000,-39.81
17:11:30.765625,-40.89
17:11:30.781250,-40.78
17:11:30.796875,-39.74
17:11:30.812500,-37.99
17:11:30.828125,-35.58
17:11:30.843750,-32.48
17:11:30.859375,-28.66
17:11:30.875000,-24.23
17:11:30.890625,-19.39
17:11:30.906250,-14.41
17:11:30.921875,-9.59
17:11:30.937500,-5.17
17:11:30.953125,-1.34
17:11:30.968750,1.81
17:11:30.984375,4.20
17:11:31,5.87
17:11:31.015625,6.96
17:11:31.031250,7.66
17:11:31.046875,8.25
17:11:31.062500,8.98
17:11:31.078125,10.03
17:11:31.093750,11.42
17:11:31.109375,13.07
17:11:31.125000,14.74
17:11:31.140625,16.17
17:11:31.156250,17.13
17:11:31.171875,17.44
17:11:31.187500,17.08
17:11:31.203125,16.09
17:11:31.218750,14.58
17:11:31.234375,12.65
17:11:31.250000,10.30
17:11:31.265625,7.50
17:11:31.281250,4.23
17:11:31.296875,0.61
17:11:31.312500,-3.13
17:11:31.328125,-6.68
17:11:31.343750,-9.74
17:11:31.359375,-12.25
17:11:31.375000,-14.34
17:11:31.390625,-16.38
17:11:31.406250,-18.78
17:11:31.421875,-21.82
17:11:31.437500,-25.52
17:11:31.453125,-29.67
17:11:31.468750,-33.92
17:11:31.484375,-37.88
17:11:31.500000,-41.22
17:11:31.515625,-43.73
17:11:31.531250,-45.17
17:11:31.546875,-45.37
17:11:31.562500,-44.20
17:11:31.578125,-41.57
17:11:31.593750,-37.57
17:11:31.609375,-32.38
17:11:31.625000,-26.31
17:11:31.640625,-19.64
17:11:31.656250,-12.65
17:11:31.671875,-5.52
17:11:31.687500,1.58
17:11:31.703125,8.45
17:11:31.718750,14.83
17:11:31.734375,20.44
17:11:31.750000,24.97
17:11:31.765625,28.21
17:11:31.781250,30.09
17:11:31.796875,30.69
17:11:31.812500,30.22
17:11:31.828125,28.97
17:11:31.843750,27.26
17:11:31.859375,25.32
17:11:31.875000,23.34
17:11:31.890625,21.40
17:11:31.906250,19.52
17:11:31.921875,17.66
17:11:31.937500,15.78
17:11:31.953125,13.83
17:11:31.968750,11.80
17:11:31.984375,9.68
17:11:32,7.53
17:11:32.015625,5.43
17:11:32.031250,3.44
17:11:32.046875,1.64
17:11:32.062500,0.12
17:11:32.078125,-1.11
17:11:32.093750,-2.06
17:11:32.109375,-2.82
17:11:32.125000,-3.54
17:11:32.140625,-4.46
17:11:32.156250,-5.81
17:11:32.171875,-7.78
17:11:32.187500,-10.46
17:11:32.203125,-13.78
17:11:32.218750,-17.50
17:11:32.234375,-21.28
17:11:32.250000,-24.74
17:11:32.265625,-27.54
17:11:32.281250,-29.39
17:11:32.296875,-30.17
17:11:32.312500,-29.85
17:11:32.328125,-28.52
17:11:32.343750,-26.41
17:11:32.359375,-23.73
17:11:32.375000,-20.72
17:11:32.390625,-17.55
17:11:32.406250,-14.30
17:11:32.421875,-11.01
17:11:32.437500,-7.74
17:11:32.453125,-4.59
17:11:32.468750,-1.74
17:11:32.484375,0.60
17:11:32.500000,2.28
17:11:32.515625,3.30
17:11:32.531250,3.83
17:11:32.546875,4.14
17:11:32.562500,4.48
17:11:32.578125,5.02
17:11:32.593750,5.78
17:11:32.609375,6.68
17:11:32.625000,7.57
17:11:32.640625,8.36
17:11:32.656250,9.04
17:11:32.671875,9.67
17:11:32.687500,10.33
17:11:32.703125,11.08
17:11:32.718750,11.92
17:11:32.734375,12.79
17:11:32.750000,13.61
17:11:32.765625,14.28
17:11:32.781250,14.69
17:11:32.796875,14.69
17:11:32.812500,14.08
17:11:32.828125,12.65
17:11:32.843750,10.23
17:11:32.859375,6.79
17:11:32.875000,2.48
17:11:32.890625,-2.43
17:11:32.906250,-7.60
17:11:32.921875,-12.77
17:11:32.937500,-17.75
17:11:32.953125,-22.41
17:11:32.968750,-26.63
17:11:32.984375,-30.21
17:11:33,-32.90
17:11:33.015625,-34.48
17:11:33.031250,-34.80
17:11:33.046875,-33.84
17:11:33.062500,-31.69
17:11:33.078125,-28.51
17:11:33.093750,-24.48
17:11:33.109375,-19.74
17:11:33.125000,-14.39
17:11:33.140625,-8.53
17:11:33.156250,-2.35
17:11:33.171875,3.89
17:11:33.187500,9.83
17:11:33.203125,15.03
17:11:33.218750,19.15
17:11:33.234375,21.99
17:11:33.250000,23.60
17:11:33.265625,24.31
17:11:33.281250,24.54
17:11:33.296875,24.72
17:11:33.312500,25.10
17:11:33.328125,25.70
17:11:33.343750,26.36
17:11:33.359375,26.87
17:11:33.375000,27.09
17:11:33.390625,26.99
17:11:33.406250,26.63
17:11:33.421875,26.10
17:11:33.437500,25.44
17:11:33.453125,24.63
17:11:33.468750,23.58
17:11:33.484375,22.16
17:11:33.500000,20.25
17:11:33.515625,17.78
17:11:33.531250,14.80
17:11:33.546875,11.46
17:11:33.562500,7.96
17:11:33.578125,4.47
17:11:33.593750,1.10
17:11:33.609375,-2.12
17:11:33.625000,-5.23
17:11:33.640625,-8.27
17:11:33.656250,-11.31
17:11:33.671875,-14.41
17:11:33.687500,-17.62
17:11:33.703125,-20.96
17:11:33.718750,-24.34
17:11:33.734375,-27.51
17:11:33.750000,-30.08
17:11:33.765625,-31.63
17:11:33.781250,-31.82
17:11:33.796875,-30.52
17:11:33.812500,-27.87
17:11:33.828125,-24.14
17:11:33.843750,-19.65
17:11:33.859375,-14.70
17:11:33.875000,-9.52
17:11:33.890625,-4.23
17:11:33.906250,1.07
17:11:33.921875,6.27
17:11:33.937500,11.23
17:11:33.953125,15.73
17:11:33.968750,19.51
17:11:33.984375,22.35
17:11:34,24.14
17:11:34.015625,24.92
17:11:34.031250,24.92
17:11:34.046875,24.44
17:11:34.062500,23.73
17:11:34.078125,22.90
17:11:34.093750,21.91
17:11:34.109375,20.68
17:11:34.125000,19.15
17:11:34.140625,17.45
17:11:34.156250,15.74
17:11:34.171875,14.27
17:11:34.187500,13.09
17:11:34.203125,12.06
17:11:34.218750,10.87
17:11:34.234375,9.12
17:11:34.250000,6.52
17:11:34.265625,2.96
17:11:34.281250,-1.44
17:11:34.296875,-6.38
17:11:34.312500,-11.53
17:11:34.328125,-16.60
17:11:34.343750,-21.43
17:11:34.359375,-25.98
17:11:34.375000,-30.34
17:11:34.390625,-34.62
17:11:34.406250,-38.88
17:11:34.421875,-42.99
17:11:34.437500,-46.59
17:11:34.453125,-49.07
17:11:34.468750,-49.67
17:11:34.484375,-47.77
17:11:34.500000,-43.00
17:11:34.515625,-35.50
17:11:34.531250,-25.87
17:11:34.546875,-15.06
17:11:34.562500,-4.13
17:11:34.578125,5.93
17:11:34.593750,14.44
17:11:34.609375,21.02
17:11:34.625000,25.67
17:11:34.640625,28.64
17:11:34.656250,30.36
17:11:34.671875,31.33
17:11:34.687500,31.95
17:11:34.703125,32.45
17:11:34.718750,32.85
17:11:34.734375,33.00
17:11:34.750000,32.73
17:11:34.765625,31.96
17:11:34.781250,30.75
17:11:34.796875,29.20
17:11:34.812500,27.40
17:11:34.828125,25.37
17:11:34.843750,23.10
17:11:34.859375,20.67
17:11:34.875000,18.26
17:11:34.890625,16.11
17:11:34.906250,14.45
17:11:34.921875,13.28
17:11:34.937500,12.41
17:11:34.953125,11.50
17:11:34.968750,10.27
17:11:34.984375,8.57
17:11:35,6.50
17:11:35.015625,4.33
17:11:35.031250,2.33
17:11:35.046875,0.73
17:11:35.062500,-0.43
17:11:35.078125,-1.27
17:11:35.093750,-2.04
17:11:35.109375,-3.03
17:11:35.125000,-4.49
17:11:35.140625,-6.53
17:11:35.156250,-9.13
17:11:35.171875,-12.12
17:11:35.187500,-15.25
17:11:35.203125,-18.26
17:11:35.218750,-20.96
17:11:35.234375,-23.24
17:11:35.250000,-25.03
17:11:35.265625,-26.26
17:11:35.281250,-26.82
17:11:35.296875,-26.53
17:11:35.312500,-25.23
17:11:35.328125,-22.76
17:11:35.343750,-19.14
17:11:35.359375,-14.61
17:11:35.375000,-9.57
17:11:35.390625,-4.54
17:11:35.406250,0.01
17:11:35.421875,3.78
17:11:35.437500,6.64
17:11:35.453125,8.70
17:11:35.468750,10.16
17:11:35.484375,11.27
17:11:35.500000,12.31
17:11:35.515625,13.46
17:11:35.531250,14.82
17:11:35.546875,16.35
17:11:35.562500,17.87
17:11:35.578125,19.13
17:11:35.593750,19.93
17:11:35.609375,20.16
17:11:35.625000,19.89
17:11:35.640625,19.30
17:11:35.656250,18.61
17:11:35.671875,17.90
17:11:35.687500,17.17
17:11:35.703125,16.31
17:11:35.718750,15.26
17:11:35.734375,14.02
17:11:35.750000,12.68
17:11:35.765625,11.35
17:11:35.781250,10.13
17:11:35.796875,9.03
17:11:35.812500,8.00
17:11:35.828125,6.96
17:11:35.843750,5.83
17:11:35.859375,4.55
17:11:35.875000,3.03
17:11:35.890625,1.21
17:11:35.906250,-0.89
17:11:35.921875,-3.14
17:11:35.937500,-5.29
17:11:35.953125,-6.94
17:11:35.968750,-7.69
17:11:35.984375,-7.21
17:11:36,-5.33
17:11:36.015625,-2.12
17:11:36.031250,2.20
17:11:36.046875,7.25
17:11:36.062500,12.59
17:11:36.078125,17.84
17:11:36.093750,22.66
17:11:36.109375,26.85
17:11:36.125000,30.34
17:11:36.140625,33.15
17:11:36.156250,35.40
17:11:36.171875,37.17
17:11:36.187500,38.60
17:11:36.203125,39.71
17:11:36.218750,40.53
17:11:36.234375,41.01
17:11:36.250000,41.06
17:11:36.265625,40.64
17:11:36.281250,39.77
17:11:36.296875,38.54
17:11:36.312500,37.16
17:11:36.328125,35.90
17:11:36.343750,34.92
17:11:36.359375,34.28
17:11:36.375000,33.83
17:11:36.390625,33.21
17:11:36.406250,32.10
17:11:36.421875,30.26
17:11:36.437500,27.68
17:11:36.453125,24.60
17:11:36.468750,21.38
17:11:36.484375,18.29
17:11:36.500000,15.49
17:11:36.515625,12.89
17:11:36.531250,10.30
17:11:36.546875,7.53
17:11:36.562500,4.43
17:11:36.578125,0.98
17:11:36.593750,-2.81
17:11:36.609375,-6.86
17:11:36.625000,-11.08
17:11:36.640625,-15.28
17:11:36.656250,-19.23
17:11:36.671875,-22.63
17:11:36.687500,-25.13
17:11:36.703125,-26.46
17:11:36.718750,-26.49
17:11:36.734375,-25.21
17:11:36.750000,-22.84
17:11:36.765625,-19.70
17:11:36.781250,-16.14
17:11:36.796875,-12.52
17:11:36.812500,-9.08
17:11:36.828125,-5.97
17:11:36.843750,-3.31
17:11:36.859375,-1.18
17:11:36.875000,0.35
17:11:36.890625,1.25
17:11:36.906250,1.60
17:11:36.921875,1.53
17:11:36.937500,1.26
17:11:36.953125,0.91
17:11:36.968750,0.57
17:11:36.984375,0.23
17:11:37,-0.14
17:11:37.015625,-0.50
17:11:37.031250,-0.78
17:11:37.046875,-0.93
17:11:37.062500,-0.96
17:11:37.078125,-1.03
17:11:37.093750,-1.35
17:11:37.109375,-2.16
17:11:37.125000,-3.54
17:11:37.140625,-5.43
17:11:37.156250,-7.61
17:11:37.171875,-9.87
17:11:37.187500,-12.00
17:11:37.203125,-13.95
17:11:37.218750,-15.75
17:11:37.234375,-17.49
17:11:37.250000,-19.26
17:11:37.265625,-21.18
17:11:37.281250,-23.33
17:11:37.296875,-25.76
17:11:37.312500,-28.47
17:11:37.328125,-31.28
17:11:37.343750,-33.90
17:11:37.359375,-35.98
17:11:37.375000,-37.23
17:11:37.390625,-37.53
17:11:37.406250,-36.97
17:11:37.421875,-35.78
17:11:37.437500,-34.16
17:11:37.453125,-32.20
17:11:37.468750,-29.81
17:11:37.484375,-26.86
17:11:37.500000,-23.34
17:11:37.515625,-19.45
17:11:37.531250,-15.58
17:11:37.546875,-12.15
17:11:37.562500,-9.47
17:11:37.578125,-7.58
17:11:37.593750,-6.30
17:11:37.609375,-5.34
17:11:37.625000,-4.45
17:11:37.640625,-3.53
17:11:37.656250,-2.62
17:11:37.671875,-1.83
17:11:37.687500,-1.23
17:11:37.703125,-0.82
17:11:37.718750,-0.48
17:11:37.734375,-0.03
17:11:37.750000,0.65
17:11:37.765625,1.54
17:11:37.781250,2.45
17:11:37.796875,3.12
17:11:37.812500,3.28
17:11:37.828125,2.78
17:11:37.843750,1.65
17:11:37.859375,0.01
17:11:37.875000,-1.93
17:11:37.890625,-3.99
17:11:37.906250,-6.06
17:11:37.921875,-8.10
17:11:37.937500,-10.07
17:11:37.953125,-12.00
17:11:37.968750,-13.97
17:11:37.984375,-16.15
17:11:38,-18.75
17:11:38.015625,-21.89
17:11:38.031250,-25.42
17:11:38.046875,-29.01
17:11:38.062500,-32.13
17:11:38.078125,-34.36
17:11:38.093750,-35.47
17:11:38.109375,-35.54
17:11:38.125000,-34.75
17:11:38.140625,-33.30
17:11:38.156250,-31.19
17:11:38.171875,-28.29
17:11:38.187500,-24.45
17:11:38.203125,-19.74
17:11:38.218750,-14.44
17:11:38.234375,-9.05
17:11:38.250000,-4.13
17:11:38.265625,-0.06
17:11:38.281250,3.03
17:11:38.296875,5.28
17:11:38.312500,6.98
17:11:38.328125,8.42
17:11:38.343750,9.83
17:11:38.359375,11.23
17:11:38.375000,12.55
17:11:38.390625,13.65
17:11:38.406250,14.42
17:11:38.421875,14.83
17:11:38.437500,14.94
17:11:38.453125,14.82
17:11:38.468750,14.50
17:11:38.484375,13.99
17:11:38.500000,13.28
17:11:38.515625,12.43
17:11:38.531250,11.50
17:11:38.546875,10.57
17:11:38.562500,9.65
17:11:38.578125,8.72
17:11:38.593750,7.71
17:11:38.609375,6.58
17:11:38.625000,5.35
17:11:38.640625,4.04
17:11:38.656250,2.63
17:11:38.671875,1.04
17:11:38.687500,-0.87
17:11:38.703125,-3.20
17:11:38.718750,-5.99
17:11:38.734375,-9.06
17:11:38.750000,-12.15
17:11:38.765625,-14.91
17:11:38.781250,-17.04
17:11:38.796875,-18.35
17:11:38.812500,-18.75
17:11:38.828125,-18.29
17:11:38.843750,-17.09
17:11:38.859375,-15.33
17:11:38.875000,-13.17
17:11:38.890625,-10.77
17:11:38.906250,-8.20
17:11:38.921875,-5.46
17:11:38.937500,-2.53
17:11:38.953125,0.64
17:11:38.968750,4.00
17:11:38.984375,7.43
17:11:39,10.71
17:11:39.015625,13.58
17:11:39.031250,15.88
17:11:39.046875,17.53
17:11:39.062500,18.60
17:11:39.078125,19.25
17:11:39.093750,19.70
17:11:39.109375,20.11
17:11:39.125000,20.56
17:11:39.140625,21.08
17:11:39.156250,21.61
17:11:39.171875,22.06
17:11:39.187500,22.38
17:11:39.203125,22.54
17:11:39.218750,22.54
17:11:39.234375,22.33
17:11:39.250000,21.86
17:11:39.265625,21.00
17:11:39.281250,19.64
17:11:39.296875,17.73
17:11:39.312500,15.38
17:11:39.328125,12.81
17:11:39.343750,10.25
17:11:39.359375,7.82
17:11:39.375000,5.45
17:11:39.390625,2.90
17:11:39.406250,-0.08
17:11:39.421875,-3.64
17:11:39.437500,-7.74
17:11:39.453125,-12.10
17:11:39.468750,-16.31
17:11:39.484375,-20.00
17:11:39.500000,-22.90
17:11:39.515625,-24.90
17:11:39.531250,-25.96
17:11:39.546875,-26.15
17:11:39.562500,-25.57
17:11:39.578125,-24.31
17:11:39.593750,-22.51
17:11:39.609375,-20.28
17:11:39.625000,-17.71
17:11:39.640625,-14.86
17:11:39.656250,-11.70
17:11:39.671875,-8.30
17:11:39.687500,-4.75
17:11:39.703125,-1.29
17:11:39.718750,1.82
17:11:39.734375,4.35
17:11:39.750000,6.18
17:11:39.765625,7.39
17:11:39.781250,8.10
17:11:39.796875,8.50
17:11:39.812500,8.73
17:11:39.828125,8.90
17:11:39.843750,9.09
17:11:39.859375,9.39
17:11:39.875000,9.80
17:11:39.890625,10.30
17:11:39.906250,10.79
17:11:39.921875,11.16
17:11:39.937500,11.31
17:11:39.953125,11.20
17:11:39.968750,10.84
17:11:39.984375,10.22
17:11:40,9.33
17:11:40.015625,8.14
17:11:40.031250,6.67
17:11:40.046875,4.97
17:11:40.062500,3.11
17:11:40.078125,1.13
17:11:40.093750,-0.95
17:11:40.109375,-3.17
17:11:40.125000,-5.53
17:11:40.140625,-8.03
17:11:40.156250,-10.62
17:11:40.171875,-13.28
17:11:40.187500,-15.92
17:11:40.203125,-18.40
17:11:40.218750,-20.47
17:11:40.234375,-21.80
17:11:40.250000,-22.12
17:11:40.265625,-21.26
17:11:40.281250,-19.36
17:11:40.296875,-16.75
17:11:40.312500,-13.84
17:11:40.328125,-10.90
17:11:40.343750,-7.99
17:11:40.359375,-4.88
17:11:40.375000,-1.24
17:11:40.390625,3.11
17:11:40.406250,8.09
17:11:40.421875,13.34
17:11:40.437500,18.33
17:11:40.453125,22.57
17:11:40.468750,25.77
17:11:40.484375,27.91
17:11:40.500000,29.12
17:11:40.515625,29.61
17:11:40.531250,29.52
17:11:40.546875,28.95
17:11:40.562500,27.96
17:11:40.578125,26.69
17:11:40.593750,25.35
17:11:40.609375,24.12
17:11:40.625000,23.08
17:11:40.640625,22.15
17:11:40.656250,21.16
17:11:40.671875,19.87
17:11:40.687500,18.16
17:11:40.703125,16.03
17:11:40.718750,13.59
17:11:40.734375,11.01
17:11:40.750000,8.42
17:11:40.765625,5.92
17:11:40.781250,3.54
17:11:40.796875,1.26
17:11:40.812500,-0.98
17:11:40.828125,-3.30
17:11:40.843750,-5.78
17:11:40.859375,-8.52
17:11:40.875000,-11.56
17:11:40.890625,-14.89
17:11:40.906250,-18.45
17:11:40.921875,-22.11
17:11:40.937500,-25.67
17:11:40.953125,-28.86
17:11:40.968750,-31.46
17:11:40.984375,-33.25
17:11:41,-34.16
17:11:41.015625,-34.21
17:11:41.031250,-33.47
17:11:41.046875,-31.98
17:11:41.062500,-29.81
17:11:41.078125,-26.95
17:11:41.093750,-23.47
17:11:41.109375,-19.50
17:11:41.125000,-15.25
17:11:41.140625,-10.96
17:11:41.156250,-6.80
17:11:41.171875,-2.89
17:11:41.187500,0.73
17:11:41.203125,3.99
17:11:41.218750,6.78
17:11:41.234375,8.93
17:11:41.250000,10.31
17:11:41.265625,10.86
17:11:41.281250,10.70
17:11:41.296875,10.05
17:11:41.312500,9.17
17:11:41.328125,8.29
17:11:41.343750,7.52
17:11:41.359375,6.94
17:11:41.375000,6.52
17:11:41.390625,6.20
17:11:41.406250,5.87
17:11:41.421875,5.43
17:11:41.437500,4.74
17:11:41.453125,3.76
17:11:41.468750,2.41
17:11:41.484375,0.76
17:11:41.500000,-1.14
17:11:41.515625,-3.19
17:11:41.531250,-5.30
17:11:41.546875,-7.39
17:11:41.562500,-9.42
17:11:41.578125,-11.32
17:11:41.593750,-13.09
17:11:41.609375,-14.80
17:11:41.625000,-16.55
17:11:41.640625,-18.50
17:11:41.656250,-20.80
17:11:41.671875,-23.50
17:11:41.687500,-26.57
17:11:41.703125,-29.84
17:11:41.718750,-33.08
17:11:41.734375,-35.97
17:11:41.750000,-38.20
17:11:41.765625,-39.51
17:11:41.781250,-39.78
17:11:41.796875,-39.04
17:11:41.812500,-37.40
17:11:41.828125,-35.07
17:11:41.843750,-32.20
17:11:41.859375,-28.91
17:11:41.875000,-25.23
17:11:41.890625,-21.18
17:11:41.906250,-16.77
17:11:41.921875,-11.99
17:11:41.937500,-6.92
17:11:41.953125,-1.69
17:11:41.968750,3.45
17:11:41.984375,8.14
17:11:42,12.06
17:11:42.015625,14.96
17:11:42.031250,16.88
17:11:42.046875,18.03
17:11:42.062500,18.81
17:11:42.078125,19.52
17:11:42.093750,20.30
17:11:42.109375,21.02
17:11:42.125000,21.44
17:11:42.140625,21.35
17:11:42.156250,20.71
17:11:42.171875,19.66
17:11:42.187500,18.43
17:11:42.203125,17.20
17:11:42.218750,16.04
17:11:42.234375,14.88
17:11:42.250000,13.57
17:11:42.265625,11.99
17:11:42.281250,10.13
17:11:42.296875,8.00
17:11:42.312500,5.65
17:11:42.328125,3.18
17:11:42.343750,0.66
17:11:42.359375,-1.76
17:11:42.375000,-3.99
17:11:42.390625,-5.94
17:11:42.406250,-7.65
17:11:42.421875,-9.30
17:11:42.437500,-11.16
17:11:42.453125,-13.50
17:11:42.468750,-16.45
17:11:42.484375,-19.92
17:11:42.500000,-23.58
17:11:42.515625,-26.98
17:11:42.531250,-29.64
17:11:42.546875,-31.21
17:11:42.562500,-31.55
17:11:42.578125,-30.72
17:11:42.593750,-28.97
17:11:42.609375,-26.57
17:11:42.625000,-23.76
17:11:42.640625,-20.63
17:11:42.656250,-17.17
17:11:42.671875,-13.25
17:11:42.687500,-8.77
17:11:42.703125,-3.78
17:11:42.718750,1.54
17:11:42.734375,6.83
17:11:42.750000,11.72
17:11:42.765625,15.88
17:11:42.781250,19.16
17:11:42.796875,21.56
17:11:42.812500,23.22
17:11:42.828125,24.32
17:11:42.843750,25.04
17:11:42.859375,25.48
17:11:42.875000,25.69
17:11:42.890625,25.69
17:11:42.906250,25.51
17:11:42.921875,25.20
17:11:42.937500,24.77
17:11:42.953125,24.25
17:11:42.968750,23.61
17:11:42.984375,22.79
17:11:43,21.79
17:11:43.015625,20.62
17:11:43.031250,19.35
17:11:43.046875,18.07
17:11:43.062500,16.84
17:11:43.078125,15.65
17:11:43.093750,14.44
17:11:43.109375,13.13
17:11:43.125000,11.63
17:11:43.140625,9.93
17:11:43.156250,8.04
17:11:43.171875,6.02
17:11:43.187500,3.92
17:11:43.203125,1.77
17:11:43.218750,-0.42
17:11:43.234375,-2.68
17:11:43.250000,-5.08
17:11:43.265625,-7.67
17:11:43.281250,-10.45
17:11:43.296875,-13.32
17:11:43.312500,-16.06
17:11:43.328125,-18.34
17:11:43.343750,-19.87
17:11:43.359375,-20.48
17:11:43.375000,-20.20
17:11:43.390625,-19.24
17:11:43.406250,-17.87
17:11:43.421875,-16.29
17:11:43.437500,-14.50
17:11:43.453125,-12.35
17:11:43.468750,-9.58
17:11:43.484375,-6.06
17:11:43.500000,-1.83
17:11:43.515625,2.83
17:11:43.531250,7.51
17:11:43.546875,11.74
17:11:43.562500,15.19
17:11:43.578125,17.68
17:11:43.593750,19.21
17:11:43.609375,19.93
17:11:43.625000,20.09
17:11:43.640625,19.94
17:11:43.656250,19.74
17:11:43.671875,19.70
17:11:43.687500,19.93
17:11:43.703125,20.45
17:11:43.718750,21.18
17:11:43.734375,21.91
17:11:43.750000,22.45
17:11:43.765625,22.63
17:11:43.781250,22.41
17:11:43.796875,21.84
17:11:43.812500,21.03
17:11:43.828125,20.04
17:11:43.843750,18.85
17:11:43.859375,17.32
17:11:43.875000,15.29
17:11:43.890625,12.72
17:11:43.906250,9.65
17:11:43.921875,6.23
17:11:43.937500,2.66
17:11:43.953125,-0.96
17:11:43.968750,-4.57
17:11:43.984375,-8.17
17:11:44,-11.80
17:11:44.015625,-15.45
17:11:44.031250,-19.07
17:11:44.046875,-22.61
17:11:44.062500,-25.99
17:11:44.078125,-29.07
17:11:44.093750,-31.64
17:11:44.109375,-33.44
17:11:44.125000,-34.21
17:11:44.140625,-33.86
17:11:44.156250,-32.46
17:11:44.171875,-30.24
17:11:44.187500,-27.51
17:11:44.203125,-24.47
17:11:44.218750,-21.20
17:11:44.234375,-17.63
17:11:44.250000,-13.70
17:11:44.265625,-9.43
17:11:44.281250,-5.00
17:11:44.296875,-0.71
17:11:44.312500,3.11
17:11:44.328125,6.24
17:11:44.343750,8.56
17:11:44.359375,10.09
17:11:44.375000,10.92
17:11:44.390625,11.22
17:11:44.406250,11.18
17:11:44.421875,10.94
17:11:44.437500,10.65
17:11:44.453125,10.39
17:11:44.468750,10.22
17:11:44.484375,10.13
17:11:44.500000,10.07
17:11:44.515625,9.95
17:11:44.531250,9.62
17:11:44.546875,9.00
17:11:44.562500,8.03
17:11:44.578125,6.78
17:11:44.593750,5.37
17:11:44.609375,3.97
17:11:44.625000,2.66
17:11:44.640625,1.43
17:11:44.656250,0.22
17:11:44.671875,-1.06
17:11:44.687500,-2.39
17:11:44.703125,-3.71
17:11:44.718750,-4.92
17:11:44.734375,-6.02
17:11:44.750000,-7.10
17:11:44.765625,-8.36
17:11:44.781250,-10.01
17:11:44.796875,-12.21
17:11:44.812500,-15.02
17:11:44.828125,-18.31
17:11:44.843750,-21.86
17:11:44.859375,-25.31
17:11:44.875000,-28.26
17:11:44.890625,-30.35
17:11:44.906250,-31.33
17:11:44.921875,-31.13
17:11:44.937500,-29.79
17:11:44.953125,-27.46
17:11:44.968750,-24.29
17:11:44.984375,-20.49
17:11:45,-16.23
17:11:45.015625,-11.71
17:11:45.031250,-7.16
17:11:45.046875,-2.77
17:11:45.062500,1.29
17:11:45.078125,4.96
17:11:45.093750,8.18
17:11:45.109375,10.95
17:11:45.125000,13.18
17:11:45.140625,14.85
17:11:45.156250,15.92
17:11:45.171875,16.43
17:11:45.187500,16.53
17:11:45.203125,16.37
17:11:45.218750,16.15
17:11:45.234375,16.02
17:11:45.250000,16.03
17:11:45.265625,16.13
17:11:45.281250,16.27
17:11:45.296875,16.38
17:11:45.312500,16.40
17:11:45.328125,16.37
17:11:45.343750,16.32
17:11:45.359375,16.33
17:11:45.375000,16.37
17:11:45.390625,16.32
17:11:45.406250,15.95
17:11:45.421875,15.00
17:11:45.437500,13.36
17:11:45.453125,11.06
17:11:45.468750,8.36
17:11:45.484375,5.57
17:11:45.500000,2.93
17:11:45.515625,0.54
17:11:45.531250,-1.66
17:11:45.546875,-3.80
17:11:45.562500,-6.03
17:11:45.578125,-8.39
17:11:45.593750,-10.90
17:11:45.609375,-13.44
17:11:45.625000,-15.87
17:11:45.640625,-17.98
17:11:45.656250,-19.53
17:11:45.671875,-20.35
17:11:45.687500,-20.34
17:11:45.703125,-19.55
17:11:45.718750,-18.14
17:11:45.734375,-16.28
17:11:45.750000,-14.08
17:11:45.765625,-11.58
17:11:45.781250,-8.75
17:11:45.796875,-5.58
17:11:45.812500,-2.12
17:11:45.828125,1.51
17:11:45.843750,5.16
17:11:45.859375,8.64
17:11:45.875000,11.78
17:11:45.890625,14.34
17:11:45.906250,16.20
17:11:45.921875,17.28
17:11:45.937500,17.70
17:11:45.953125,17.65
17:11:45.968750,17.36
17:11:45.984375,16.99
17:11:46,16.56
17:11:46.015625,16.04
17:11:46.031250,15.43
17:11:46.046875,14.83
17:11:46.062500,14.41
17:11:46.078125,14.39
17:11:46.093750,14.78
17:11:46.109375,15.38
17:11:46.125000,15.86
17:11:46.140625,15.87
17:11:46.156250,15.25
17:11:46.171875,14.07
17:11:46.187500,12.58
17:11:46.203125,11.10
17:11:46.218750,9.78
17:11:46.234375,8.58
17:11:46.250000,7.28
17:11:46.265625,5.58
17:11:46.281250,3.29
17:11:46.296875,0.35
17:11:46.312500,-3.12
17:11:46.328125,-6.84
17:11:46.343750,-10.49
17:11:46.359375,-13.74
17:11:46.375000,-16.27
17:11:46.390625,-17.89
17:11:46.406250,-18.50
17:11:46.421875,-18.10
17:11:46.437500,-16.80
17:11:46.453125,-14.77
17:11:46.468750,-12.17
17:11:46.484375,-9.12
17:11:46.500000,-5.74
17:11:46.515625,-2.06
17:11:46.531250,1.86
17:11:46.546875,5.95
17:11:46.562500,10.08
17:11:46.578125,14.04
17:11:46.593750,17.57
17:11:46.609375,20.40
17:11:46.625000,22.38
17:11:46.640625,23.46
17:11:46.656250,23.78
17:11:46.671875,23.54
17:11:46.687500,22.90
17:11:46.703125,22.04
17:11:46.718750,21.01
17:11:46.734375,19.89
17:11:46.750000,18.75
17:11:46.765625,17.64
17:11:46.781250,16.62
17:11:46.796875,15.65
17:11:46.812500,14.64
17:11:46.828125,13.41
17:11:46.843750,11.83
17:11:46.859375,9.81
17:11:46.875000,7.38
17:11:46.890625,4.68
17:11:46.906250,1.93
17:11:46.921875,-0.68
17:11:46.937500,-3.05
17:11:46.953125,-5.12
17:11:46.968750,-7.05
17:11:46.984375,-9.03
17:11:47,-11.31
17:11:47.015625,-14.01
17:11:47.031250,-17.17
17:11:47.046875,-20.69
17:11:47.062500,-24.37
17:11:47.078125,-28.00
17:11:47.093750,-31.35
17:11:47.109375,-34.21
17:11:47.125000,-36.37
17:11:47.140625,-37.62
17:11:47.156250,-37.86
17:11:47.171875,-37.11
17:11:47.187500,-35.51
17:11:47.203125,-33.22
17:11:47.218750,-30.39
17:11:47.234375,-27.05
17:11:47.250000,-23.20
17:11:47.265625,-18.86
17:11:47.281250,-14.16
17:11:47.296875,-9.46
17:11:47.312500,-5.14
17:11:47.328125,-1.56
17:11:47.343750,1.13
17:11:47.359375,2.98
17:11:47.375000,4.18
17:11:47.390625,4.93
17:11:47.406250,5.34
17:11:47.421875,5.47
17:11:47.437500,5.35
17:11:47.453125,5.08
17:11:47.468750,4.74
17:11:47.484375,4.48
17:11:47.500000,4.30
17:11:47.515625,4.18
17:11:47.531250,4.08
17:11:47.546875,3.94
17:11:47.562500,3.76
17:11:47.578125,3.49
17:11:47.593750,3.07
17:11:47.609375,2.36
17:11:47.625000,1.27
17:11:47.640625,-0.24
17:11:47.656250,-2.08
17:11:47.671875,-4.04
17:11:47.687500,-5.95
17:11:47.703125,-7.73
17:11:47.718750,-9.45
17:11:47.734375,-11.28
17:11:47.750000,-13.33
17:11:47.765625,-15.66
17:11:47.781250,-18.24
17:11:47.796875,-20.99
17:11:47.812500,-23.87
17:11:47.828125,-26.81
17:11:47.843750,-29.66
17:11:47.859375,-32.16
17:11:47.875000,-33.94
17:11:47.890625,-34.68
17:11:47.906250,-34.17
17:11:47.921875,-32.49
17:11:47.937500,-29.86
17:11:47.953125,-26.66
17:11:47.968750,-23.13
17:11:47.984375,-19.45
17:11:48,-15.61
17:11:48.015625,-11.60
17:11:48.031250,-7.47
17:11:48.046875,-3.36
17:11:48.062500,0.53
17:11:48.078125,3.98
17:11:48.093750,6.87
17:11:48.109375,9.20
17:11:48.125000,11.07
17:11:48.140625,12.58
17:11:48.156250,13.83
17:11:48.171875,14.82
17:11:48.187500,15.56
17:11:48.203125,16.07
17:11:48.218750,16.45
17:11:48.234375,16.83
17:11:48.250000,17.26
17:11:48.265625,17.65
17:11:48.281250,17.75
17:11:48.296875,17.27
17:11:48.312500,15.98
17:11:48.328125,13.88
17:11:48.343750,11.17
17:11:48.359375,8.22
17:11:48.375000,5.41
17:11:48.390625,2.99
17:11:48.406250,1.09
17:11:48.421875,-0.36
17:11:48.437500,-1.49
17:11:48.453125,-2.52
17:11:48.468750,-3.67
17:11:48.484375,-5.16
17:11:48.500000,-7.18
17:11:48.515625,-9.84
17:11:48.531250,-13.22
17:11:48.546875,-17.17
17:11:48.562500,-21.42
17:11:48.578125,-25.53
17:11:48.593750,-29.00
17:11:48.609375,-31.43
17:11:48.625000,-32.61
17:11:48.640625,-32.62
17:11:48.656250,-31.67
17:11:48.671875,-30.01
17:11:48.687500,-27.80
17:11:48.703125,-25.00
17:11:48.718750,-21.46
17:11:48.734375,-17.07
17:11:48.750000,-11.82
17:11:48.765625,-5.85
17:11:48.781250,0.52
17:11:48.796875,6.89
17:11:48.812500,12.84
17:11:48.828125,18.00
17:11:48.843750,22.09
17:11:48.859375,24.98
17:11:48.875000,26.66
17:11:48.890625,27.24
17:11:48.906250,26.95
17:11:48.921875,26.00
17:11:48.937500,24.62
17:11:48.953125,23.03
17:11:48.968750,21.39
17:11:48.984375,19.87
17:11:49,18.59
17:11:49.015625,17.54
17:11:49.031250,16.59
17:11:49.046875,15.59
17:11:49.062500,14.37
17:11:49.078125,12.89
17:11:49.093750,11.20
17:11:49.109375,9.45
17:11:49.125000,7.75
17:11:49.140625,6.13
17:11:49.156250,4.54
17:11:49.171875,2.85
17:11:49.187500,0.93
17:11:49.203125,-1.27
17:11:49.218750,-3.77
17:11:49.234375,-6.56
17:11:49.250000,-9.60
17:11:49.265625,-12.89
17:11:49.281250,-16.42
17:11:49.296875,-20.13
17:11:49.312500,-23.80
17:11:49.328125,-27.11
17:11:49.343750,-29.58
17:11:49.359375,-30.77
17:11:49.375000,-30.41
17:11:49.390625,-28.46
17:11:49.406250,-25.14
17:11:49.421875,-20.85
17:11:49.437500,-15.95
17:11:49.453125,-10.67
17:11:49.468750,-5.12
17:11:49.484375,0.64
17:11:49.500000,6.48
17:11:49.515625,12.16
17:11:49.531250,17.38
17:11:49.546875,21.86
17:11:49.562500,25.40
17:11:49.578125,27.97
17:11:49.593750,29.63
17:11:49.609375,30.51
17:11:49.625000,30.78
17:11:49.640625,30.59
17:11:49.656250,30.12
17:11:49.671875,29.48
17:11:49.687500,28.74
17:11:49.703125,27.86
17:11:49.718750,26.80
17:11:49.734375,25.53
17:11:49.750000,24.13
17:11:49.765625,22.72
17:11:49.781250,21.44
17:11:49.796875,20.34
17:11:49.812500,19.34
17:11:49.828125,18.28
17:11:49.843750,16.99
17:11:49.859375,15.35
17:11:49.875000,13.36
17:11:49.890625,11.13
17:11:49.906250,8.78
17:11:49.921875,6.43
17:11:49.937500,4.12
17:11:49.953125,1.82
17:11:49.968750,-0.54
17:11:49.984375,-3.07
17:11:50,-5.89
17:11:50.015625,-9.06
17:11:50.031250,-12.53
17:11:50.046875,-16.08
17:11:50.062500,-19.35
17:11:50.078125,-21.91
17:11:50.093750,-23.41
17:11:50.109375,-23.70
17:11:50.125000,-22.89
17:11:50.140625,-21.23
17:11:50.156250,-18.99
17:11:50.171875,-16.27
17:11:50.187500,-13.03
17:11:50.203125,-9.12
17:11:50.218750,-4.46
17:11:50.234375,0.77
17:11:50.250000,6.24
17:11:50.265625,11.45
17:11:50.281250,16.00
17:11:50.296875,19.67
17:11:50.312500,22.41
17:11:50.328125,24.36
17:11:50.343750,25.66
17:11:50.359375,26.46
17:11:50.375000,26.88
17:11:50.390625,27.04
17:11:50.406250,27.02
17:11:50.421875,26.90
17:11:50.437500,26.74
17:11:50.453125,26.53
17:11:50.468750,26.30
17:11:50.484375,26.01
17:11:50.500000,25.64
17:11:50.515625,25.16
17:11:50.531250,24.48
17:11:50.546875,23.52
17:11:50.562500,22.23
17:11:50.578125,20.62
17:11:50.593750,18.79
17:11:50.609375,16.85
17:11:50.625000,14.92
17:11:50.640625,12.97
17:11:50.656250,10.93
17:11:50.671875,8.67
17:11:50.687500,6.07
17:11:50.703125,3.09
17:11:50.718750,-0.30
17:11:50.734375,-4.08
17:11:50.750000,-8.26
17:11:50.765625,-12.73
17:11:50.781250,-17.28
17:11:50.796875,-21.56
17:11:50.812500,-25.12
17:11:50.828125,-27.53
17:11:50.843750,-28.56
17:11:50.859375,-28.23
17:11:50.875000,-26.79
17:11:50.890625,-24.57
17:11:50.906250,-21.84
17:11:50.921875,-18.73
17:11:50.937500,-15.20
17:11:50.953125,-11.15
17:11:50.968750,-6.59
17:11:50.984375,-1.71
17:11:51,3.14
17:11:51.015625,7.57
17:11:51.031250,11.23
17:11:51.046875,13.96
17:11:51.062500,15.81
17:11:51.078125,16.92
17:11:51.093750,17.50
17:11:51.109375,17.68
17:11:51.125000,17.55
17:11:51.140625,17.14
17:11:51.156250,16.47
17:11:51.171875,15.57
17:11:51.187500,14.48
17:11:51.203125,13.27
17:11:51.218750,12.05
17:11:51.234375,10.91
17:11:51.250000,9.92
17:11:51.265625,9.15
17:11:51.281250,8.55
17:11:51.296875,8.00
17:11:51.312500,7.31
17:11:51.328125,6.32
17:11:51.343750,4.89
17:11:51.359375,3.01
17:11:51.375000,0.75
17:11:51.390625,-1.79
17:11:51.406250,-4.57
17:11:51.421875,-7.52
17:11:51.437500,-10.64
17:11:51.453125,-13.88
17:11:51.468750,-17.16
17:11:51.484375,-20.47
17:11:51.500000,-23.79
17:11:51.515625,-27.08
17:11:51.531250,-30.25
17:11:51.546875,-33.05
17:11:51.562500,-35.12
17:11:51.578125,-36.12
17:11:51.593750,-35.84
17:11:51.609375,-34.25
17:11:51.625000,-31.56
17:11:51.640625,-28.01
17:11:51.656250,-23.83
17:11:51.671875,-19.16
17:11:51.687500,-14.08
17:11:51.703125,-8.70
17:11:51.718750,-3.22
17:11:51.734375,2.15
17:11:51.750000,7.14
17:11:51.765625,11.52
17:11:51.781250,15.13
17:11:51.796875,17.84
17:11:51.812500,19.60
17:11:51.828125,20.46
17:11:51.843750,20.61
17:11:51.859375,20.32
17:11:51.875000,19.86
17:11:51.890625,19.47
17:11:51.906250,19.23
17:11:51.921875,19.09
17:11:51.937500,18.91
17:11:51.953125,18.54
17:11:51.968750,17.89
17:11:51.984375,16.95
17:11:52,15.77
17:11:52.015625,14.44
17:11:52.031250,13.03
17:11:52.046875,11.58
17:11:52.062500,10.14
17:11:52.078125,8.67
17:11:52.093750,7.14
17:11:52.109375,5.49
17:11:52.125000,3.62
17:11:52.140625,1.49
17:11:52.156250,-0.96
17:11:52.171875,-3.76
17:11:52.187500,-6.94
17:11:52.203125,-10.52
17:11:52.218750,-14.46
17:11:52.234375,-18.68
17:11:52.250000,-23.02
17:11:52.265625,-27.18
17:11:52.281250,-30.77
17:11:52.296875,-33.39
17:11:52.312500,-34.71
17:11:52.328125,-34.59
17:11:52.343750,-33.06
17:11:52.359375,-30.37
17:11:52.375000,-26.86
17:11:52.390625,-22.82
17:11:52.406250,-18.42
17:11:52.421875,-13.74
17:11:52.437500,-8.79
17:11:52.453125,-3.63
17:11:52.468750,1.58
17:11:52.484375,6.57
17:11:52.500000,11.08
17:11:52.515625,14.90
17:11:52.531250,17.93
17:11:52.546875,20.18
17:11:52.562500,21.69
17:11:52.578125,22.54
17:11:52.593750,22.79
17:11:52.609375,22.59
17:11:52.625000,22.08
17:11:52.640625,21.49
17:11:52.656250,20.96
17:11:52.671875,20.55
17:11:52.687500,20.22
17:11:52.703125,19.83
17:11:52.718750,19.29
17:11:52.734375,18.57
17:11:52.750000,17.71
17:11:52.765625,16.78
17:11:52.781250,15.79
17:11:52.796875,14.69
17:11:52.812500,13.38
17:11:52.828125,11.80
17:11:52.843750,10.02
17:11:52.859375,8.16
17:11:52.875000,6.34
17:11:52.890625,4.65
17:11:52.906250,3.01
17:11:52.921875,1.21
17:11:52.937500,-0.99
17:11:52.953125,-3.78
17:11:52.968750,-7.21
17:11:52.984375,-11.13
17:11:53,-15.26
17:11:53.015625,-19.23
17:11:53.031250,-22.67
17:11:53.046875,-25.25
17:11:53.062500,-26.74
17:11:53.078125,-27.05
17:11:53.093750,-26.17
17:11:53.109375,-24.24
17:11:53.125000,-21.42
17:11:53.140625,-17.93
17:11:53.156250,-13.93
17:11:53.171875,-9.53
17:11:53.187500,-4.76
17:11:53.203125,0.34
17:11:53.218750,5.69
17:11:53.234375,11.02
17:11:53.250000,15.98
17:11:53.265625,20.16
17:11:53.281250,23.30
17:11:53.296875,25.34
17:11:53.312500,26.46
17:11:53.328125,27.00
17:11:53.343750,27.28
17:11:53.359375,27.46
17:11:53.375000,27.59
17:11:53.390625,27.57
17:11:53.406250,27.39
17:11:53.421875,27.10
17:11:53.437500,26.83
17:11:53.453125,26.69
17:11:53.468750,26.69
17:11:53.484375,26.65
17:11:53.500000,26.31
17:11:53.515625,25.44
17:11:53.531250,23.88
17:11:53.546875,21.68
17:11:53.562500,19.07
17:11:53.578125,16.30
17:11:53.593750,13.62
17:11:53.609375,11.13
17:11:53.625000,8.81
17:11:53.640625,6.44
17:11:53.656250,3.76
17:11:53.671875,0.53
17:11:53.687500,-3.38
17:11:53.703125,-7.92
17:11:53.718750,-12.90
17:11:53.734375,-17.94
17:11:53.750000,-22.62
17:11:53.765625,-26.47
17:11:53.781250,-29.18
17:11:53.796875,-30.56
17:11:53.812500,-30.65
17:11:53.828125,-29.65
17:11:53.843750,-27.82
17:11:53.859375,-25.40
17:11:53.875000,-22.54
17:11:53.890625,-19.29
17:11:53.906250,-15.67
17:11:53.921875,-11.75
17:11:53.937500,-7.69
17:11:53.953125,-3.71
17:11:53.968750,-0.07
17:11:53.984375,3.05
17:11:54,5.51
17:11:54.015625,7.30
17:11:54.031250,8.43
17:11:54.046875,8.96
17:11:54.062500,8.99
17:11:54.078125,8.67
17:11:54.093750,8.18
17:11:54.109375,7.73
17:11:54.125000,7.50
17:11:54.140625,7.60
17:11:54.156250,8.01
17:11:54.171875,8.60
17:11:54.187500,9.23
17:11:54.203125,9.72
17:11:54.218750,9.98
17:11:54.234375,9.96
17:11:54.250000,9.59
17:11:54.265625,8.78
17:11:54.281250,7.42
17:11:54.296875,5.50
17:11:54.312500,3.08
17:11:54.328125,0.41
17:11:54.343750,-2.26
17:11:54.359375,-4.72
17:11:54.375000,-6.97
17:11:54.390625,-9.20
17:11:54.406250,-11.71
17:11:54.421875,-14.78
17:11:54.437500,-18.52
17:11:54.453125,-22.84
17:11:54.468750,-27.43
17:11:54.484375,-31.87
17:11:54.500000,-35.72
17:11:54.515625,-38.58
17:11:54.531250,-40.16
17:11:54.546875,-40.29
17:11:54.562500,-38.96
17:11:54.578125,-36.30
17:11:54.593750,-32.57
17:11:54.609375,-28.08
17:11:54.625000,-23.13
17:11:54.640625,-17.91
17:11:54.656250,-12.55
17:11:54.671875,-7.13
17:11:54.687500,-1.78
17:11:54.703125,3.27
17:11:54.718750,7.76
17:11:54.734375,11.46
17:11:54.750000,14.21
17:11:54.765625,16.06
17:11:54.781250,17.12
17:11:54.796875,17.57
17:11:54.812500,17.59
17:11:54.828125,17.38
17:11:54.843750,17.10
17:11:54.859375,16.85
17:11:54.875000,16.68
17:11:54.890625,16.56
17:11:54.906250,16.37
17:11:54.921875,16.03
17:11:54.937500,15.53
17:11:54.953125,14.88
17:11:54.968750,14.07
17:11:54.984375,13.01
17:11:55,11.51
17:11:55.015625,9.39
17:11:55.031250,6.62
17:11:55.046875,3.37
17:11:55.062500,-0.06
17:11:55.078125,-3.36
17:11:55.093750,-6.35
17:11:55.109375,-9.08
17:11:55.125000,-11.74
17:11:55.140625,-14.51
17:11:55.156250,-17.55
17:11:55.171875,-20.89
17:11:55.187500,-24.46
17:11:55.203125,-28.13
17:11:55.218750,-31.65
17:11:55.234375,-34.66
17:11:55.250000,-36.77
17:11:55.265625,-37.66
17:11:55.281250,-37.14
17:11:55.296875,-35.26
17:11:55.312500,-32.23
17:11:55.328125,-28.33
17:11:55.343750,-23.80
17:11:55.359375,-18.75
17:11:55.375000,-13.28
17:11:55.390625,-7.46
17:11:55.406250,-1.52
17:11:55.421875,4.25
17:11:55.437500,9.49
17:11:55.453125,13.91
17:11:55.468750,17.38
17:11:55.484375,19.94
17:11:55.500000,21.76
17:11:55.515625,23.08
17:11:55.531250,24.05
17:11:55.546875,24.80
17:11:55.562500,25.31
17:11:55.578125,25.58
17:11:55.593750,25.60
17:11:55.609375,25.41
17:11:55.625000,25.05
17:11:55.640625,24.56
17:11:55.656250,23.97
17:11:55.671875,23.29
17:11:55.687500,22.54
17:11:55.703125,21.75
17:11:55.718750,20.95
17:11:55.734375,20.11
17:11:55.750000,19.16
17:11:55.765625,18.00
17:11:55.781250,16.59
17:11:55.796875,14.95
17:11:55.812500,13.19
17:11:55.828125,11.35
17:11:55.843750,9.39
17:11:55.859375,7.17
17:11:55.875000,4.48
17:11:55.890625,1.14
17:11:55.906250,-2.88
17:11:55.921875,-7.45
17:11:55.937500,-12.28
17:11:55.953125,-16.92
17:11:55.968750,-20.92
17:11:55.984375,-23.87
17:11:56,-25.53
17:11:56.015625,-25.83
17:11:56.031250,-24.84
17:11:56.046875,-22.78
17:11:56.062500,-19.87
17:11:56.078125,-16.33
17:11:56.093750,-12.34
17:11:56.109375,-8.04
17:11:56.125000,-3.57
17:11:56.140625,0.92
17:11:56.156250,5.32
17:11:56.171875,9.50
17:11:56.187500,13.37
17:11:56.203125,16.81
17:11:56.218750,19.74
17:11:56.234375,22.07
17:11:56.250000,23.78
17:11:56.265625,24.89
17:11:56.281250,25.47
17:11:56.296875,25.57
17:11:56.312500,25.28
17:11:56.328125,24.68
17:11:56.343750,23.95
17:11:56.359375,23.27
17:11:56.375000,22.83
17:11:56.390625,22.67
17:11:56.406250,22.70
17:11:56.421875,22.68
17:11:56.437500,22.35
17:11:56.453125,21.50
17:11:56.468750,20.07
17:11:56.484375,18.15
17:11:56.500000,15.89
17:11:56.515625,13.43
17:11:56.531250,10.86
17:11:56.546875,8.17
17:11:56.562500,5.37
17:11:56.578125,2.43
17:11:56.593750,-0.67
17:11:56.609375,-4.01
17:11:56.625000,-7.73
17:11:56.640625,-11.96
17:11:56.656250,-16.74
17:11:56.671875,-21.89
17:11:56.687500,-27.01
17:11:56.703125,-31.53
17:11:56.718750,-34.91
17:11:56.734375,-36.79
17:11:56.750000,-37.10
17:11:56.765625,-35.98
17:11:56.781250,-33.71
17:11:56.796875,-30.51
17:11:56.812500,-26.54
17:11:56.828125,-21.89
17:11:56.843750,-16.69
17:11:56.859375,-11.19
17:11:56.875000,-5.72
17:11:56.890625,-0.63
17:11:56.906250,3.79
17:11:56.921875,7.36
17:11:56.937500,10.10
17:11:56.953125,12.08
17:11:56.968750,13.50
17:11:56.984375,14.52
17:11:57,15.27
17:11:57.015625,15.82
17:11:57.031250,16.17
17:11:57.046875,16.23
17:11:57.062500,15.91
17:11:57.078125,15.17
17:11:57.093750,14.04
17:11:57.109375,12.67
17:11:57.125000,11.23
17:11:57.140625,9.88
17:11:57.156250,8.73
17:11:57.171875,7.79
17:11:57.187500,6.96
17:11:57.203125,6.06
17:11:57.218750,4.92
17:11:57.234375,3.40
17:11:57.250000,1.49
17:11:57.265625,-0.75
17:11:57.281250,-3.19
17:11:57.296875,-5.68
17:11:57.312500,-8.15
17:11:57.328125,-10.64
17:11:57.343750,-13.30
17:11:57.359375,-16.30
17:11:57.375000,-19.81
17:11:57.390625,-23.87
17:11:57.406250,-28.37
17:11:57.421875,-33.00
17:11:57.437500,-37.35
17:11:57.453125,-40.99
17:11:57.468750,-43.48
17:11:57.484375,-44.57
17:11:57.500000,-44.17
17:11:57.515625,-42.33
17:11:57.531250,-39.28
17:11:57.546875,-35.28
17:11:57.562500,-30.62
17:11:57.578125,-25.56
17:11:57.593750,-20.24
17:11:57.609375,-14.76
17:11:57.625000,-9.14
17:11:57.640625,-3.45
17:11:57.656250,2.18
17:11:57.671875,7.51
17:11:57.687500,12.27
17:11:57.703125,16.15
17:11:57.718750,19.04
17:11:57.734375,20.97
17:11:57.750000,22.17
17:11:57.765625,22.90
17:11:57.781250,23.41
17:11:57.796875,23.84
17:11:57.812500,24.24
17:11:57.828125,24.60
17:11:57.843750,24.96
17:11:57.859375,25.31
17:11:57.875000,25.60
17:11:57.890625,25.68
17:11:57.906250,25.32
17:11:57.921875,24.31
17:11:57.937500,22.58
17:11:57.953125,20.28
17:11:57.968750,17.68
17:11:57.984375,15.13
17:11:58,12.80
17:11:58.015625,10.66
17:11:58.031250,8.51
17:11:58.046875,6.07
17:11:58.062500,3.16
17:11:58.078125,-0.25
17:11:58.093750,-4.06
17:11:58.109375,-8.18
17:11:58.125000,-12.54
17:11:58.140625,-17.12
17:11:58.156250,-21.90
17:11:58.171875,-26.66
17:11:58.187500,-31.03
17:11:58.203125,-34.50
17:11:58.218750,-36.61
17:11:58.234375,-37.14
17:11:58.250000,-36.18
17:11:58.265625,-34.06
17:11:58.281250,-31.13
17:11:58.296875,-27.62
