16:18:33,-0.00
16:18:33.015625,-0.00
16:18:33.031250,-0.00
16:18:33.046875,-0.00
16:18:33.062500,-0.00
16:18:33.078125,-0.00
16:18:33.093750,-0.00
16:18:33.109375,-0.00
16:18:33.125000,-0.00
16:18:33.140625,-0.00
16:18:33.156250,0.00
16:18:33.171875,0.01
16:18:33.187500,0.01
16:18:33.203125,-0.00
16:18:33.218750,-0.03
16:18:33.234375,-0.05
16:18:33.250000,-0.05
16:18:33.265625,0.00
16:18:33.281250,0.13
16:18:33.296875,0.36
16:18:33.312500,0.66
16:18:33.328125,1.01
16:18:33.343750,1.37
16:18:33.359375,1.72
16:18:33.375000,2.06
16:18:33.390625,2.40
16:18:33.406250,2.79
16:18:33.421875,3.24
16:18:33.437500,3.80
16:18:33.453125,4.42
16:18:33.468750,5.06
16:18:33.484375,5.66
16:18:33.500000,6.20
16:18:33.515625,6.68
16:18:33.531250,7.15
16:18:33.546875,7.68
16:18:33.562500,8.31
16:18:33.578125,9.14
16:18:33.593750,10.09
16:18:33.609375,11.04
16:18:33.625000,11.88
16:18:33.640625,12.56
16:18:33.656250,13.14
16:18:33.671875,13.76
16:18:33.687500,14.65
16:18:33.703125,15.96
16:18:33.718750,17.91
16:18:33.734375,20.32
16:18:33.750000,22.90
16:18:33.765625,25.38
16:18:33.781250,27.58
16:18:33.796875,29.57
16:18:33.812500,31.68
16:18:33.828125,34.32
16:18:33.843750,37.81
16:18:33.859375,42.54
16:18:33.875000,48.15
16:18:33.890625,54.10
16:18:33.906250,59.83
16:18:33.921875,64.97
16:18:33.937500,69.58
16:18:33.953125,74.14
16:18:33.968750,79.34
16:18:33.984375,85.71
16:18:34,93.76
16:18:34.015625,103.00
16:18:34.031250,112.62
16:18:34.046875,121.73
16:18:34.062500,129.77
16:18:34.078125,136.75
16:18:34.093750,143.30
16:18:34.109375,150.75
16:18:34.125000,157.77
16:18:34.140625,166.64
16:18:34.156250,177.95
16:18:34.171875,191.79
16:18:34.187500,206.97
16:18:34.203125,220.57
16:18:34.218750,228.25
16:18:34.234375,225.36
16:18:34.250000,208.53
16:18:34.265625,176.87
16:18:34.281250,132.76
16:18:34.296875,80.05
16:18:34.312500,23.07
16:18:34.328125,-34.94
16:18:34.343750,-92.44
16:18:34.359375,-149.16
16:18:34.375000,-205.23
16:18:34.390625,-260.37
16:18:34.406250,-313.74
16:18:34.421875,-363.87
16:18:34.437500,-409.83
16:18:34.453125,-450.91
16:18:34.468750,-486.50
16:18:34.484375,-515.74
16:18:34.500000,-537.23
16:18:34.515625,-549.22
16:18:34.531250,-549.96
16:18:34.546875,-538.37
16:18:34.562500,-514.21
16:18:34.578125,-478.67
16:18:34.593750,-433.88
16:18:34.609375,-382.45
16:18:34.625000,-327.02
16:18:34.640625,-269.84
16:18:34.656250,-212.63
16:18:34.671875,-156.66
16:18:34.687500,-102.95
16:18:34.703125,-52.37
16:18:34.718750,-5.90
16:18:34.734375,35.58
16:18:34.750000,71.43
16:18:34.765625,101.35
16:18:34.781250,125.50
16:18:34.796875,144.38
16:18:34.812500,158.69
16:18:34.828125,169.15
16:18:34.843750,176.37
16:18:34.859375,180.75
16:18:34.875000,182.57
16:18:34.890625,182.07
16:18:34.906250,179.51
16:18:34.921875,175.23
16:18:34.937500,169.65
16:18:34.953125,163.18
16:18:34.968750,156.15
16:18:34.984375,148.81
16:18:35,141.30
16:18:35.015625,133.69
16:18:35.031250,126.02
16:18:35.046875,118.33
16:18:35.062500,110.69
16:18:35.078125,103.16
16:18:35.093750,95.80
16:18:35.109375,88.68
16:18:35.125000,81.83
16:18:35.140625,75.25
16:18:35.156250,68.95
16:18:35.171875,62.95
16:18:35.187500,57.25
16:18:35.203125,51.86
16:18:35.218750,46.78
16:18:35.234375,42.03
16:18:35.250000,37.59
16:18:35.265625,33.45
16:18:35.281250,29.61
16:18:35.296875,26.07
16:18:35.312500,22.81
16:18:35.328125,19.83
16:18:35.343750,17.11
16:18:35.359375,14.67
16:18:35.375000,12.48
16:18:35.390625,10.54
16:18:35.406250,8.83
16:18:35.421875,7.35
16:18:35.437500,6.07
16:18:35.453125,4.97
16:18:35.468750,4.05
16:18:35.484375,3.27
16:18:35.500000,2.62
16:18:35.515625,2.09
16:18:35.531250,1.65
16:18:35.546875,1.30
16:18:35.562500,1.01
16:18:35.578125,0.79
16:18:35.593750,0.61
16:18:35.609375,0.47
16:18:35.625000,0.38
16:18:35.640625,0.31
16:18:35.656250,0.28
16:18:35.671875,0.24
16:18:35.687500,0.19
16:18:35.703125,0.11
16:18:35.718750,0.02
16:18:35.734375,-0.06
16:18:35.750000,-0.13
16:18:35.765625,-0.15
16:18:35.781250,-0.13
16:18:35.796875,-0.08
16:18:35.812500,-0.03
16:18:35.828125,-0.01
16:18:35.843750,-0.03
16:18:35.859375,-0.08
16:18:35.875000,-0.15
16:18:35.890625,-0.19
16:18:35.906250,-0.18
16:18:35.921875,-0.12
16:18:35.937500,-0.03
16:18:35.953125,0.05
16:18:35.968750,0.05
16:18:35.984375,-0.03
16:18:36,-0.19
16:18:36.015625,-0.36
16:18:36.031250,-0.47
16:18:36.046875,-0.44
16:18:36.062500,-0.28
16:18:36.078125,-0.05
16:18:36.093750,0.13
16:18:36.109375,0.14
16:18:36.125000,-0.10
16:18:36.140625,-0.54
16:18:36.156250,-1.02
16:18:36.171875,-1.34
16:18:36.187500,-1.35
16:18:36.203125,-1.01
16:18:36.218750,-0.48
16:18:36.234375,-0.02
16:18:36.250000,0.09
16:18:36.265625,-0.31
16:18:36.281250,-1.12
16:18:36.296875,-2.06
16:18:36.312500,-2.74
16:18:36.328125,-2.84
16:18:36.343750,-2.30
16:18:36.359375,-1.38
16:18:36.375000,-0.53
16:18:36.390625,-0.23
16:18:36.406250,-0.74
16:18:36.421875,-1.93
16:18:36.437500,-3.35
16:18:36.453125,-4.41
16:18:36.468750,-4.67
16:18:36.484375,-4.02
16:18:36.500000,-2.72
16:18:36.515625,-1.28
16:18:36.531250,-0.24
16:18:36.546875,-0.06
16:18:36.562500,-1.07
16:18:36.578125,-3.46
16:18:36.593750,-7.09
16:18:36.609375,-11.16
16:18:36.625000,-14.13
16:18:36.640625,-14.17
16:18:36.656250,-9.85
16:18:36.671875,-1.10
16:18:36.687500,10.44
16:18:36.703125,21.90
16:18:36.718750,30.32
16:18:36.734375,33.80
16:18:36.750000,32.25
16:18:36.765625,27.22
16:18:36.781250,20.88
16:18:36.796875,15.01
16:18:36.812500,10.37
16:18:36.828125,6.75
16:18:36.843750,3.58
16:18:36.859375,0.55
16:18:36.875000,-2.19
16:18:36.890625,-4.18
16:18:36.906250,-5.11
16:18:36.921875,-5.02
16:18:36.937500,-4.40
16:18:36.953125,-3.87
16:18:36.968750,-3.98
16:18:36.984375,-4.88
16:18:37,-6.37
16:18:37.015625,-7.95
16:18:37.031250,-9.13
16:18:37.046875,-9.58
16:18:37.062500,-9.22
16:18:37.078125,-8.22
16:18:37.093750,-6.85
16:18:37.109375,-5.29
16:18:37.125000,-3.70
16:18:37.140625,-2.24
16:18:37.156250,-1.19
16:18:37.171875,-0.97
16:18:37.187500,-1.95
16:18:37.203125,-4.18
16:18:37.218750,-7.18
16:18:37.234375,-9.92
16:18:37.250000,-11.23
16:18:37.265625,-10.21
16:18:37.281250,-6.67
16:18:37.296875,-1.28
16:18:37.312500,4.74
16:18:37.328125,10.10
16:18:37.343750,13.89
16:18:37.359375,15.82
16:18:37.375000,16.19
16:18:37.390625,15.66
16:18:37.406250,14.84
16:18:37.421875,14.15
16:18:37.437500,13.67
16:18:37.453125,13.27
16:18:37.468750,12.65
16:18:37.484375,11.65
16:18:37.500000,10.25
16:18:37.515625,8.67
16:18:37.531250,7.19
16:18:37.546875,6.01
16:18:37.562500,5.18
16:18:37.578125,4.64
16:18:37.593750,4.31
16:18:37.609375,4.21
16:18:37.625000,4.51
16:18:37.640625,5.34
16:18:37.656250,6.73
16:18:37.671875,8.46
16:18:37.687500,10.09
16:18:37.703125,11.19
16:18:37.718750,11.47
16:18:37.734375,10.94
16:18:37.750000,9.87
16:18:37.765625,8.65
16:18:37.781250,7.59
16:18:37.796875,6.78
16:18:37.812500,6.09
16:18:37.828125,5.19
16:18:37.843750,3.66
16:18:37.859375,1.17
16:18:37.875000,-2.42
16:18:37.890625,-6.93
16:18:37.906250,-11.88
16:18:37.921875,-16.56
16:18:37.937500,-20.21
16:18:37.953125,-22.26
16:18:37.968750,-22.50
16:18:37.984375,-21.20
16:18:38,-19.16
16:18:38.015625,-17.56
16:18:38.031250,-17.66
16:18:38.046875,-20.38
16:18:38.062500,-25.85
16:18:38.078125,-33.21
16:18:38.093750,-40.72
16:18:38.109375,-46.32
16:18:38.125000,-48.35
16:18:38.140625,-46.11
16:18:38.156250,-40.08
16:18:38.171875,-31.59
16:18:38.187500,-22.22
16:18:38.203125,-13.23
16:18:38.218750,-5.20
16:18:38.234375,1.84
16:18:38.250000,8.14
16:18:38.265625,13.92
16:18:38.281250,19.21
16:18:38.296875,23.84
16:18:38.312500,27.58
16:18:38.328125,30.21
16:18:38.343750,31.58
16:18:38.359375,31.72
16:18:38.375000,30.70
16:18:38.390625,28.70
16:18:38.406250,25.97
16:18:38.421875,22.78
16:18:38.437500,19.45
16:18:38.453125,16.29
16:18:38.468750,13.59
16:18:38.484375,11.53
16:18:38.500000,10.11
16:18:38.515625,9.19
16:18:38.531250,8.45
16:18:38.546875,7.56
16:18:38.562500,6.30
16:18:38.578125,4.64
16:18:38.593750,2.76
16:18:38.609375,0.95
16:18:38.625000,-0.59
16:18:38.640625,-1.83
16:18:38.656250,-2.95
16:18:38.671875,-4.26
16:18:38.687500,-6.01
16:18:38.703125,-8.29
16:18:38.718750,-10.91
16:18:38.734375,-13.46
16:18:38.750000,-15.42
16:18:38.765625,-16.32
16:18:38.781250,-15.97
16:18:38.796875,-14.62
16:18:38.812500,-13.03
16:18:38.828125,-12.32
16:18:38.843750,-13.59
16:18:38.859375,-17.51
16:18:38.875000,-23.84
16:18:38.890625,-31.42
16:18:38.906250,-38.40
16:18:38.921875,-42.86
16:18:38.937500,-43.46
16:18:38.953125,-39.87
16:18:38.968750,-32.75
16:18:38.984375,-23.44
16:18:39,-13.35
16:18:39.015625,-3.52
16:18:39.031250,5.54
16:18:39.046875,13.70
16:18:39.062500,20.92
16:18:39.078125,27.04
16:18:39.093750,31.71
16:18:39.109375,34.61
16:18:39.125000,35.60
16:18:39.140625,34.97
16:18:39.156250,33.29
16:18:39.171875,31.20
16:18:39.187500,29.20
16:18:39.203125,27.43
16:18:39.218750,25.75
16:18:39.234375,23.96
16:18:39.250000,21.97
16:18:39.265625,19.95
16:18:39.281250,18.21
16:18:39.296875,17.05
16:18:39.312500,16.50
16:18:39.328125,16.29
16:18:39.343750,16.00
16:18:39.359375,15.21
16:18:39.375000,13.79
16:18:39.390625,11.89
16:18:39.406250,9.86
16:18:39.421875,8.01
16:18:39.437500,6.44
16:18:39.453125,4.92
16:18:39.468750,3.07
16:18:39.484375,0.51
16:18:39.500000,-2.89
16:18:39.515625,-6.86
16:18:39.531250,-10.87
16:18:39.546875,-14.26
16:18:39.562500,-16.47
16:18:39.578125,-17.26
16:18:39.593750,-16.81
16:18:39.609375,-15.80
16:18:39.625000,-15.27
16:18:39.640625,-16.38
16:18:39.656250,-19.98
16:18:39.671875,-26.23
16:18:39.687500,-34.27
16:18:39.703125,-42.48
16:18:39.718750,-48.83
16:18:39.734375,-51.63
16:18:39.750000,-50.08
16:18:39.765625,-44.50
16:18:39.781250,-36.11
16:18:39.796875,-26.50
16:18:39.812500,-17.04
16:18:39.828125,-8.45
16:18:39.843750,-0.84
16:18:39.859375,6.06
16:18:39.875000,12.54
16:18:39.890625,18.63
16:18:39.906250,24.06
16:18:39.921875,28.37
16:18:39.937500,31.25
16:18:39.953125,32.62
16:18:39.968750,32.75
16:18:39.984375,32.06
16:18:40,30.92
16:18:40.015625,29.51
16:18:40.031250,27.80
16:18:40.046875,25.69
16:18:40.062500,23.23
16:18:40.078125,20.71
16:18:40.093750,18.59
16:18:40.109375,17.32
16:18:40.125000,17.07
16:18:40.140625,17.63
16:18:40.156250,18.43
16:18:40.171875,18.77
16:18:40.187500,18.17
16:18:40.203125,16.50
16:18:40.218750,14.06
16:18:40.234375,11.41
16:18:40.250000,9.05
16:18:40.265625,7.23
16:18:40.281250,5.87
16:18:40.296875,4.56
16:18:40.312500,2.79
16:18:40.328125,0.19
16:18:40.343750,-3.35
16:18:40.359375,-7.55
16:18:40.375000,-11.88
16:18:40.390625,-15.66
16:18:40.406250,-18.28
16:18:40.421875,-19.42
16:18:40.437500,-19.21
16:18:40.453125,-18.28
16:18:40.468750,-17.66
16:18:40.484375,-18.47
16:18:40.500000,-21.54
16:18:40.515625,-27.02
16:18:40.531250,-34.11
16:18:40.546875,-41.27
16:18:40.562500,-46.65
16:18:40.578125,-48.77
16:18:40.593750,-47.02
16:18:40.609375,-41.86
16:18:40.625000,-34.49
16:18:40.640625,-26.36
16:18:40.656250,-18.51
16:18:40.671875,-11.34
16:18:40.687500,-4.65
16:18:40.703125,1.98
16:18:40.718750,8.79
16:18:40.734375,15.63
16:18:40.750000,21.98
16:18:40.765625,27.19
16:18:40.781250,30.78
16:18:40.796875,32.62
16:18:40.812500,32.95
16:18:40.828125,32.27
16:18:40.843750,31.04
16:18:40.859375,29.57
16:18:40.875000,27.92
16:18:40.890625,26.05
16:18:40.906250,23.98
16:18:40.921875,21.99
16:18:40.937500,20.53
16:18:40.953125,20.07
16:18:40.968750,20.80
16:18:40.984375,22.52
16:18:41,24.56
16:18:41.015625,26.12
16:18:41.031250,26.51
16:18:41.046875,25.50
16:18:41.062500,23.34
16:18:41.078125,20.63
16:18:41.093750,18.07
16:18:41.109375,16.10
16:18:41.125000,14.77
16:18:41.140625,13.72
16:18:41.156250,12.35
16:18:41.171875,10.10
16:18:41.187500,6.75
16:18:41.203125,2.50
16:18:41.218750,-2.08
16:18:41.234375,-6.21
16:18:41.250000,-9.27
16:18:41.265625,-10.88
16:18:41.281250,-11.08
16:18:41.296875,-10.34
16:18:41.312500,-9.47
16:18:41.328125,-9.52
16:18:41.343750,-11.47
16:18:41.359375,-15.92
16:18:41.375000,-22.76
16:18:41.390625,-31.04
16:18:41.406250,-39.12
16:18:41.421875,-45.23
16:18:41.437500,-48.03
16:18:41.453125,-47.08
16:18:41.468750,-42.88
16:18:41.484375,-36.54
16:18:41.500000,-29.31
16:18:41.515625,-22.10
16:18:41.531250,-15.30
16:18:41.546875,-8.90
16:18:41.562500,-2.73
16:18:41.578125,3.24
16:18:41.593750,8.85
16:18:41.609375,13.77
16:18:41.625000,17.63
16:18:41.640625,20.22
16:18:41.656250,21.55
16:18:41.671875,21.83
16:18:41.687500,21.37
16:18:41.703125,20.41
16:18:41.718750,19.04
16:18:41.734375,17.28
16:18:41.750000,15.15
16:18:41.765625,12.84
16:18:41.781250,10.71
16:18:41.796875,9.23
16:18:41.812500,8.73
16:18:41.828125,9.24
16:18:41.843750,10.39
16:18:41.859375,11.58
16:18:41.875000,12.13
16:18:41.890625,11.62
16:18:41.906250,10.00
16:18:41.921875,7.63
16:18:41.937500,5.08
16:18:41.953125,2.87
16:18:41.968750,1.24
16:18:41.984375,0.00
16:18:42,-1.33
16:18:42.015625,-3.31
16:18:42.031250,-6.25
16:18:42.046875,-10.06
16:18:42.062500,-14.22
16:18:42.078125,-17.96
16:18:42.093750,-20.57
16:18:42.109375,-21.53
16:18:42.125000,-20.77
16:18:42.140625,-18.63
16:18:42.156250,-15.91
16:18:42.171875,-13.77
16:18:42.187500,-13.46
16:18:42.203125,-15.99
16:18:42.218750,-21.67
16:18:42.234375,-29.87
16:18:42.250000,-39.04
16:18:42.265625,-47.19
16:18:42.281250,-52.48
16:18:42.296875,-53.85
16:18:42.312500,-51.31
16:18:42.328125,-45.69
16:18:42.343750,-38.19
16:18:42.359375,-29.81
16:18:42.375000,-21.07
16:18:42.390625,-12.03
16:18:42.406250,-2.73
16:18:42.421875,6.53
16:18:42.437500,15.05
16:18:42.453125,21.89
16:18:42.468750,26.31
16:18:42.484375,28.11
16:18:42.500000,27.76
16:18:42.515625,26.14
16:18:42.531250,24.14
16:18:42.546875,22.28
16:18:42.562500,20.65
16:18:42.578125,19.04
16:18:42.593750,17.27
16:18:42.609375,15.43
16:18:42.625000,13.84
16:18:42.640625,12.92
16:18:42.656250,12.87
16:18:42.671875,13.57
16:18:42.687500,14.64
16:18:42.703125,15.58
16:18:42.718750,16.07
16:18:42.734375,15.97
16:18:42.750000,15.42
16:18:42.765625,14.61
16:18:42.781250,13.63
16:18:42.796875,12.44
16:18:42.812500,10.76
16:18:42.828125,8.34
16:18:42.843750,4.93
16:18:42.859375,0.59
16:18:42.875000,-4.33
16:18:42.890625,-9.21
16:18:42.906250,-13.36
16:18:42.921875,-16.22
16:18:42.937500,-17.49
16:18:42.953125,-17.31
16:18:42.968750,-16.24
16:18:42.984375,-15.19
16:18:43,-15.25
16:18:43.015625,-17.27
16:18:43.031250,-21.55
16:18:43.046875,-27.62
16:18:43.062500,-34.27
16:18:43.078125,-39.84
16:18:43.093750,-42.89
16:18:43.109375,-42.63
16:18:43.125000,-39.26
16:18:43.140625,-33.75
16:18:43.156250,-27.37
16:18:43.171875,-21.15
16:18:43.187500,-15.44
16:18:43.203125,-10.00
16:18:43.218750,-4.29
16:18:43.234375,2.08
16:18:43.250000,9.06
16:18:43.265625,16.18
16:18:43.281250,22.76
16:18:43.296875,28.23
16:18:43.312500,32.31
16:18:43.328125,35.00
16:18:43.343750,36.42
16:18:43.359375,36.64
16:18:43.375000,35.68
16:18:43.390625,33.56
16:18:43.406250,30.45
16:18:43.421875,26.76
16:18:43.437500,23.08
16:18:43.453125,20.03
16:18:43.468750,18.06
16:18:43.484375,17.32
16:18:43.500000,17.57
16:18:43.515625,18.31
16:18:43.531250,18.99
16:18:43.546875,19.14
16:18:43.562500,18.58
16:18:43.578125,17.49
16:18:43.593750,16.28
16:18:43.609375,15.27
16:18:43.625000,14.51
16:18:43.640625,13.64
16:18:43.656250,12.03
16:18:43.671875,9.14
16:18:43.687500,4.85
16:18:43.703125,-0.38
16:18:43.718750,-5.59
16:18:43.734375,-9.72
16:18:43.750000,-11.97
16:18:43.765625,-12.04
16:18:43.781250,-10.27
16:18:43.796875,-7.53
16:18:43.812500,-5.09
16:18:43.828125,-4.40
16:18:43.843750,-6.71
16:18:43.859375,-12.67
16:18:43.875000,-21.94
16:18:43.890625,-33.11
16:18:43.906250,-43.98
16:18:43.921875,-52.16
16:18:43.937500,-55.80
16:18:43.953125,-54.15
16:18:43.968750,-47.75
16:18:43.984375,-38.09
16:18:44,-27.06
16:18:44.015625,-16.38
16:18:44.031250,-7.14
16:18:44.046875,0.28
16:18:44.062500,6.00
16:18:44.078125,10.41
16:18:44.093750,13.85
16:18:44.109375,16.47
16:18:44.125000,18.26
16:18:44.140625,19.21
16:18:44.156250,19.43
16:18:44.171875,19.17
16:18:44.187500,18.64
16:18:44.203125,17.90
16:18:44.218750,16.84
16:18:44.234375,15.24
16:18:44.250000,13.15
16:18:44.265625,10.90
16:18:44.281250,9.17
16:18:44.296875,8.52
16:18:44.312500,9.14
16:18:44.328125,10.64
16:18:44.343750,12.22
16:18:44.359375,13.02
16:18:44.375000,12.55
16:18:44.390625,10.90
16:18:44.406250,8.63
16:18:44.421875,6.55
16:18:44.437500,5.25
16:18:44.453125,4.97
16:18:44.468750,5.41
16:18:44.484375,5.90
16:18:44.500000,5.63
16:18:44.515625,3.86
16:18:44.531250,0.28
16:18:44.546875,-4.84
16:18:44.562500,-10.66
16:18:44.578125,-15.93
16:18:44.593750,-19.33
16:18:44.609375,-19.96
16:18:44.625000,-17.71
16:18:44.640625,-13.47
16:18:44.656250,-8.94
16:18:44.671875,-6.15
16:18:44.687500,-6.71
16:18:44.703125,-11.21
16:18:44.718750,-18.89
16:18:44.734375,-27.92
16:18:44.750000,-36.03
16:18:44.765625,-41.35
16:18:44.781250,-42.90
16:18:44.796875,-40.80
16:18:44.812500,-35.83
16:18:44.828125,-28.95
16:18:44.843750,-20.93
16:18:44.859375,-12.13
16:18:44.875000,-2.83
16:18:44.890625,6.64
16:18:44.906250,15.66
16:18:44.921875,23.52
16:18:44.937500,29.59
16:18:44.953125,33.64
16:18:44.968750,35.87
16:18:44.984375,36.85
16:18:45,37.14
16:18:45.015625,37.09
16:18:45.031250,36.71
16:18:45.046875,35.71
16:18:45.062500,33.82
16:18:45.078125,31.05
16:18:45.093750,27.75
16:18:45.109375,24.58
16:18:45.125000,22.22
16:18:45.140625,21.03
16:18:45.156250,20.99
16:18:45.171875,21.61
16:18:45.187500,22.27
16:18:45.203125,22.42
16:18:45.218750,21.80
16:18:45.234375,20.38
16:18:45.250000,18.35
16:18:45.265625,15.85
16:18:45.281250,12.98
16:18:45.296875,9.73
16:18:45.312500,6.04
16:18:45.328125,1.93
16:18:45.343750,-2.44
16:18:45.359375,-6.72
16:18:45.375000,-10.53
16:18:45.390625,-13.43
16:18:45.406250,-15.12
16:18:45.421875,-15.40
16:18:45.437500,-14.24
16:18:45.453125,-11.82
16:18:45.468750,-8.62
16:18:45.484375,-5.39
16:18:45.500000,-3.07
16:18:45.515625,-2.48
16:18:45.531250,-4.00
16:18:45.546875,-7.35
16:18:45.562500,-11.58
16:18:45.578125,-15.35
16:18:45.593750,-17.49
16:18:45.609375,-17.33
16:18:45.625000,-14.98
16:18:45.640625,-11.21
16:18:45.656250,-7.10
16:18:45.671875,-3.67
16:18:45.687500,-1.50
16:18:45.703125,-0.60
16:18:45.718750,-0.46
16:18:45.734375,-0.35
16:18:45.750000,0.45
16:18:45.765625,2.28
16:18:45.781250,4.96
16:18:45.796875,7.84
16:18:45.812500,9.99
16:18:45.828125,10.59
16:18:45.843750,9.08
16:18:45.859375,5.26
16:18:45.875000,-0.81
16:18:45.890625,-8.80
16:18:45.906250,-17.92
16:18:45.921875,-26.66
16:18:45.937500,-32.66
16:18:45.953125,-33.22
16:18:45.968750,-26.23
16:18:45.984375,-11.33
16:18:46,9.63
16:18:46.015625,32.92
16:18:46.031250,54.44
16:18:46.046875,71.20
16:18:46.062500,82.28
16:18:46.078125,88.51
16:18:46.093750,91.25
16:18:46.109375,91.16
16:18:46.125000,87.64
16:18:46.140625,79.56
16:18:46.156250,66.43
16:18:46.171875,49.38
16:18:46.187500,31.04
16:18:46.203125,14.49
16:18:46.218750,1.83
16:18:46.234375,-6.58
16:18:46.250000,-11.94
16:18:46.265625,-16.01
16:18:46.281250,-20.10
16:18:46.296875,-24.62
16:18:46.312500,-29.36
16:18:46.328125,-34.07
16:18:46.343750,-38.90
16:18:46.359375,-44.22
16:18:46.375000,-50.09
16:18:46.390625,-55.85
16:18:46.406250,-60.11
16:18:46.421875,-61.26
16:18:46.437500,-58.26
16:18:46.453125,-51.14
16:18:46.468750,-40.95
16:18:46.484375,-29.37
16:18:46.500000,-17.94
16:18:46.515625,-7.74
16:18:46.531250,0.76
16:18:46.546875,7.53
16:18:46.562500,12.68
16:18:46.578125,16.32
16:18:46.593750,18.54
16:18:46.609375,19.48
16:18:46.625000,19.45
16:18:46.640625,18.88
16:18:46.656250,18.26
16:18:46.671875,17.96
16:18:46.687500,18.12
16:18:46.703125,18.55
16:18:46.718750,18.83
16:18:46.734375,18.49
16:18:46.750000,17.21
16:18:46.765625,15.02
16:18:46.781250,12.20
16:18:46.796875,9.15
16:18:46.812500,6.20
16:18:46.828125,3.47
16:18:46.843750,0.90
16:18:46.859375,-1.57
16:18:46.875000,-3.86
16:18:46.890625,-5.72
16:18:46.906250,-6.83
16:18:46.921875,-6.98
16:18:46.937500,-6.22
16:18:46.953125,-4.90
16:18:46.968750,-3.61
16:18:46.984375,-2.98
16:18:47,-3.44
16:18:47.015625,-5.14
16:18:47.031250,-7.84
16:18:47.046875,-11.05
16:18:47.062500,-14.15
16:18:47.078125,-16.63
16:18:47.093750,-18.17
16:18:47.109375,-18.76
16:18:47.125000,-18.75
16:18:47.140625,-18.82
16:18:47.156250,-19.79
16:18:47.171875,-22.38
16:18:47.187500,-26.79
16:18:47.203125,-32.43
16:18:47.218750,-37.94
16:18:47.234375,-41.58
16:18:47.250000,-41.90
16:18:47.265625,-38.30
16:18:47.281250,-31.33
16:18:47.296875,-22.38
16:18:47.312500,-13.12
16:18:47.328125,-4.82
16:18:47.343750,1.93
16:18:47.359375,7.15
16:18:47.375000,11.14
16:18:47.390625,14.13
16:18:47.406250,16.13
16:18:47.421875,17.05
16:18:47.437500,16.87
16:18:47.453125,15.77
16:18:47.468750,14.10
16:18:47.484375,12.31
16:18:47.500000,10.74
16:18:47.515625,9.51
16:18:47.531250,8.56
16:18:47.546875,7.66
16:18:47.562500,6.65
16:18:47.578125,5.38
16:18:47.593750,3.90
16:18:47.609375,2.31
16:18:47.625000,0.67
16:18:47.640625,-0.99
16:18:47.656250,-2.70
16:18:47.671875,-4.43
16:18:47.687500,-6.09
16:18:47.703125,-7.48
16:18:47.718750,-8.46
16:18:47.734375,-9.01
16:18:47.750000,-9.34
16:18:47.765625,-9.79
16:18:47.781250,-10.67
16:18:47.796875,-12.11
16:18:47.812500,-14.02
16:18:47.828125,-16.13
16:18:47.843750,-18.11
16:18:47.859375,-19.65
16:18:47.875000,-20.48
16:18:47.890625,-20.47
16:18:47.906250,-19.70
16:18:47.921875,-18.62
16:18:47.937500,-18.07
16:18:47.953125,-18.96
16:18:47.968750,-21.86
16:18:47.984375,-26.57
16:18:48,-31.94
16:18:48.015625,-36.25
16:18:48.031250,-37.81
16:18:48.046875,-35.76
16:18:48.062500,-30.31
16:18:48.078125,-22.67
16:18:48.093750,-14.42
16:18:48.109375,-6.86
16:18:48.125000,-0.60
16:18:48.140625,4.46
16:18:48.156250,8.75
16:18:48.171875,12.61
16:18:48.187500,16.08
16:18:48.203125,18.89
16:18:48.218750,20.70
16:18:48.234375,21.34
16:18:48.250000,20.92
16:18:48.265625,19.80
16:18:48.281250,18.41
16:18:48.296875,17.02
16:18:48.312500,15.73
16:18:48.328125,14.43
16:18:48.343750,12.99
16:18:48.359375,11.38
16:18:48.375000,9.67
16:18:48.390625,7.97
16:18:48.406250,6.36
16:18:48.421875,4.81
16:18:48.437500,3.20
16:18:48.453125,1.43
16:18:48.468750,-0.52
16:18:48.484375,-2.48
16:18:48.500000,-4.23
16:18:48.515625,-5.57
16:18:48.531250,-6.45
16:18:48.546875,-7.01
16:18:48.562500,-7.52
16:18:48.578125,-8.24
16:18:48.593750,-9.30
16:18:48.609375,-10.56
16:18:48.625000,-11.75
16:18:48.640625,-12.48
16:18:48.656250,-12.49
16:18:48.671875,-11.80
16:18:48.687500,-10.88
16:18:48.703125,-10.62
16:18:48.718750,-12.11
16:18:48.734375,-16.20
16:18:48.750000,-23.02
16:18:48.765625,-31.67
16:18:48.781250,-40.34
16:18:48.796875,-46.87
16:18:48.812500,-49.52
16:18:48.828125,-47.59
16:18:48.843750,-41.62
16:18:48.859375,-33.10
16:18:48.875000,-23.75
16:18:48.890625,-14.87
16:18:48.906250,-7.08
16:18:48.921875,-0.37
16:18:48.937500,5.48
16:18:48.953125,10.53
16:18:48.968750,14.60
16:18:48.984375,17.32
16:18:49,18.51
16:18:49.015625,18.33
16:18:49.031250,17.35
16:18:49.046875,16.37
16:18:49.062500,16.10
16:18:49.078125,16.91
16:18:49.093750,18.76
16:18:49.109375,21.35
16:18:49.125000,24.37
16:18:49.140625,27.67
16:18:49.156250,31.17
16:18:49.171875,34.67
16:18:49.187500,37.63
16:18:49.203125,39.09
16:18:49.218750,37.93
16:18:49.234375,33.35
16:18:49.250000,25.33
16:18:49.265625,14.75
16:18:49.281250,3.14
16:18:49.296875,-7.84
16:18:49.312500,-17.03
16:18:49.328125,-24.11
16:18:49.343750,-29.54
16:18:49.359375,-34.16
16:18:49.375000,-38.74
16:18:49.390625,-43.71
16:18:49.406250,-49.17
16:18:49.421875,-55.11
16:18:49.437500,-61.36
16:18:49.453125,-67.46
16:18:49.468750,-72.18
16:18:49.484375,-73.68
16:18:49.500000,-70.02
16:18:49.515625,-60.23
16:18:49.531250,-45.20
16:18:49.546875,-27.63
16:18:49.562500,-11.03
16:18:49.578125,1.95
16:18:49.593750,10.69
16:18:49.609375,16.64
16:18:49.625000,22.17
16:18:49.640625,28.85
16:18:49.656250,36.46
16:18:49.671875,43.15
16:18:49.687500,46.71
16:18:49.703125,46.06
16:18:49.718750,41.94
16:18:49.734375,36.45
16:18:49.750000,31.90
16:18:49.765625,29.63
16:18:49.781250,29.49
16:18:49.796875,30.32
16:18:49.812500,30.72
16:18:49.828125,29.87
16:18:49.843750,27.82
16:18:49.859375,25.21
16:18:49.875000,22.77
16:18:49.890625,20.95
16:18:49.906250,19.69
16:18:49.921875,18.64
16:18:49.937500,17.55
16:18:49.953125,16.37
16:18:49.968750,15.40
16:18:49.984375,15.04
16:18:50,15.51
16:18:50.015625,16.61
16:18:50.031250,17.75
16:18:50.046875,18.21
16:18:50.062500,17.38
16:18:50.078125,15.06
16:18:50.093750,11.55
16:18:50.109375,7.48
16:18:50.125000,3.58
16:18:50.140625,0.29
16:18:50.156250,-2.26
16:18:50.171875,-4.36
16:18:50.187500,-6.46
16:18:50.203125,-8.89
16:18:50.218750,-11.68
16:18:50.234375,-14.57
16:18:50.250000,-17.11
16:18:50.265625,-19.01
16:18:50.281250,-20.34
16:18:50.296875,-21.65
16:18:50.312500,-23.84
16:18:50.328125,-27.86
16:18:50.343750,-34.35
16:18:50.359375,-43.19
16:18:50.375000,-53.46
16:18:50.390625,-63.45
16:18:50.406250,-71.08
16:18:50.421875,-74.53
16:18:50.437500,-72.70
16:18:50.453125,-65.62
16:18:50.468750,-54.36
16:18:50.484375,-40.63
16:18:50.500000,-26.29
16:18:50.515625,-12.76
16:18:50.531250,-0.90
16:18:50.546875,9.05
16:18:50.562500,17.11
16:18:50.578125,23.46
16:18:50.593750,28.26
16:18:50.609375,31.70
16:18:50.625000,34.01
16:18:50.640625,35.49
16:18:50.656250,36.46
16:18:50.671875,37.10
16:18:50.687500,37.39
16:18:50.703125,37.18
16:18:50.718750,36.26
16:18:50.734375,34.54
16:18:50.750000,32.18
16:18:50.765625,29.56
16:18:50.781250,27.27
16:18:50.796875,25.84
16:18:50.812500,25.59
16:18:50.828125,26.49
16:18:50.843750,28.08
16:18:50.859375,29.68
16:18:50.875000,30.56
16:18:50.890625,30.24
16:18:50.906250,28.67
16:18:50.921875,26.19
16:18:50.937500,23.33
16:18:50.953125,20.51
16:18:50.968750,17.86
16:18:50.984375,15.19
16:18:51,12.16
16:18:51.015625,8.56
16:18:51.031250,4.51
16:18:51.046875,0.42
16:18:51.062500,-3.19
16:18:51.078125,-5.94
16:18:51.093750,-7.73
16:18:51.109375,-8.84
16:18:51.125000,-9.74
16:18:51.140625,-11.06
16:18:51.156250,-13.46
16:18:51.171875,-17.47
16:18:51.187500,-23.32
16:18:51.203125,-30.66
16:18:51.218750,-38.44
16:18:51.234375,-45.05
16:18:51.250000,-48.79
16:18:51.265625,-48.41
16:18:51.281250,-43.61
16:18:51.296875,-35.11
16:18:51.312500,-24.34
16:18:51.328125,-12.87
16:18:51.343750,-1.92
16:18:51.359375,7.85
16:18:51.375000,16.27
16:18:51.390625,23.33
16:18:51.406250,28.96
16:18:51.421875,33.05
16:18:51.437500,35.53
16:18:51.453125,36.55
16:18:51.468750,36.49
16:18:51.484375,35.82
16:18:51.500000,34.97
16:18:51.515625,34.16
16:18:51.531250,33.35
16:18:51.546875,32.40
16:18:51.562500,31.16
16:18:51.578125,29.62
16:18:51.593750,27.94
16:18:51.609375,26.40
16:18:51.625000,25.16
16:18:51.640625,24.25
16:18:51.656250,23.46
16:18:51.671875,22.44
16:18:51.687500,20.88
16:18:51.703125,18.66
16:18:51.718750,15.91
16:18:51.734375,12.97
16:18:51.750000,10.26
16:18:51.765625,7.99
16:18:51.781250,6.11
16:18:51.796875,4.28
16:18:51.812500,2.05
16:18:51.828125,-0.89
16:18:51.843750,-4.60
16:18:51.859375,-8.78
16:18:51.875000,-12.97
16:18:51.890625,-16.72
16:18:51.906250,-19.73
16:18:51.921875,-21.94
16:18:51.937500,-23.44
16:18:51.953125,-24.44
16:18:51.968750,-25.26
16:18:51.984375,-26.34
16:18:52,-28.15
16:18:52.015625,-31.07
16:18:52.031250,-35.07
16:18:52.046875,-39.59
16:18:52.062500,-43.46
16:18:52.078125,-45.29
16:18:52.093750,-43.86
16:18:52.109375,-38.63
16:18:52.125000,-29.95
16:18:52.140625,-18.80
16:18:52.156250,-6.45
16:18:52.171875,6.07
16:18:52.187500,18.08
16:18:52.203125,29.04
16:18:52.218750,38.20
16:18:52.234375,44.39
16:18:52.250000,46.39
16:18:52.265625,43.49
16:18:52.281250,36.23
16:18:52.296875,26.50
16:18:52.312500,17.07
16:18:52.328125,10.49
16:18:52.343750,8.16
16:18:52.359375,9.87
16:18:52.375000,14.19
16:18:52.390625,19.33
16:18:52.406250,24.01
16:18:52.421875,27.82
16:18:52.437500,30.92
16:18:52.453125,33.48
16:18:52.468750,35.29
16:18:52.484375,35.69
16:18:52.500000,34.10
16:18:52.515625,30.48
16:18:52.531250,25.49
16:18:52.546875,20.28
16:18:52.562500,15.99
16:18:52.578125,13.22
16:18:52.593750,11.81
16:18:52.609375,10.99
16:18:52.625000,9.72
16:18:52.640625,7.18
16:18:52.656250,3.04
16:18:52.671875,-2.43
16:18:52.687500,-8.59
16:18:52.703125,-14.65
16:18:52.718750,-19.99
16:18:52.734375,-24.33
16:18:52.750000,-27.74
16:18:52.765625,-30.67
16:18:52.781250,-33.82
16:18:52.796875,-37.91
16:18:52.812500,-43.48
16:18:52.828125,-50.57
16:18:52.843750,-58.50
16:18:52.859375,-65.97
16:18:52.875000,-71.29
16:18:52.890625,-72.97
16:18:52.906250,-70.17
16:18:52.921875,-63.02
16:18:52.937500,-52.56
16:18:52.953125,-40.29
16:18:52.968750,-27.69
16:18:52.984375,-15.78
16:18:53,-5.02
16:18:53.015625,4.51
16:18:53.031250,12.85
16:18:53.046875,19.97
16:18:53.062500,25.72
16:18:53.078125,30.00
16:18:53.093750,32.82
16:18:53.109375,34.44
16:18:53.125000,35.25
16:18:53.140625,35.62
16:18:53.156250,35.77
16:18:53.171875,35.74
16:18:53.187500,35.41
16:18:53.203125,34.69
16:18:53.218750,33.61
16:18:53.234375,32.37
16:18:53.250000,31.21
16:18:53.265625,30.34
16:18:53.281250,29.74
16:18:53.296875,29.27
16:18:53.312500,28.62
16:18:53.328125,27.52
16:18:53.343750,25.79
16:18:53.359375,23.37
16:18:53.375000,20.40
16:18:53.390625,17.14
16:18:53.406250,13.91
16:18:53.421875,10.96
16:18:53.437500,8.39
16:18:53.453125,6.05
16:18:53.468750,3.55
16:18:53.484375,0.46
16:18:53.500000,-3.57
16:18:53.515625,-8.50
16:18:53.531250,-13.96
16:18:53.546875,-19.32
16:18:53.562500,-23.98
16:18:53.578125,-27.63
16:18:53.593750,-30.32
16:18:53.609375,-32.46
16:18:53.625000,-34.62
16:18:53.640625,-37.44
16:18:53.656250,-41.39
16:18:53.671875,-46.63
16:18:53.687500,-52.81
16:18:53.703125,-58.97
16:18:53.718750,-63.72
16:18:53.734375,-65.52
16:18:53.750000,-63.29
16:18:53.765625,-56.78
16:18:53.781250,-46.77
16:18:53.796875,-34.74
16:18:53.812500,-22.36
16:18:53.828125,-10.94
16:18:53.843750,-1.12
16:18:53.859375,7.05
16:18:53.875000,13.83
16:18:53.890625,19.50
16:18:53.906250,24.14
16:18:53.921875,27.66
16:18:53.937500,29.94
16:18:53.953125,31.03
16:18:53.968750,31.18
16:18:53.984375,30.78
16:18:54,30.21
16:18:54.015625,29.70
16:18:54.031250,29.26
16:18:54.046875,28.71
16:18:54.062500,27.77
16:18:54.078125,26.35
16:18:54.093750,24.61
16:18:54.109375,22.95
16:18:54.125000,21.86
16:18:54.140625,21.64
16:18:54.156250,22.14
16:18:54.171875,22.80
16:18:54.187500,22.81
16:18:54.203125,21.51
16:18:54.218750,18.71
16:18:54.234375,14.79
16:18:54.250000,10.55
16:18:54.265625,6.84
16:18:54.281250,4.20
16:18:54.296875,2.56
16:18:54.312500,1.43
16:18:54.328125,0.07
16:18:54.343750,-2.06
16:18:54.359375,-5.08
16:18:54.375000,-8.67
16:18:54.390625,-12.25
16:18:54.406250,-15.17
16:18:54.421875,-17.01
16:18:54.437500,-17.64
16:18:54.453125,-17.27
16:18:54.468750,-16.44
16:18:54.484375,-15.92
16:18:54.500000,-16.64
16:18:54.515625,-19.43
16:18:54.531250,-24.72
16:18:54.546875,-32.18
16:18:54.562500,-40.64
16:18:54.578125,-48.24
16:18:54.593750,-52.97
16:18:54.609375,-53.31
16:18:54.625000,-48.73
16:18:54.640625,-39.82
16:18:54.656250,-28.07
16:18:54.671875,-15.23
16:18:54.687500,-2.81
16:18:54.703125,8.31
16:18:54.718750,17.82
16:18:54.734375,25.76
16:18:54.750000,32.26
16:18:54.765625,37.28
16:18:54.781250,40.69
16:18:54.796875,42.38
16:18:54.812500,42.43
16:18:54.828125,41.21
16:18:54.843750,39.29
16:18:54.859375,37.26
16:18:54.875000,35.54
16:18:54.890625,34.23
16:18:54.906250,33.24
16:18:54.921875,32.35
16:18:54.937500,31.48
16:18:54.953125,30.72
16:18:54.968750,30.37
16:18:54.984375,30.66
16:18:55,31.63
16:18:55.015625,32.95
16:18:55.031250,33.99
16:18:55.046875,34.04
16:18:55.062500,32.58
16:18:55.078125,29.52
16:18:55.093750,25.22
16:18:55.109375,20.36
16:18:55.125000,15.63
16:18:55.140625,11.53
16:18:55.156250,8.15
16:18:55.171875,5.22
16:18:55.187500,2.34
16:18:55.203125,-0.89
16:18:55.218750,-4.66
16:18:55.234375,-8.90
16:18:55.250000,-13.33
16:18:55.265625,-17.57
16:18:55.281250,-21.27
16:18:55.296875,-24.20
16:18:55.312500,-26.32
16:18:55.328125,-27.80
16:18:55.343750,-29.03
16:18:55.359375,-30.62
16:18:55.375000,-33.24
16:18:55.390625,-37.46
16:18:55.406250,-43.41
16:18:55.421875,-50.48
16:18:55.437500,-57.36
16:18:55.453125,-62.25
16:18:55.468750,-63.52
16:18:55.484375,-60.30
16:18:55.500000,-52.86
16:18:55.515625,-42.51
16:18:55.531250,-31.06
16:18:55.546875,-20.18
16:18:55.562500,-10.92
16:18:55.578125,-3.60
16:18:55.593750,1.94
16:18:55.609375,6.05
16:18:55.625000,8.99
16:18:55.640625,10.93
16:18:55.656250,11.96
16:18:55.671875,12.15
16:18:55.687500,11.54
16:18:55.703125,10.11
16:18:55.718750,7.92
16:18:55.734375,5.12
16:18:55.750000,2.06
16:18:55.765625,-0.82
16:18:55.781250,-3.08
16:18:55.796875,-4.34
16:18:55.812500,-4.41
16:18:55.828125,-3.11
16:18:55.843750,-0.28
16:18:55.859375,4.15
16:18:55.875000,9.92
16:18:55.890625,16.27
16:18:55.906250,22.02
16:18:55.921875,25.88
16:18:55.937500,26.99
16:18:55.953125,25.28
16:18:55.968750,21.47
16:18:55.984375,16.68
16:18:56,11.83
16:18:56.015625,7.32
16:18:56.031250,3.08
16:18:56.046875,-1.03
16:18:56.062500,-4.81
16:18:56.078125,-7.54
16:18:56.093750,-8.35
16:18:56.109375,-6.72
16:18:56.125000,-2.95
16:18:56.140625,1.81
16:18:56.156250,5.99
16:18:56.171875,8.21
16:18:56.187500,7.70
16:18:56.203125,4.32
16:18:56.218750,-1.70
16:18:56.234375,-9.96
16:18:56.250000,-19.87
16:18:56.265625,-30.41
16:18:56.281250,-39.94
16:18:56.296875,-46.48
16:18:56.312500,-48.28
16:18:56.328125,-44.60
16:18:56.343750,-36.09
16:18:56.359375,-24.61
16:18:56.375000,-12.44
16:18:56.390625,-1.53
16:18:56.406250,7.15
16:18:56.421875,13.57
16:18:56.437500,18.28
16:18:56.453125,22.00
16:18:56.468750,25.28
16:18:56.484375,28.53
16:18:56.500000,32.01
16:18:56.515625,35.85
16:18:56.531250,39.95
16:18:56.546875,43.94
16:18:56.562500,47.27
16:18:56.578125,49.39
16:18:56.593750,49.92
16:18:56.609375,48.78
16:18:56.625000,46.14
16:18:56.640625,42.30
16:18:56.656250,37.63
16:18:56.671875,32.56
16:18:56.687500,27.53
16:18:56.703125,22.95
16:18:56.718750,19.09
16:18:56.734375,16.04
16:18:56.750000,13.64
16:18:56.765625,11.71
16:18:56.781250,10.09
16:18:56.796875,8.71
16:18:56.812500,7.51
16:18:56.828125,6.34
16:18:56.843750,4.92
16:18:56.859375,3.02
16:18:56.875000,0.53
16:18:56.890625,-2.34
16:18:56.906250,-5.18
16:18:56.921875,-7.59
16:18:56.937500,-9.35
16:18:56.953125,-10.52
16:18:56.968750,-11.44
16:18:56.984375,-12.60
16:18:57,-14.61
16:18:57.015625,-18.02
16:18:57.031250,-23.14
16:18:57.046875,-29.77
16:18:57.062500,-37.01
16:18:57.078125,-43.30
16:18:57.093750,-46.79
16:18:57.109375,-46.02
16:18:57.125000,-40.47
16:18:57.140625,-30.85
16:18:57.156250,-18.87
16:18:57.171875,-6.50
16:18:57.187500,4.63
16:18:57.203125,13.68
16:18:57.218750,20.59
16:18:57.234375,25.71
16:18:57.250000,29.38
16:18:57.265625,31.78
16:18:57.281250,32.91
16:18:57.296875,32.83
16:18:57.312500,31.78
16:18:57.328125,30.31
16:18:57.343750,29.08
16:18:57.359375,28.66
16:18:57.375000,29.29
16:18:57.390625,30.81
16:18:57.406250,32.76
16:18:57.421875,34.61
16:18:57.437500,35.97
16:18:57.453125,36.76
16:18:57.468750,37.10
16:18:57.484375,37.17
16:18:57.500000,37.13
16:18:57.515625,36.92
16:18:57.531250,36.41
16:18:57.546875,35.37
16:18:57.562500,33.59
16:18:57.578125,30.91
16:18:57.593750,27.19
16:18:57.609375,22.39
16:18:57.625000,16.55
16:18:57.640625,9.92
16:18:57.656250,2.87
16:18:57.671875,-4.08
16:18:57.687500,-10.44
16:18:57.703125,-15.80
16:18:57.718750,-19.92
16:18:57.734375,-22.76
16:18:57.750000,-24.56
16:18:57.765625,-25.90
16:18:57.781250,-27.61
16:18:57.796875,-30.50
16:18:57.812500,-34.99
16:18:57.828125,-40.69
16:18:57.843750,-46.41
16:18:57.859375,-50.41
16:18:57.875000,-51.14
16:18:57.890625,-47.83
16:18:57.906250,-40.91
16:18:57.921875,-31.75
16:18:57.937500,-22.09
16:18:57.953125,-13.37
16:18:57.968750,-6.25
16:18:57.984375,-0.70
16:18:58,3.74
16:18:58.015625,7.42
16:18:58.031250,10.41
16:18:58.046875,12.47
16:18:58.062500,13.36
16:18:58.078125,13.04
16:18:58.093750,11.77
16:18:58.109375,10.00
16:18:58.125000,8.22
16:18:58.140625,6.71
16:18:58.156250,5.50
16:18:58.171875,4.40
16:18:58.187500,3.12
16:18:58.203125,1.48
16:18:58.218750,-0.52
16:18:58.234375,-2.68
16:18:58.250000,-4.64
16:18:58.265625,-6.11
16:18:58.281250,-6.98
16:18:58.296875,-7.40
16:18:58.312500,-7.78
16:18:58.328125,-8.54
16:18:58.343750,-9.97
16:18:58.359375,-12.09
16:18:58.375000,-14.67
16:18:58.390625,-17.36
16:18:58.406250,-19.84
16:18:58.421875,-21.87
16:18:58.437500,-23.33
16:18:58.453125,-24.13
16:18:58.468750,-24.32
16:18:58.484375,-24.13
16:18:58.500000,-24.12
16:18:58.515625,-24.97
16:18:58.531250,-27.23
16:18:58.546875,-30.91
16:18:58.562500,-35.23
16:18:58.578125,-38.80
16:18:58.593750,-40.07
16:18:58.609375,-37.97
16:18:58.625000,-32.36
16:18:58.640625,-23.99
16:18:58.656250,-14.27
16:18:58.671875,-4.66
16:18:58.687500,3.78
16:18:58.703125,10.53
16:18:58.718750,15.56
16:18:58.734375,19.09
16:18:58.750000,21.36
16:18:58.765625,22.53
16:18:58.781250,22.70
16:18:58.796875,21.96
16:18:58.812500,20.44
16:18:58.828125,18.34
16:18:58.843750,16.04
16:18:58.859375,13.93
16:18:58.875000,12.42
16:18:58.890625,11.65
16:18:58.906250,11.53
16:18:58.921875,11.70
16:18:58.937500,11.65
16:18:58.953125,10.95
16:18:58.968750,9.42
16:18:58.984375,7.06
16:18:59,4.05
16:18:59.015625,0.59
16:18:59.031250,-3.17
16:18:59.046875,-7.11
16:18:59.062500,-11.13
16:18:59.078125,-14.94
16:18:59.093750,-18.11
16:18:59.109375,-20.16
16:18:59.125000,-20.63
16:18:59.140625,-19.36
16:18:59.156250,-16.54
16:18:59.171875,-12.75
16:18:59.187500,-8.85
16:18:59.203125,-5.73
16:18:59.218750,-4.21
16:18:59.234375,-4.89
16:18:59.250000,-8.15
16:18:59.265625,-14.14
16:18:59.281250,-22.61
16:18:59.296875,-32.72
16:18:59.312500,-43.02
16:18:59.328125,-51.56
16:18:59.343750,-56.37
16:18:59.359375,-56.08
16:18:59.375000,-50.35
16:18:59.390625,-40.00
16:18:59.406250,-26.67
16:18:59.421875,-12.30
16:18:59.437500,1.44
16:18:59.453125,13.42
16:18:59.468750,23.07
16:18:59.484375,30.30
16:18:59.500000,35.20
16:18:59.515625,38.01
16:18:59.531250,39.03
16:18:59.546875,38.61
16:18:59.562500,37.08
16:18:59.578125,34.80
16:18:59.593750,32.14
16:18:59.609375,29.42
16:18:59.625000,26.95
16:18:59.640625,24.94
16:18:59.656250,23.43
16:18:59.671875,22.36
16:18:59.687500,21.59
16:18:59.703125,21.04
16:18:59.718750,20.70
16:18:59.734375,20.70
16:18:59.750000,21.12
16:18:59.765625,21.89
16:18:59.781250,22.70
16:18:59.796875,23.04
16:18:59.812500,22.43
16:18:59.828125,20.56
16:18:59.843750,17.40
16:18:59.859375,13.20
16:18:59.875000,8.39
16:18:59.890625,3.38
16:18:59.906250,-1.45
16:18:59.921875,-5.84
16:18:59.937500,-9.59
16:18:59.953125,-12.53
16:18:59.968750,-14.61
16:18:59.984375,-15.86
16:19:00,-16.54
16:19:00.015625,-17.14
16:19:00.031250,-18.33
16:19:00.046875,-20.81
16:19:00.062500,-24.92
16:19:00.078125,-30.46
16:19:00.093750,-36.49
16:19:00.109375,-41.59
16:19:00.125000,-44.25
16:19:00.140625,-43.43
16:19:00.156250,-38.95
16:19:00.171875,-31.53
16:19:00.187500,-22.42
16:19:00.203125,-12.95
16:19:00.218750,-4.06
16:19:00.234375,3.81
16:19:00.250000,10.60
16:19:00.265625,16.36
16:19:00.281250,21.05
16:19:00.296875,24.53
16:19:00.312500,26.69
16:19:00.328125,27.58
16:19:00.343750,27.48
16:19:00.359375,26.78
16:19:00.375000,25.83
16:19:00.390625,24.85
16:19:00.406250,23.84
16:19:00.421875,22.69
16:19:00.437500,21.29
16:19:00.453125,19.66
16:19:00.468750,17.93
16:19:00.484375,16.32
16:19:00.500000,14.96
16:19:00.515625,13.86
16:19:00.531250,12.88
16:19:00.546875,11.76
16:19:00.562500,10.27
16:19:00.578125,8.23
16:19:00.593750,5.60
16:19:00.609375,2.46
16:19:00.625000,-1.05
16:19:00.640625,-4.75
16:19:00.656250,-8.55
16:19:00.671875,-12.38
16:19:00.687500,-16.18
16:19:00.703125,-19.85
16:19:00.718750,-23.21
16:19:00.734375,-26.09
16:19:00.750000,-28.33
16:19:00.765625,-29.95
16:19:00.781250,-31.14
16:19:00.796875,-32.31
16:19:00.812500,-33.98
16:19:00.828125,-36.58
16:19:00.843750,-40.27
16:19:00.859375,-44.71
16:19:00.875000,-49.03
16:19:00.890625,-52.03
16:19:00.906250,-52.52
16:19:00.921875,-49.68
16:19:00.937500,-43.38
16:19:00.953125,-34.20
16:19:00.968750,-23.25
16:19:00.984375,-11.81
16:19:01,-1.01
16:19:01.015625,8.38
16:19:01.031250,15.98
16:19:01.046875,21.68
16:19:01.062500,25.47
16:19:01.078125,27.39
16:19:01.093750,27.54
16:19:01.109375,26.15
16:19:01.125000,23.65
16:19:01.140625,20.64
16:19:01.156250,17.78
16:19:01.171875,15.63
16:19:01.187500,14.54
16:19:01.203125,14.54
16:19:01.218750,15.39
16:19:01.234375,16.68
16:19:01.250000,18.00
16:19:01.265625,18.98
16:19:01.281250,19.31
16:19:01.296875,18.81
16:19:01.312500,17.37
16:19:01.328125,15.03
16:19:01.343750,11.89
16:19:01.359375,8.24
16:19:01.375000,4.32
16:19:01.390625,0.34
16:19:01.406250,-3.60
16:19:01.421875,-7.54
16:19:01.437500,-11.51
16:19:01.453125,-15.46
16:19:01.468750,-19.17
16:19:01.484375,-22.32
16:19:01.500000,-24.60
16:19:01.515625,-25.88
16:19:01.531250,-26.36
16:19:01.546875,-26.55
16:19:01.562500,-27.15
16:19:01.578125,-28.92
16:19:01.593750,-32.51
16:19:01.609375,-38.25
16:19:01.625000,-45.93
16:19:01.640625,-54.64
16:19:01.656250,-62.78
16:19:01.671875,-68.42
16:19:01.687500,-69.81
16:19:01.703125,-66.00
16:19:01.718750,-57.20
16:19:01.734375,-44.75
16:19:01.750000,-30.64
16:19:01.765625,-16.77
16:19:01.781250,-4.47
16:19:01.796875,5.76
16:19:01.812500,14.03
16:19:01.828125,20.70
16:19:01.843750,26.05
16:19:01.859375,30.22
16:19:01.875000,33.27
16:19:01.890625,35.33
16:19:01.906250,36.60
16:19:01.921875,37.33
16:19:01.937500,37.72
16:19:01.953125,37.81
16:19:01.968750,37.55
16:19:01.984375,36.87
16:19:02,35.76
16:19:02.015625,34.33
16:19:02.031250,32.77
16:19:02.046875,31.24
16:19:02.062500,29.77
16:19:02.078125,28.26
16:19:02.093750,26.46
16:19:02.109375,24.13
16:19:02.125000,21.17
16:19:02.140625,17.66
16:19:02.156250,13.92
16:19:02.171875,10.43
16:19:02.187500,7.66
16:19:02.203125,5.83
16:19:02.218750,4.79
16:19:02.234375,4.04
16:19:02.250000,2.87
16:19:02.265625,0.68
16:19:02.281250,-2.76
16:19:02.296875,-7.17
16:19:02.312500,-11.87
16:19:02.328125,-15.95
16:19:02.343750,-18.64
16:19:02.359375,-19.58
16:19:02.375000,-18.98
16:19:02.390625,-17.67
16:19:02.406250,-16.91
16:19:02.421875,-18.06
16:19:02.437500,-22.13
16:19:02.453125,-29.27
16:19:02.468750,-38.54
16:19:02.484375,-48.09
16:19:02.500000,-55.60
16:19:02.515625,-59.12
16:19:02.531250,-57.62
16:19:02.546875,-51.32
16:19:02.562500,-41.38
16:19:02.578125,-29.36
16:19:02.593750,-16.63
16:19:02.609375,-4.00
16:19:02.625000,8.24
16:19:02.640625,20.04
16:19:02.656250,31.24
16:19:02.671875,41.43
16:19:02.687500,49.94
16:19:02.703125,56.17
16:19:02.718750,59.77
16:19:02.734375,60.83
16:19:02.750000,59.75
16:19:02.765625,57.13
16:19:02.781250,53.53
16:19:02.796875,49.34
16:19:02.812500,44.74
16:19:02.828125,39.77
16:19:02.843750,34.52
16:19:02.859375,29.19
16:19:02.875000,24.17
16:19:02.890625,19.89
16:19:02.906250,16.65
16:19:02.921875,14.40
16:19:02.937500,12.67
16:19:02.953125,10.70
16:19:02.968750,7.75
16:19:02.984375,3.44
16:19:03,-2.04
16:19:03.015625,-8.00
16:19:03.031250,-13.54
16:19:03.046875,-18.02
16:19:03.062500,-21.31
16:19:03.078125,-23.84
16:19:03.093750,-26.31
16:19:03.109375,-29.36
16:19:03.125000,-33.27
16:19:03.140625,-37.99
16:19:03.156250,-43.13
16:19:03.171875,-48.25
16:19:03.187500,-52.88
16:19:03.203125,-56.55
16:19:03.218750,-58.71
16:19:03.234375,-58.80
16:19:03.250000,-56.38
16:19:03.265625,-51.43
16:19:03.281250,-44.53
16:19:03.296875,-36.88
16:19:03.312500,-29.93
16:19:03.328125,-24.87
16:19:03.343750,-22.07
16:19:03.359375,-20.91
16:19:03.375000,-19.98
16:19:03.390625,-17.65
16:19:03.406250,-12.70
16:19:03.421875,-4.69
16:19:03.437500,5.89
16:19:03.453125,18.03
16:19:03.468750,30.48
16:19:03.484375,42.17
16:19:03.500000,52.31
16:19:03.515625,60.43
16:19:03.531250,66.33
16:19:03.546875,70.03
16:19:03.562500,71.79
16:19:03.578125,72.15
16:19:03.593750,71.82
16:19:03.609375,71.62
16:19:03.625000,72.25
16:19:03.640625,74.02
16:19:03.656250,76.73
16:19:03.671875,79.65
16:19:03.687500,81.70
16:19:03.703125,81.93
16:19:03.718750,79.82
16:19:03.734375,75.57
16:19:03.750000,70.01
16:19:03.765625,64.30
16:19:03.781250,59.53
16:19:03.796875,56.38
16:19:03.812500,55.07
16:19:03.828125,55.29
16:19:03.843750,56.43
16:19:03.859375,57.50
16:19:03.875000,57.36
16:19:03.890625,54.78
16:19:03.906250,48.75
16:19:03.921875,38.80
16:19:03.937500,25.18
16:19:03.953125,8.84
16:19:03.968750,-8.91
16:19:03.984375,-26.74
16:19:04,-43.63
16:19:04.015625,-58.90
16:19:04.031250,-72.13
16:19:04.046875,-82.99
16:19:04.062500,-91.32
16:19:04.078125,-97.25
16:19:04.093750,-101.38
16:19:04.109375,-104.68
16:19:04.125000,-108.10
16:19:04.140625,-112.07
16:19:04.156250,-116.08
16:19:04.171875,-118.81
16:19:04.187500,-118.61
16:19:04.203125,-114.39
16:19:04.218750,-106.04
16:19:04.234375,-94.66
16:19:04.250000,-82.03
16:19:04.265625,-69.92
16:19:04.281250,-59.45
16:19:04.296875,-50.86
16:19:04.312500,-43.70
16:19:04.328125,-37.29
16:19:04.343750,-31.15
16:19:04.359375,-25.22
16:19:04.375000,-19.88
16:19:04.390625,-15.68
16:19:04.406250,-13.10
16:19:04.421875,-12.39
16:19:04.437500,-13.42
16:19:04.453125,-15.79
16:19:04.468750,-19.01
16:19:04.484375,-22.67
16:19:04.500000,-26.57
16:19:04.515625,-30.69
16:19:04.531250,-35.07
16:19:04.546875,-39.59
16:19:04.562500,-43.92
16:19:04.578125,-47.47
16:19:04.593750,-49.70
16:19:04.609375,-50.31
16:19:04.625000,-49.47
16:19:04.640625,-47.90
16:19:04.656250,-46.72
16:19:04.671875,-47.14
16:19:04.687500,-50.15
16:19:04.703125,-56.27
16:19:04.718750,-65.39
16:19:04.734375,-76.97
16:19:04.750000,-90.17
16:19:04.765625,-104.03
16:19:04.781250,-117.69
16:19:04.796875,-130.47
16:19:04.812500,-142.11
16:19:04.828125,-152.76
16:19:04.843750,-162.86
16:19:04.859375,-172.71
16:19:04.875000,-181.89
16:19:04.890625,-188.88
16:19:04.906250,-191.15
16:19:04.921875,-185.89
16:19:04.937500,-170.92
16:19:04.953125,-145.49
16:19:04.968750,-110.19
16:19:04.984375,-66.53
16:19:05,-16.30
16:19:05.015625,38.67
16:19:05.031250,96.17
16:19:05.046875,153.12
16:19:05.062500,205.50
16:19:05.078125,248.98
16:19:05.093750,280.10
16:19:05.109375,297.24
16:19:05.125000,301.09
16:19:05.140625,294.07
16:19:05.156250,279.38
16:19:05.171875,259.98
16:19:05.187500,238.11
16:19:05.203125,215.18
16:19:05.218750,192.10
16:19:05.234375,169.46
16:19:05.250000,147.77
16:19:05.265625,127.41
16:19:05.281250,108.76
16:19:05.296875,92.24
16:19:05.312500,78.33
16:19:05.328125,67.41
16:19:05.343750,59.45
16:19:05.359375,53.90
16:19:05.375000,49.66
16:19:05.390625,45.38
16:19:05.406250,39.86
16:19:05.421875,32.33
16:19:05.437500,22.61
16:19:05.453125,10.92
16:19:05.468750,-2.25
16:19:05.484375,-16.26
16:19:05.500000,-30.14
16:19:05.515625,-42.38
16:19:05.531250,-51.00
16:19:05.546875,-53.89
16:19:05.562500,-49.54
16:19:05.578125,-37.73
16:19:05.593750,-19.84
16:19:05.609375,1.51
16:19:05.625000,23.24
16:19:05.640625,42.70
16:19:05.656250,58.30
16:19:05.671875,69.50
16:19:05.687500,76.51
16:19:05.703125,79.82
16:19:05.718750,79.95
16:19:05.734375,77.38
16:19:05.750000,72.59
16:19:05.765625,66.02
16:19:05.781250,57.90
16:19:05.796875,48.10
16:19:05.812500,36.29
16:19:05.828125,22.24
16:19:05.843750,6.42
16:19:05.859375,-9.78
16:19:05.875000,-24.14
16:19:05.890625,-34.33
16:19:05.906250,-38.60
16:19:05.921875,-36.51
16:19:05.937500,-29.06
16:19:05.953125,-18.31
16:19:05.968750,-6.72
16:19:05.984375,3.57
16:19:06,11.17
16:19:06.015625,15.56
16:19:06.031250,16.90
16:19:06.046875,15.81
16:19:06.062500,13.21
16:19:06.078125,10.28
16:19:06.093750,8.49
16:19:06.109375,9.46
16:19:06.125000,14.63
16:19:06.140625,24.56
16:19:06.156250,38.28
16:19:06.171875,53.10
16:19:06.187500,65.25
16:19:06.203125,71.18
16:19:06.218750,69.00
16:19:06.234375,59.42
16:19:06.250000,45.33
16:19:06.265625,30.60
16:19:06.281250,18.32
16:19:06.296875,9.72
16:19:06.312500,4.20
16:19:06.328125,0.16
16:19:06.343750,-3.69
16:19:06.359375,-7.68
16:19:06.375000,-11.17
16:19:06.390625,-13.28
16:19:06.406250,-13.53
16:19:06.421875,-12.23
16:19:06.437500,-10.10
16:19:06.453125,-7.85
16:19:06.468750,-5.84
16:19:06.484375,-4.09
16:19:06.500000,-2.53
16:19:06.515625,-1.36
16:19:06.531250,-1.15
16:19:06.546875,-2.69
16:19:06.562500,-6.76
16:19:06.578125,-13.85
16:19:06.593750,-23.95
16:19:06.609375,-36.52
16:19:06.625000,-50.50
16:19:06.640625,-64.35
16:19:06.656250,-76.27
16:19:06.671875,-84.54
16:19:06.687500,-87.92
16:19:06.703125,-86.04
16:19:06.718750,-79.61
16:19:06.734375,-70.18
16:19:06.750000,-59.73
16:19:06.765625,-50.01
16:19:06.781250,-42.12
16:19:06.796875,-36.32
16:19:06.812500,-32.17
16:19:06.828125,-28.94
16:19:06.843750,-25.99
16:19:06.859375,-23.03
16:19:06.875000,-20.12
16:19:06.890625,-17.54
16:19:06.906250,-15.63
16:19:06.921875,-14.65
16:19:06.937500,-14.71
16:19:06.953125,-15.81
16:19:06.968750,-17.86
16:19:06.984375,-20.72
16:19:07,-24.22
16:19:07.015625,-28.02
16:19:07.031250,-31.58
16:19:07.046875,-34.19
16:19:07.062500,-35.00
16:19:07.078125,-33.33
16:19:07.093750,-28.88
16:19:07.109375,-21.90
16:19:07.125000,-13.15
16:19:07.140625,-3.64
16:19:07.156250,5.79
16:19:07.171875,14.80
16:19:07.187500,23.57
16:19:07.203125,32.56
16:19:07.218750,42.07
16:19:07.234375,51.82
16:19:07.250000,60.93
16:19:07.265625,68.12
16:19:07.281250,72.13
16:19:07.296875,72.20
16:19:07.312500,68.21
16:19:07.328125,60.67
16:19:07.343750,50.42
16:19:07.359375,38.41
16:19:07.375000,25.53
16:19:07.390625,12.53
16:19:07.406250,0.12
16:19:07.421875,-11.13
16:19:07.437500,-20.80
16:19:07.453125,-28.60
16:19:07.468750,-34.32
16:19:07.484375,-37.71
16:19:07.500000,-38.35
16:19:07.515625,-35.82
16:19:07.531250,-29.89
16:19:07.546875,-20.85
16:19:07.562500,-9.60
16:19:07.578125,2.43
16:19:07.593750,13.69
16:19:07.609375,22.90
16:19:07.625000,29.32
16:19:07.640625,32.80
16:19:07.656250,33.54
16:19:07.671875,31.89
16:19:07.687500,28.21
16:19:07.703125,22.85
16:19:07.718750,16.29
16:19:07.734375,9.07
16:19:07.750000,1.83
16:19:07.765625,-4.88
16:19:07.781250,-10.60
16:19:07.796875,-15.04
16:19:07.812500,-18.02
16:19:07.828125,-19.43
16:19:07.843750,-19.28
16:19:07.859375,-17.80
16:19:07.875000,-15.41
16:19:07.890625,-12.72
16:19:07.906250,-10.35
16:19:07.921875,-8.80
16:19:07.937500,-8.35
16:19:07.953125,-9.09
16:19:07.968750,-10.97
16:19:07.984375,-13.90
16:19:08,-17.77
16:19:08.015625,-22.39
16:19:08.031250,-27.45
16:19:08.046875,-32.51
16:19:08.062500,-37.10
16:19:08.078125,-40.85
16:19:08.093750,-43.56
16:19:08.109375,-45.27
16:19:08.125000,-46.12
16:19:08.140625,-46.24
16:19:08.156250,-45.72
16:19:08.171875,-44.52
16:19:08.187500,-42.67
16:19:08.203125,-40.23
16:19:08.218750,-37.42
16:19:08.234375,-34.43
16:19:08.250000,-31.37
16:19:08.265625,-28.07
16:19:08.281250,-24.11
16:19:08.296875,-18.98
16:19:08.312500,-12.36
16:19:08.328125,-4.26
16:19:08.343750,4.84
16:19:08.359375,14.13
16:19:08.375000,22.73
16:19:08.390625,29.94
16:19:08.406250,35.28
16:19:08.421875,38.50
16:19:08.437500,39.40
16:19:08.453125,37.70
16:19:08.468750,33.18
16:19:08.484375,25.95
16:19:08.500000,16.70
16:19:08.515625,6.78
16:19:08.531250,-2.15
16:19:08.546875,-8.54
16:19:08.562500,-11.51
16:19:08.578125,-11.05
16:19:08.593750,-7.81
16:19:08.609375,-2.68
16:19:08.625000,3.58
16:19:08.640625,10.59
16:19:08.656250,18.17
16:19:08.671875,26.08
16:19:08.687500,33.88
16:19:08.703125,40.90
16:19:08.718750,46.47
16:19:08.734375,50.25
16:19:08.750000,52.28
16:19:08.765625,52.93
16:19:08.781250,52.59
16:19:08.796875,51.51
16:19:08.812500,49.64
16:19:08.828125,46.82
16:19:08.843750,42.97
16:19:08.859375,38.33
16:19:08.875000,33.42
16:19:08.890625,28.91
16:19:08.906250,25.33
16:19:08.921875,22.85
16:19:08.937500,21.32
16:19:08.953125,20.32
16:19:08.968750,19.49
16:19:08.984375,18.50
16:19:09,17.17
16:19:09.015625,15.40
16:19:09.031250,13.09
16:19:09.046875,10.33
16:19:09.062500,7.44
16:19:09.078125,5.05
16:19:09.093750,3.98
16:19:09.109375,4.97
16:19:09.125000,8.37
16:19:09.140625,13.96
16:19:09.156250,21.01
16:19:09.171875,28.45
16:19:09.187500,35.28
16:19:09.203125,40.76
16:19:09.218750,44.55
16:19:09.234375,46.58
16:19:09.250000,46.82
16:19:09.265625,45.21
16:19:09.281250,41.56
16:19:09.296875,35.76
16:19:09.312500,27.85
16:19:09.328125,18.22
16:19:09.343750,7.46
16:19:09.359375,-3.83
16:19:09.375000,-15.20
16:19:09.390625,-26.43
16:19:09.406250,-37.27
16:19:09.421875,-47.15
16:19:09.437500,-54.93
16:19:09.453125,-59.00
16:19:09.468750,-57.66
16:19:09.484375,-49.73
16:19:09.500000,-34.97
16:19:09.515625,-14.18
16:19:09.531250,10.94
16:19:09.546875,38.04
16:19:09.562500,64.38
16:19:09.578125,86.98
16:19:09.593750,102.95
16:19:09.609375,109.86
16:19:09.625000,106.50
16:19:09.640625,93.30
16:19:09.656250,72.49
16:19:09.671875,47.49
16:19:09.687500,21.92
16:19:09.703125,-1.37
16:19:09.718750,-20.86
16:19:09.734375,-36.20
16:19:09.750000,-47.66
16:19:09.765625,-55.55
16:19:09.781250,-59.91
16:19:09.796875,-60.67
16:19:09.812500,-57.91
16:19:09.828125,-52.13
16:19:09.843750,-44.06
16:19:09.859375,-34.45
16:19:09.875000,-23.78
16:19:09.890625,-12.29
16:19:09.906250,-0.14
16:19:09.921875,12.24
16:19:09.937500,24.16
16:19:09.953125,34.65
16:19:09.968750,42.90
16:19:09.984375,48.39
16:19:10,51.07
16:19:10.015625,51.33
16:19:10.031250,49.78
16:19:10.046875,47.14
16:19:10.062500,44.06
16:19:10.078125,40.97
16:19:10.093750,38.01
16:19:10.109375,34.98
16:19:10.125000,31.53
16:19:10.140625,27.32
16:19:10.156250,22.33
16:19:10.171875,16.92
16:19:10.187500,11.74
16:19:10.203125,7.44
16:19:10.218750,4.39
16:19:10.234375,2.61
16:19:10.250000,1.77
16:19:10.265625,1.51
16:19:10.281250,1.59
16:19:10.296875,1.89
16:19:10.312500,2.24
16:19:10.328125,2.33
16:19:10.343750,1.70
16:19:10.359375,-0.14
16:19:10.375000,-3.37
16:19:10.390625,-7.82
16:19:10.406250,-13.07
16:19:10.421875,-18.66
16:19:10.437500,-24.36
16:19:10.453125,-30.26
16:19:10.468750,-36.58
16:19:10.484375,-43.37
16:19:10.500000,-50.37
16:19:10.515625,-56.96
16:19:10.531250,-62.36
16:19:10.546875,-65.94
16:19:10.562500,-67.34
16:19:10.578125,-66.60
16:19:10.593750,-64.12
16:19:10.609375,-60.65
16:19:10.625000,-57.14
16:19:10.640625,-54.59
16:19:10.656250,-53.73
16:19:10.671875,-54.61
16:19:10.687500,-56.54
16:19:10.703125,-58.16
16:19:10.718750,-58.00
16:19:10.734375,-55.02
16:19:10.750000,-49.06
16:19:10.765625,-40.79
16:19:10.781250,-31.42
16:19:10.796875,-22.14
16:19:10.812500,-13.76
16:19:10.828125,-6.54
16:19:10.843750,-0.43
16:19:10.859375,4.71
16:19:10.875000,8.89
16:19:10.890625,12.04
16:19:10.906250,14.10
16:19:10.921875,15.24
16:19:10.937500,15.87
16:19:10.953125,16.59
16:19:10.968750,17.94
16:19:10.984375,20.17
16:19:11,23.10
16:19:11.015625,26.19
16:19:11.031250,28.78
16:19:11.046875,30.30
16:19:11.062500,30.51
16:19:11.078125,29.46
16:19:11.093750,27.45
16:19:11.109375,24.77
16:19:11.125000,21.57
16:19:11.140625,17.87
16:19:11.156250,13.57
16:19:11.171875,8.71
16:19:11.187500,3.48
16:19:11.203125,-1.69
16:19:11.218750,-6.29
16:19:11.234375,-9.89
16:19:11.250000,-12.34
16:19:11.265625,-13.80
16:19:11.281250,-14.70
16:19:11.296875,-15.48
16:19:11.312500,-16.47
16:19:11.328125,-17.75
16:19:11.343750,-19.17
16:19:11.359375,-20.52
16:19:11.375000,-21.69
16:19:11.390625,-22.69
16:19:11.406250,-23.75
16:19:11.421875,-25.16
16:19:11.437500,-27.29
16:19:11.453125,-30.40
16:19:11.468750,-34.66
16:19:11.484375,-39.83
16:19:11.500000,-45.28
16:19:11.515625,-49.98
16:19:11.531250,-52.66
16:19:11.546875,-52.26
16:19:11.562500,-48.29
16:19:11.578125,-41.01
16:19:11.593750,-31.39
16:19:11.609375,-20.73
16:19:11.625000,-10.24
16:19:11.640625,-0.72
16:19:11.656250,7.55
16:19:11.671875,14.60
16:19:11.687500,20.51
16:19:11.703125,25.22
16:19:11.718750,28.56
16:19:11.734375,30.31
16:19:11.750000,30.43
16:19:11.765625,29.07
16:19:11.781250,26.50
16:19:11.796875,23.05
16:19:11.812500,18.92
16:19:11.828125,14.23
16:19:11.843750,9.05
16:19:11.859375,3.63
16:19:11.875000,-1.61
16:19:11.890625,-6.05
16:19:11.906250,-9.07
16:19:11.921875,-10.22
16:19:11.937500,-9.40
16:19:11.953125,-6.95
16:19:11.968750,-3.60
16:19:11.984375,-0.21
16:19:12,2.38
16:19:12.015625,3.60
16:19:12.031250,3.23
16:19:12.046875,1.34
16:19:12.062500,-1.88
16:19:12.078125,-6.34
16:19:12.093750,-12.05
16:19:12.109375,-19.14
16:19:12.125000,-27.57
16:19:12.140625,-37.07
16:19:12.156250,-47.00
16:19:12.171875,-56.48
16:19:12.187500,-64.53
16:19:12.203125,-70.38
16:19:12.218750,-73.65
16:19:12.234375,-74.56
16:19:12.250000,-73.90
16:19:12.265625,-72.84
16:19:12.281250,-72.56
16:19:12.296875,-73.77
16:19:12.312500,-76.37
16:19:12.328125,-79.38
16:19:12.343750,-81.25
16:19:12.359375,-80.48
16:19:12.375000,-76.13
16:19:12.390625,-68.24
16:19:12.406250,-57.72
16:19:12.421875,-45.97
16:19:12.437500,-34.38
16:19:12.453125,-23.96
16:19:12.468750,-15.20
16:19:12.484375,-8.15
16:19:12.500000,-2.62
16:19:12.515625,1.64
16:19:12.531250,4.83
16:19:12.546875,7.12
16:19:12.562500,8.61
16:19:12.578125,9.42
16:19:12.593750,9.65
16:19:12.609375,9.41
16:19:12.625000,8.83
16:19:12.640625,8.01
16:19:12.656250,7.12
16:19:12.671875,6.34
16:19:12.687500,5.93
16:19:12.703125,6.18
16:19:12.718750,7.37
16:19:12.734375,9.68
16:19:12.750000,13.11
16:19:12.765625,17.43
16:19:12.781250,22.22
16:19:12.796875,27.03
16:19:12.812500,31.38
16:19:12.828125,34.93
16:19:12.843750,37.42
16:19:12.859375,38.61
16:19:12.875000,38.28
16:19:12.890625,36.18
16:19:12.906250,32.10
16:19:12.921875,25.95
16:19:12.937500,17.91
16:19:12.953125,8.43
16:19:12.968750,-1.74
16:19:12.984375,-11.69
16:19:13,-20.50
16:19:13.015625,-27.37
16:19:13.031250,-31.85
16:19:13.046875,-33.82
16:19:13.062500,-33.58
16:19:13.078125,-31.65
16:19:13.093750,-28.67
16:19:13.109375,-25.07
16:19:13.125000,-21.00
16:19:13.140625,-16.28
16:19:13.156250,-10.53
16:19:13.171875,-3.44
16:19:13.187500,4.91
16:19:13.203125,14.06
16:19:13.218750,23.20
16:19:13.234375,31.51
16:19:13.250000,38.47
16:19:13.265625,44.07
16:19:13.281250,48.73
16:19:13.296875,52.97
16:19:13.312500,57.12
16:19:13.328125,61.08
16:19:13.343750,64.41
16:19:13.359375,66.51
16:19:13.375000,66.97
16:19:13.390625,65.66
16:19:13.406250,62.83
16:19:13.421875,58.91
16:19:13.437500,54.39
16:19:13.453125,49.74
16:19:13.468750,45.33
16:19:13.484375,41.50
16:19:13.500000,38.48
16:19:13.515625,36.36
16:19:13.531250,35.05
16:19:13.546875,34.23
16:19:13.562500,33.48
16:19:13.578125,32.38
16:19:13.593750,30.60
16:19:13.609375,27.98
16:19:13.625000,24.54
16:19:13.640625,20.45
16:19:13.656250,16.01
16:19:13.671875,11.67
16:19:13.687500,7.85
16:19:13.703125,4.91
16:19:13.718750,2.98
16:19:13.734375,1.97
16:19:13.750000,1.60
16:19:13.765625,1.51
16:19:13.781250,1.36
16:19:13.796875,0.93
16:19:13.812500,0.10
16:19:13.828125,-1.14
16:19:13.843750,-2.81
16:19:13.859375,-4.92
16:19:13.875000,-7.49
16:19:13.890625,-10.50
16:19:13.906250,-13.85
16:19:13.921875,-17.27
16:19:13.937500,-20.31
16:19:13.953125,-22.40
16:19:13.968750,-22.95
16:19:13.984375,-21.51
16:19:14,-17.93
16:19:14.015625,-12.50
16:19:14.031250,-5.85
16:19:14.046875,1.14
16:19:14.062500,7.57
16:19:14.078125,12.82
16:19:14.093750,16.63
16:19:14.109375,19.13
16:19:14.125000,20.64
16:19:14.140625,21.52
16:19:14.156250,22.05
16:19:14.171875,22.43
16:19:14.187500,22.86
16:19:14.203125,23.64
16:19:14.218750,25.07
16:19:14.234375,27.42
16:19:14.250000,30.73
16:19:14.265625,34.72
16:19:14.281250,38.92
16:19:14.296875,42.79
16:19:14.312500,45.90
16:19:14.328125,48.06
16:19:14.343750,49.19
16:19:14.359375,49.27
16:19:14.375000,48.22
16:19:14.390625,46.00
16:19:14.406250,42.69
16:19:14.421875,38.60
16:19:14.437500,34.20
16:19:14.453125,30.00
16:19:14.468750,26.41
16:19:14.484375,23.57
16:19:14.500000,21.36
16:19:14.515625,19.58
16:19:14.531250,18.04
16:19:14.546875,16.60
16:19:14.562500,15.19
16:19:14.578125,13.63
16:19:14.593750,11.57
16:19:14.609375,8.50
16:19:14.625000,3.95
16:19:14.640625,-2.32
16:19:14.656250,-10.31
16:19:14.671875,-19.80
16:19:14.687500,-30.55
16:19:14.703125,-42.46
16:19:14.718750,-55.45
16:19:14.734375,-69.22
16:19:14.750000,-82.98
16:19:14.765625,-95.35
16:19:14.781250,-104.55
16:19:14.796875,-108.97
16:19:14.812500,-107.65
16:19:14.828125,-100.77
16:19:14.843750,-89.53
16:19:14.859375,-75.74
16:19:14.875000,-61.26
16:19:14.890625,-47.43
16:19:14.906250,-34.91
16:19:14.921875,-23.72
16:19:14.937500,-13.63
16:19:14.953125,-4.41
16:19:14.968750,3.91
16:19:14.984375,11.17
16:19:15,17.13
16:19:15.015625,21.66
16:19:15.031250,24.78
16:19:15.046875,26.51
16:19:15.062500,26.85
16:19:15.078125,25.65
16:19:15.093750,22.71
16:19:15.109375,17.98
16:19:15.125000,11.73
16:19:15.140625,4.64
16:19:15.156250,-2.26
16:19:15.171875,-7.81
16:19:15.187500,-10.98
16:19:15.203125,-11.08
16:19:15.218750,-7.89
16:19:15.234375,-1.67
16:19:15.250000,6.95
16:19:15.265625,17.02
16:19:15.281250,27.45
16:19:15.296875,37.09
16:19:15.312500,44.85
16:19:15.328125,49.87
16:19:15.343750,51.53
16:19:15.359375,49.61
16:19:15.375000,44.27
16:19:15.390625,36.11
16:19:15.406250,26.09
16:19:15.421875,15.36
16:19:15.437500,5.13
16:19:15.453125,-3.63
16:19:15.468750,-10.30
16:19:15.484375,-14.66
16:19:15.500000,-16.81
16:19:15.515625,-16.94
16:19:15.531250,-15.13
16:19:15.546875,-11.22
16:19:15.562500,-4.99
16:19:15.578125,3.66
16:19:15.593750,14.47
16:19:15.609375,26.63
16:19:15.625000,38.98
16:19:15.640625,50.21
16:19:15.656250,59.28
16:19:15.671875,65.62
16:19:15.687500,69.18
16:19:15.703125,70.40
16:19:15.718750,70.00
16:19:15.734375,68.81
16:19:15.750000,67.63
16:19:15.765625,67.05
16:19:15.781250,67.37
16:19:15.796875,68.43
16:19:15.812500,69.70
16:19:15.828125,70.40
16:19:15.843750,69.80
16:19:15.859375,67.41
16:19:15.875000,63.15
16:19:15.890625,57.25
16:19:15.906250,50.06
16:19:15.921875,41.88
16:19:15.937500,32.87
16:19:15.953125,23.12
16:19:15.968750,12.87
16:19:15.984375,2.59
16:19:16,-7.04
16:19:16.015625,-15.20
16:19:16.031250,-21.20
16:19:16.046875,-24.62
16:19:16.062500,-25.45
16:19:16.078125,-24.05
16:19:16.093750,-21.08
16:19:16.109375,-17.43
16:19:16.125000,-14.02
16:19:16.140625,-11.76
16:19:16.156250,-11.42
16:19:16.171875,-13.46
16:19:16.187500,-17.97
16:19:16.203125,-24.58
16:19:16.218750,-32.57
16:19:16.234375,-41.05
16:19:16.250000,-49.08
16:19:16.265625,-55.88
16:19:16.281250,-60.91
16:19:16.296875,-63.94
16:19:16.312500,-65.01
16:19:16.328125,-64.45
16:19:16.343750,-62.72
16:19:16.359375,-60.27
16:19:16.375000,-57.33
16:19:16.390625,-53.84
16:19:16.406250,-49.48
16:19:16.421875,-43.87
16:19:16.437500,-36.81
16:19:16.453125,-28.48
16:19:16.468750,-19.38
16:19:16.484375,-10.23
16:19:16.500000,-1.70
16:19:16.515625,5.74
16:19:16.531250,11.91
16:19:16.546875,16.81
16:19:16.562500,20.55
16:19:16.578125,23.26
16:19:16.593750,25.04
16:19:16.609375,25.99
16:19:16.625000,26.19
16:19:16.640625,25.74
16:19:16.656250,24.74
16:19:16.671875,23.34
16:19:16.687500,21.72
16:19:16.703125,20.06
16:19:16.718750,18.55
16:19:16.734375,17.24
16:19:16.750000,16.08
16:19:16.765625,14.89
16:19:16.781250,13.43
16:19:16.796875,11.52
16:19:16.812500,9.06
16:19:16.828125,6.11
16:19:16.843750,2.83
16:19:16.859375,-0.56
16:19:16.875000,-3.91
16:19:16.890625,-7.12
16:19:16.906250,-10.25
16:19:16.921875,-13.43
16:19:16.937500,-16.80
16:19:16.953125,-20.45
16:19:16.968750,-24.34
16:19:16.984375,-28.34
16:19:17,-32.32
16:19:17.015625,-36.15
16:19:17.031250,-39.74
16:19:17.046875,-43.04
16:19:17.062500,-45.96
16:19:17.078125,-48.47
16:19:17.093750,-50.55
16:19:17.109375,-52.28
16:19:17.125000,-53.78
16:19:17.140625,-55.04
16:19:17.156250,-55.84
16:19:17.171875,-55.66
16:19:17.187500,-53.83
16:19:17.203125,-49.78
16:19:17.218750,-43.34
16:19:17.234375,-34.88
16:19:17.250000,-25.24
16:19:17.265625,-15.52
16:19:17.281250,-6.69
16:19:17.296875,0.59
16:19:17.312500,6.12
16:19:17.328125,10.07
16:19:17.343750,12.80
16:19:17.359375,14.66
16:19:17.375000,15.90
16:19:17.390625,16.62
16:19:17.406250,16.85
16:19:17.421875,16.66
16:19:17.437500,16.20
16:19:17.453125,15.76
16:19:17.468750,15.60
16:19:17.484375,15.84
16:19:17.500000,16.46
16:19:17.515625,17.22
16:19:17.531250,17.80
16:19:17.546875,17.86
16:19:17.562500,17.16
16:19:17.578125,15.52
16:19:17.593750,12.85
16:19:17.609375,9.16
16:19:17.625000,4.55
16:19:17.640625,-0.76
16:19:17.656250,-6.43
16:19:17.671875,-12.09
16:19:17.687500,-17.35
16:19:17.703125,-21.88
16:19:17.718750,-25.42
16:19:17.734375,-27.84
16:19:17.750000,-29.13
16:19:17.765625,-29.42
16:19:17.781250,-28.91
16:19:17.796875,-27.86
16:19:17.812500,-26.51
16:19:17.828125,-25.02
16:19:17.843750,-23.59
16:19:17.859375,-22.39
16:19:17.875000,-21.59
16:19:17.890625,-21.20
16:19:17.906250,-20.99
16:19:17.921875,-20.43
16:19:17.937500,-18.84
16:19:17.953125,-15.65
16:19:17.968750,-10.64
16:19:17.984375,-4.09
16:19:18,3.30
16:19:18.015625,10.67
16:19:18.031250,17.29
16:19:18.046875,22.79
16:19:18.062500,27.15
16:19:18.078125,30.67
16:19:18.093750,33.70
16:19:18.109375,36.50
16:19:18.125000,39.08
16:19:18.140625,41.22
16:19:18.156250,42.62
16:19:18.171875,43.00
16:19:18.187500,42.31
16:19:18.203125,40.78
16:19:18.218750,38.78
16:19:18.234375,36.68
16:19:18.250000,34.65
16:19:18.265625,32.50
16:19:18.281250,29.88
16:19:18.296875,26.42
16:19:18.312500,21.97
16:19:18.328125,16.72
16:19:18.343750,11.04
16:19:18.359375,5.35
16:19:18.375000,-0.17
16:19:18.390625,-5.61
16:19:18.406250,-11.37
16:19:18.421875,-17.96
16:19:18.437500,-25.86
16:19:18.453125,-35.38
16:19:18.468750,-46.42
16:19:18.484375,-58.33
16:19:18.500000,-69.80
16:19:18.515625,-78.96
16:19:18.531250,-83.72
16:19:18.546875,-82.42
16:19:18.562500,-74.46
16:19:18.578125,-60.71
16:19:18.593750,-43.45
16:19:18.609375,-25.76
16:19:18.625000,-10.80
16:19:18.640625,-1.05
16:19:18.656250,2.13
16:19:18.671875,-1.38
16:19:18.687500,-10.61
16:19:18.703125,-23.68
16:19:18.718750,-38.21
16:19:18.734375,-51.58
16:19:18.750000,-61.45
16:19:18.765625,-66.22
16:19:18.781250,-65.27
16:19:18.796875,-59.06
16:19:18.812500,-48.94
16:19:18.828125,-36.70
16:19:18.843750,-24.19
16:19:18.859375,-12.90
16:19:18.875000,-3.79
16:19:18.890625,2.76
16:19:18.906250,6.81
16:19:18.921875,8.64
16:19:18.937500,8.57
16:19:18.953125,6.79
16:19:18.968750,3.47
16:19:18.984375,-1.16
16:19:19,-6.58
16:19:19.015625,-11.98
16:19:19.031250,-16.27
16:19:19.046875,-18.35
16:19:19.062500,-17.30
16:19:19.078125,-12.59
16:19:19.093750,-4.14
16:19:19.109375,7.50
16:19:19.125000,21.24
16:19:19.140625,35.36
16:19:19.156250,47.86
16:19:19.171875,56.77
16:19:19.187500,60.68
16:19:19.203125,59.10
16:19:19.218750,52.54
16:19:19.234375,42.29
16:19:19.250000,29.96
16:19:19.265625,17.03
16:19:19.281250,4.59
16:19:19.296875,-6.73
16:19:19.312500,-16.62
16:19:19.328125,-24.92
16:19:19.343750,-31.43
16:19:19.359375,-35.94
16:19:19.375000,-38.16
16:19:19.390625,-37.83
16:19:19.406250,-34.81
16:19:19.421875,-29.24
16:19:19.437500,-21.61
16:19:19.453125,-12.87
16:19:19.468750,-4.39
16:19:19.484375,2.27
16:19:19.500000,5.70
16:19:19.515625,5.07
16:19:19.531250,0.41
16:19:19.546875,-7.29
16:19:19.562500,-16.44
16:19:19.578125,-25.23
16:19:19.593750,-32.17
16:19:19.609375,-36.43
16:19:19.625000,-37.79
16:19:19.640625,-36.54
16:19:19.656250,-33.06
16:19:19.671875,-27.61
16:19:19.687500,-20.28
16:19:19.703125,-11.08
16:19:19.718750,-0.19
16:19:19.734375,11.95
16:19:19.750000,24.52
16:19:19.765625,36.55
16:19:19.781250,47.06
16:19:19.796875,55.29
16:19:19.812500,60.79
16:19:19.828125,63.49
16:19:19.843750,63.63
16:19:19.859375,61.61
16:19:19.875000,57.88
16:19:19.890625,52.95
16:19:19.906250,47.28
16:19:19.921875,41.41
16:19:19.937500,35.91
16:19:19.953125,31.39
16:19:19.968750,28.37
16:19:19.984375,27.14
16:19:20,27.64
16:19:20.015625,29.47
16:19:20.031250,31.97
16:19:20.046875,34.37
16:19:20.062500,36.03
16:19:20.078125,36.51
16:19:20.093750,35.57
16:19:20.109375,33.14
16:19:20.125000,29.21
16:19:20.140625,23.78
16:19:20.156250,16.88
16:19:20.171875,8.66
16:19:20.187500,-0.55
16:19:20.203125,-10.17
16:19:20.218750,-19.52
16:19:20.234375,-27.95
16:19:20.250000,-34.99
16:19:20.265625,-40.52
16:19:20.281250,-44.65
16:19:20.296875,-47.65
16:19:20.312500,-49.76
16:19:20.328125,-51.13
16:19:20.343750,-51.80
16:19:20.359375,-51.78
16:19:20.375000,-51.10
16:19:20.390625,-49.80
16:19:20.406250,-47.86
16:19:20.421875,-45.13
16:19:20.437500,-41.48
16:19:20.453125,-36.87
16:19:20.468750,-31.57
16:19:20.484375,-26.10
16:19:20.500000,-21.12
16:19:20.515625,-17.09
16:19:20.531250,-14.12
16:19:20.546875,-11.89
16:19:20.562500,-9.86
16:19:20.578125,-7.55
16:19:20.593750,-4.72
16:19:20.609375,-1.52
16:19:20.625000,1.71
16:19:20.640625,4.61
16:19:20.656250,6.91
16:19:20.671875,8.50
16:19:20.687500,9.34
16:19:20.703125,9.44
16:19:20.718750,8.89
16:19:20.734375,7.90
16:19:20.750000,6.87
16:19:20.765625,6.34
16:19:20.781250,6.88
16:19:20.796875,8.87
16:19:20.812500,12.44
16:19:20.828125,17.39
16:19:20.843750,23.27
16:19:20.859375,29.46
16:19:20.875000,35.31
16:19:20.890625,40.09
16:19:20.906250,43.18
16:19:20.921875,44.10
16:19:20.937500,42.60
16:19:20.953125,38.82
16:19:20.968750,33.21
16:19:20.984375,26.42
16:19:21,19.14
16:19:21.015625,11.90
16:19:21.031250,5.01
16:19:21.046875,-1.38
16:19:21.062500,-7.18
16:19:21.078125,-12.22
16:19:21.093750,-16.29
16:19:21.109375,-19.25
16:19:21.125000,-21.04
16:19:21.140625,-21.80
16:19:21.156250,-21.84
16:19:21.171875,-21.51
16:19:21.187500,-21.17
16:19:21.203125,-21.13
16:19:21.218750,-21.69
16:19:21.234375,-23.02
16:19:21.250000,-25.15
16:19:21.265625,-27.89
16:19:21.281250,-30.76
16:19:21.296875,-33.17
16:19:21.312500,-34.56
16:19:21.328125,-34.66
16:19:21.343750,-33.55
16:19:21.359375,-31.57
16:19:21.375000,-29.04
16:19:21.390625,-26.10
16:19:21.406250,-22.58
16:19:21.421875,-18.21
16:19:21.437500,-12.89
16:19:21.453125,-6.91
16:19:21.468750,-0.98
16:19:21.484375,3.97
16:19:21.500000,7.20
16:19:21.515625,8.38
16:19:21.531250,7.73
16:19:21.546875,5.93
16:19:21.562500,3.91
16:19:21.578125,2.70
16:19:21.593750,3.22
16:19:21.609375,5.99
16:19:21.625000,11.02
16:19:21.640625,17.69
16:19:21.656250,24.89
16:19:21.671875,31.35
16:19:21.687500,36.12
16:19:21.703125,38.76
16:19:21.718750,39.46
16:19:21.734375,38.72
16:19:21.750000,37.05
16:19:21.765625,34.79
16:19:21.781250,32.11
16:19:21.796875,29.20
16:19:21.812500,26.33
16:19:21.828125,23.87
16:19:21.843750,22.02
16:19:21.859375,20.64
16:19:21.875000,19.28
16:19:21.890625,17.33
16:19:21.906250,14.33
16:19:21.921875,10.21
16:19:21.937500,5.30
16:19:21.953125,0.20
16:19:21.968750,-4.45
16:19:21.984375,-8.20
16:19:22,-10.94
16:19:22.015625,-12.85
16:19:22.031250,-14.39
16:19:22.046875,-16.05
16:19:22.062500,-18.24
16:19:22.078125,-20.99
16:19:22.093750,-24.01
16:19:22.109375,-26.60
16:19:22.125000,-27.97
16:19:22.140625,-27.46
16:19:22.156250,-24.71
16:19:22.171875,-19.85
16:19:22.187500,-13.32
16:19:22.203125,-5.84
16:19:22.218750,1.87
16:19:22.234375,9.14
16:19:22.250000,15.47
16:19:22.265625,20.49
16:19:22.281250,24.08
16:19:22.296875,26.30
16:19:22.312500,27.37
16:19:22.328125,27.63
16:19:22.343750,27.39
16:19:22.359375,26.88
16:19:22.375000,26.19
16:19:22.390625,25.36
16:19:22.406250,24.39
16:19:22.421875,23.31
16:19:22.437500,22.12
16:19:22.453125,20.76
16:19:22.468750,19.11
16:19:22.484375,17.02
16:19:22.500000,14.43
16:19:22.515625,11.39
16:19:22.531250,8.09
16:19:22.546875,4.72
16:19:22.562500,1.38
16:19:22.578125,-1.94
16:19:22.593750,-5.36
16:19:22.609375,-9.00
16:19:22.625000,-12.85
16:19:22.640625,-16.73
16:19:22.656250,-20.36
16:19:22.671875,-23.43
16:19:22.687500,-25.81
16:19:22.703125,-27.55
16:19:22.718750,-28.82
16:19:22.734375,-29.83
16:19:22.750000,-30.66
16:19:22.765625,-31.21
16:19:22.781250,-31.27
16:19:22.796875,-30.64
16:19:22.812500,-29.19
16:19:22.828125,-26.95
16:19:22.843750,-24.03
16:19:22.859375,-20.64
16:19:22.875000,-17.03
16:19:22.890625,-13.54
16:19:22.906250,-10.59
16:19:22.921875,-8.62
16:19:22.937500,-7.84
16:19:22.953125,-8.16
16:19:22.968750,-8.98
16:19:22.984375,-9.41
16:19:23,-8.48
16:19:23.015625,-5.49
16:19:23.031250,-0.30
16:19:23.046875,6.67
16:19:23.062500,14.58
16:19:23.078125,22.50
16:19:23.093750,29.64
16:19:23.109375,35.54
16:19:23.125000,40.06
16:19:23.140625,43.25
16:19:23.156250,45.30
16:19:23.171875,46.40
16:19:23.187500,46.71
16:19:23.203125,46.42
16:19:23.218750,45.68
16:19:23.234375,44.66
16:19:23.250000,43.45
16:19:23.265625,42.12
16:19:23.281250,40.64
16:19:23.296875,38.98
16:19:23.312500,37.12
16:19:23.328125,35.08
16:19:23.343750,32.98
16:19:23.359375,30.94
16:19:23.375000,29.11
16:19:23.390625,27.50
16:19:23.406250,26.01
16:19:23.421875,24.44
16:19:23.437500,22.57
16:19:23.453125,20.29
16:19:23.468750,17.66
16:19:23.484375,14.92
16:19:23.500000,12.33
16:19:23.515625,10.13
16:19:23.531250,8.37
16:19:23.546875,6.92
16:19:23.562500,5.49
16:19:23.578125,3.73
16:19:23.593750,1.35
16:19:23.609375,-1.89
16:19:23.625000,-6.02
16:19:23.640625,-10.92
16:19:23.656250,-16.29
16:19:23.671875,-21.74
16:19:23.687500,-26.82
16:19:23.703125,-31.15
16:19:23.718750,-34.50
16:19:23.734375,-36.88
16:19:23.750000,-38.55
16:19:23.765625,-39.94
16:19:23.781250,-41.42
16:19:23.796875,-43.13
16:19:23.812500,-44.82
16:19:23.828125,-45.90
16:19:23.843750,-45.58
16:19:23.859375,-43.24
16:19:23.875000,-38.63
16:19:23.890625,-32.07
16:19:23.906250,-24.27
16:19:23.921875,-16.13
16:19:23.937500,-8.42
16:19:23.953125,-1.66
16:19:23.968750,4.01
16:19:23.984375,8.61
16:19:24,12.31
16:19:24.015625,15.28
16:19:24.031250,17.68
16:19:24.046875,19.66
16:19:24.062500,21.37
16:19:24.078125,22.94
16:19:24.093750,24.46
16:19:24.109375,25.85
16:19:24.125000,26.94
16:19:24.140625,27.50
16:19:24.156250,27.39
16:19:24.171875,26.63
16:19:24.187500,25.47
16:19:24.203125,24.27
16:19:24.218750,23.33
16:19:24.234375,22.76
16:19:24.250000,22.44
16:19:24.265625,22.08
16:19:24.281250,21.38
16:19:24.296875,20.18
16:19:24.312500,18.47
16:19:24.328125,16.36
16:19:24.343750,14.03
16:19:24.359375,11.67
16:19:24.375000,9.59
16:19:24.390625,8.20
16:19:24.406250,7.99
16:19:24.421875,9.38
16:19:24.437500,12.50
16:19:24.453125,17.11
16:19:24.468750,22.57
16:19:24.484375,27.99
16:19:24.500000,32.54
16:19:24.515625,35.59
16:19:24.531250,36.79
16:19:24.546875,36.05
16:19:24.562500,33.45
16:19:24.578125,29.16
16:19:24.593750,23.47
16:19:24.609375,16.72
16:19:24.625000,9.35
16:19:24.640625,1.83
16:19:24.656250,-5.37
16:19:24.671875,-11.82
16:19:24.687500,-17.12
16:19:24.703125,-20.87
16:19:24.718750,-22.70
16:19:24.734375,-22.41
16:19:24.750000,-20.02
16:19:24.765625,-15.91
16:19:24.781250,-10.73
16:19:24.796875,-5.21
16:19:24.812500,0.05
16:19:24.828125,4.67
16:19:24.843750,8.54
16:19:24.859375,11.63
16:19:24.875000,13.83
16:19:24.890625,14.93
16:19:24.906250,14.67
16:19:24.921875,12.96
16:19:24.937500,10.05
16:19:24.953125,6.50
16:19:24.968750,3.03
16:19:24.984375,0.24
16:19:25,-1.51
16:19:25.015625,-2.19
16:19:25.031250,-2.00
16:19:25.046875,-1.17
16:19:25.062500,0.09
16:19:25.078125,1.64
16:19:25.093750,3.32
16:19:25.109375,4.91
16:19:25.125000,6.13
16:19:25.140625,6.78
16:19:25.156250,6.70
16:19:25.171875,5.97
16:19:25.187500,4.77
16:19:25.203125,3.30
16:19:25.218750,1.76
16:19:25.234375,0.26
16:19:25.250000,-1.13
16:19:25.265625,-2.35
16:19:25.281250,-3.38
16:19:25.296875,-4.22
16:19:25.312500,-5.01
16:19:25.328125,-5.92
16:19:25.343750,-7.20
16:19:25.359375,-9.02
16:19:25.375000,-11.45
16:19:25.390625,-14.39
16:19:25.406250,-17.67
16:19:25.421875,-21.07
16:19:25.437500,-24.37
16:19:25.453125,-27.40
16:19:25.468750,-30.01
16:19:25.484375,-32.19
16:19:25.500000,-33.99
16:19:25.515625,-35.55
16:19:25.531250,-37.00
16:19:25.546875,-38.33
16:19:25.562500,-39.30
16:19:25.578125,-39.46
16:19:25.593750,-38.26
16:19:25.609375,-35.29
16:19:25.625000,-30.48
16:19:25.640625,-24.09
16:19:25.656250,-16.74
16:19:25.671875,-9.13
16:19:25.687500,-1.93
16:19:25.703125,4.39
16:19:25.718750,9.62
16:19:25.734375,13.69
16:19:25.750000,16.68
16:19:25.765625,18.76
16:19:25.781250,20.13
16:19:25.796875,21.05
16:19:25.812500,21.77
16:19:25.828125,22.53
16:19:25.843750,23.44
16:19:25.859375,24.51
16:19:25.875000,25.66
16:19:25.890625,26.77
16:19:25.906250,27.74
16:19:25.921875,28.51
16:19:25.937500,29.09
16:19:25.953125,29.51
16:19:25.968750,29.84
16:19:25.984375,30.14
16:19:26,30.40
16:19:26.015625,30.57
16:19:26.031250,30.54
16:19:26.046875,30.21
16:19:26.062500,29.52
16:19:26.078125,28.59
16:19:26.093750,27.79
16:19:26.109375,27.71
16:19:26.125000,29.01
16:19:26.140625,32.14
16:19:26.156250,37.06
16:19:26.171875,43.13
16:19:26.187500,49.17
16:19:26.203125,53.78
16:19:26.218750,55.85
16:19:26.234375,54.82
16:19:26.250000,50.85
16:19:26.265625,44.64
16:19:26.281250,37.18
16:19:26.296875,29.45
16:19:26.312500,22.24
16:19:26.328125,16.18
16:19:26.343750,11.67
16:19:26.359375,8.88
16:19:26.375000,7.60
16:19:26.390625,7.28
16:19:26.406250,7.14
16:19:26.421875,6.42
16:19:26.437500,4.63
16:19:26.453125,1.74
16:19:26.468750,-1.93
16:19:26.484375,-5.94
16:19:26.500000,-9.95
16:19:26.515625,-13.77
16:19:26.531250,-17.38
16:19:26.546875,-20.73
16:19:26.562500,-23.74
16:19:26.578125,-26.29
16:19:26.593750,-28.32
16:19:26.609375,-29.97
16:19:26.625000,-31.48
16:19:26.640625,-33.12
16:19:26.656250,-35.04
16:19:26.671875,-37.27
16:19:26.687500,-39.70
16:19:26.703125,-42.18
16:19:26.718750,-44.54
16:19:26.734375,-46.64
16:19:26.750000,-48.41
16:19:26.765625,-49.91
16:19:26.781250,-51.41
16:19:26.796875,-53.34
16:19:26.812500,-56.25
16:19:26.828125,-60.58
16:19:26.843750,-66.44
16:19:26.859375,-73.54
16:19:26.875000,-81.22
16:19:26.890625,-88.66
16:19:26.906250,-94.96
16:19:26.921875,-99.33
16:19:26.937500,-101.04
16:19:26.953125,-99.56
16:19:26.968750,-94.62
16:19:26.984375,-86.34
16:19:27,-75.31
16:19:27.015625,-62.50
16:19:27.031250,-49.05
16:19:27.046875,-36.06
16:19:27.062500,-24.37
16:19:27.078125,-14.47
16:19:27.093750,-6.61
16:19:27.109375,-0.79
16:19:27.125000,3.18
16:19:27.140625,5.69
16:19:27.156250,7.34
16:19:27.171875,8.84
16:19:27.187500,10.90
16:19:27.203125,14.07
16:19:27.218750,18.62
16:19:27.234375,24.56
16:19:27.250000,31.60
16:19:27.265625,39.24
16:19:27.281250,46.73
16:19:27.296875,53.29
16:19:27.312500,58.20
16:19:27.328125,61.10
16:19:27.343750,62.12
16:19:27.359375,61.90
16:19:27.375000,61.31
16:19:27.390625,61.22
16:19:27.406250,62.21
16:19:27.421875,64.42
16:19:27.437500,67.70
16:19:27.453125,71.70
16:19:27.468750,76.07
16:19:27.484375,80.54
16:19:27.500000,84.85
16:19:27.515625,88.80
16:19:27.531250,92.20
16:19:27.546875,94.83
16:19:27.562500,96.46
16:19:27.578125,96.94
16:19:27.593750,96.19
16:19:27.609375,94.36
16:19:27.625000,91.79
16:19:27.640625,88.98
16:19:27.656250,86.39
16:19:27.671875,84.36
16:19:27.687500,82.91
16:19:27.703125,81.87
16:19:27.718750,80.92
16:19:27.734375,79.84
16:19:27.750000,78.50
16:19:27.765625,76.93
16:19:27.781250,75.21
16:19:27.796875,73.50
16:19:27.812500,71.98
16:19:27.828125,70.89
16:19:27.843750,70.45
16:19:27.859375,70.63
16:19:27.875000,71.08
16:19:27.890625,70.96
16:19:27.906250,69.18
16:19:27.921875,64.75
16:19:27.937500,57.14
16:19:27.953125,46.49
16:19:27.968750,33.54
16:19:27.984375,19.38
16:19:28,5.15
16:19:28.015625,-8.12
16:19:28.031250,-19.73
16:19:28.046875,-29.37
16:19:28.062500,-37.19
16:19:28.078125,-43.85
16:19:28.093750,-50.21
16:19:28.109375,-56.98
16:19:28.125000,-64.30
16:19:28.140625,-71.58
16:19:28.156250,-77.72
16:19:28.171875,-81.66
16:19:28.187500,-82.85
16:19:28.203125,-81.44
16:19:28.218750,-78.18
16:19:28.234375,-73.91
16:19:28.250000,-69.33
16:19:28.265625,-64.80
16:19:28.281250,-60.50
16:19:28.296875,-56.54
16:19:28.312500,-53.10
16:19:28.328125,-50.39
16:19:28.343750,-48.56
16:19:28.359375,-47.70
16:19:28.375000,-47.86
16:19:28.390625,-48.99
16:19:28.406250,-51.00
16:19:28.421875,-53.60
16:19:28.437500,-56.41
16:19:28.453125,-59.00
16:19:28.468750,-61.06
16:19:28.484375,-62.44
16:19:28.500000,-63.06
16:19:28.515625,-62.81
16:19:28.531250,-61.62
16:19:28.546875,-59.61
16:19:28.562500,-57.26
16:19:28.578125,-55.41
16:19:28.593750,-55.03
16:19:28.609375,-56.76
16:19:28.625000,-60.55
16:19:28.640625,-65.65
16:19:28.656250,-70.93
16:19:28.671875,-75.37
16:19:28.687500,-78.48
16:19:28.703125,-80.31
16:19:28.718750,-81.40
16:19:28.734375,-82.42
16:19:28.750000,-83.99
16:19:28.765625,-86.64
16:19:28.781250,-90.56
16:19:28.796875,-95.49
16:19:28.812500,-100.52
16:19:28.828125,-104.17
16:19:28.843750,-104.69
16:19:28.859375,-100.75
16:19:28.875000,-91.94
16:19:28.890625,-79.18
16:19:28.906250,-64.49
16:19:28.921875,-50.36
16:19:28.937500,-38.93
16:19:28.953125,-31.22
16:19:28.968750,-26.83
16:19:28.984375,-24.19
16:19:29,-21.31
16:19:29.015625,-16.50
16:19:29.031250,-9.01
16:19:29.046875,0.87
16:19:29.062500,12.21
16:19:29.078125,24.05
16:19:29.093750,35.71
16:19:29.109375,46.83
16:19:29.125000,57.01
16:19:29.140625,65.51
16:19:29.156250,71.29
16:19:29.171875,73.42
16:19:29.187500,71.71
16:19:29.203125,66.96
16:19:29.218750,60.75
16:19:29.234375,54.78
16:19:29.250000,50.12
16:19:29.265625,46.85
16:19:29.281250,44.14
16:19:29.296875,40.86
16:19:29.312500,36.17
16:19:29.328125,29.94
16:19:29.343750,22.76
16:19:29.359375,15.56
16:19:29.375000,9.18
16:19:29.390625,3.93
16:19:29.406250,-0.53
16:19:29.421875,-5.02
16:19:29.437500,-10.49
16:19:29.453125,-17.58
16:19:29.468750,-26.42
16:19:29.484375,-36.67
16:19:29.500000,-47.69
16:19:29.515625,-58.66
16:19:29.531250,-68.56
16:19:29.546875,-76.02
16:19:29.562500,-79.37
16:19:29.578125,-77.05
16:19:29.593750,-68.30
16:19:29.609375,-53.92
16:19:29.625000,-36.38
16:19:29.640625,-19.32
16:19:29.656250,-6.30
16:19:29.671875,0.43
16:19:29.687500,0.58
16:19:29.703125,-4.47
16:19:29.718750,-12.63
16:19:29.734375,-22.21
16:19:29.750000,-32.42
16:19:29.765625,-43.13
16:19:29.781250,-54.05
16:19:29.796875,-64.09
16:19:29.812500,-71.27
16:19:29.828125,-73.41
16:19:29.843750,-69.23
16:19:29.859375,-59.08
16:19:29.875000,-44.98
16:19:29.890625,-29.82
16:19:29.906250,-16.23
16:19:29.921875,-5.62
16:19:29.937500,2.06
16:19:29.953125,7.82
16:19:29.968750,12.82
16:19:29.984375,17.58
16:19:30,21.88
16:19:30.015625,24.97
16:19:30.031250,26.24
16:19:30.046875,25.59
16:19:30.062500,23.57
16:19:30.078125,21.02
16:19:30.093750,18.68
16:19:30.109375,16.92
16:19:30.125000,15.62
16:19:30.140625,14.40
16:19:30.156250,12.89
16:19:30.171875,10.99
16:19:30.187500,8.94
16:19:30.203125,7.08
16:19:30.218750,5.73
16:19:30.234375,4.94
16:19:30.250000,4.47
16:19:30.265625,3.91
16:19:30.281250,2.91
16:19:30.296875,1.32
16:19:30.312500,-0.75
16:19:30.328125,-2.97
16:19:30.343750,-4.97
16:19:30.359375,-6.51
16:19:30.375000,-7.63
16:19:30.390625,-8.62
16:19:30.406250,-9.95
16:19:30.421875,-12.03
16:19:30.437500,-15.05
16:19:30.453125,-18.87
16:19:30.468750,-23.13
16:19:30.484375,-27.39
16:19:30.500000,-31.32
16:19:30.515625,-34.84
16:19:30.531250,-38.11
16:19:30.546875,-41.43
16:19:30.562500,-45.15
16:19:30.578125,-49.51
16:19:30.593750,-54.61
16:19:30.609375,-60.24
16:19:30.625000,-65.86
16:19:30.640625,-70.46
16:19:30.656250,-72.83
16:19:30.671875,-71.84
16:19:30.687500,-66.83
16:19:30.703125,-58.01
16:19:30.718750,-46.38
16:19:30.734375,-33.43
16:19:30.750000,-20.67
16:19:30.765625,-9.17
16:19:30.781250,0.63
16:19:30.796875,8.81
16:19:30.812500,15.67
16:19:30.828125,21.41
16:19:30.843750,26.06
16:19:30.859375,29.53
16:19:30.875000,31.73
16:19:30.890625,32.80
16:19:30.906250,33.05
16:19:30.921875,32.92
16:19:30.937500,32.79
16:19:30.953125,32.84
16:19:30.968750,33.08
16:19:30.984375,33.37
16:19:31,33.56
16:19:31.015625,33.58
16:19:31.031250,33.42
16:19:31.046875,33.10
16:19:31.062500,32.56
16:19:31.078125,31.66
16:19:31.093750,30.22
16:19:31.109375,28.09
16:19:31.125000,25.30
16:19:31.140625,21.99
16:19:31.156250,18.37
16:19:31.171875,14.56
16:19:31.187500,10.52
16:19:31.203125,6.06
16:19:31.218750,0.98
16:19:31.234375,-4.81
16:19:31.250000,-11.21
16:19:31.265625,-17.89
16:19:31.281250,-24.52
16:19:31.296875,-30.83
16:19:31.312500,-36.73
16:19:31.328125,-42.29
16:19:31.343750,-47.65
16:19:31.359375,-52.99
16:19:31.375000,-58.54
16:19:31.390625,-64.64
16:19:31.406250,-71.59
16:19:31.421875,-79.52
16:19:31.437500,-88.04
16:19:31.453125,-96.35
16:19:31.468750,-103.45
16:19:31.484375,-108.61
16:19:31.500000,-111.71
16:19:31.515625,-113.16
16:19:31.531250,-113.45
16:19:31.546875,-112.61
16:19:31.562500,-109.99
16:19:31.578125,-104.58
16:19:31.593750,-95.72
16:19:31.609375,-83.78
16:19:31.625000,-70.33
16:19:31.640625,-57.61
16:19:31.656250,-47.64
16:19:31.671875,-41.33
16:19:31.687500,-38.06
16:19:31.703125,-35.94
16:19:31.718750,-32.50
16:19:31.734375,-25.49
16:19:31.750000,-13.68
16:19:31.765625,2.80
16:19:31.781250,22.52
16:19:31.796875,43.13
16:19:31.812500,62.16
16:19:31.828125,77.79
16:19:31.843750,89.37
16:19:31.859375,97.50
16:19:31.875000,103.72
16:19:31.890625,109.82
16:19:31.906250,117.20
16:19:31.921875,126.39
16:19:31.937500,137.11
16:19:31.953125,148.48
16:19:31.968750,159.55
16:19:31.984375,169.62
16:19:32,178.28
16:19:32.015625,185.23
16:19:32.031250,190.05
16:19:32.046875,192.09
16:19:32.062500,190.72
16:19:32.078125,185.60
16:19:32.093750,176.80
16:19:32.109375,164.70
16:19:32.125000,149.69
16:19:32.140625,131.93
16:19:32.156250,111.55
16:19:32.171875,89.09
16:19:32.187500,65.91
16:19:32.203125,44.03
16:19:32.218750,25.60
16:19:32.234375,12.06
16:19:32.250000,3.79
16:19:32.265625,0.32
16:19:32.281250,1.00
16:19:32.296875,5.50
16:19:32.312500,13.72
16:19:32.328125,25.13
16:19:32.343750,38.29
16:19:32.359375,50.84
16:19:32.375000,60.38
16:19:32.390625,65.46
16:19:32.406250,66.17
16:19:32.421875,63.72
16:19:32.437500,59.45
16:19:32.453125,53.93
16:19:32.468750,46.74
16:19:32.484375,36.99
16:19:32.500000,24.28
16:19:32.515625,9.19
16:19:32.531250,-6.76
16:19:32.546875,-21.80
16:19:32.562500,-34.45
16:19:32.578125,-43.83
16:19:32.593750,-49.53
16:19:32.609375,-51.40
16:19:32.625000,-49.43
16:19:32.640625,-43.88
16:19:32.656250,-35.38
16:19:32.671875,-24.86
16:19:32.687500,-13.33
16:19:32.703125,-1.53
16:19:32.718750,10.04
16:19:32.734375,21.07
16:19:32.750000,31.13
16:19:32.765625,39.44
16:19:32.781250,45.00
16:19:32.796875,46.84
16:19:32.812500,44.48
16:19:32.828125,38.11
16:19:32.843750,28.68
16:19:32.859375,17.58
16:19:32.875000,6.22
16:19:32.890625,-4.39
16:19:32.906250,-13.91
16:19:32.921875,-22.59
16:19:32.937500,-31.10
16:19:32.953125,-40.12
16:19:32.968750,-50.05
16:19:32.984375,-60.76
16:19:33,-71.50
16:19:33.015625,-80.98
16:19:33.031250,-87.51
16:19:33.046875,-89.48
16:19:33.062500,-85.73
16:19:33.078125,-76.01
16:19:33.093750,-61.14
16:19:33.109375,-42.95
16:19:33.125000,-23.75
16:19:33.140625,-5.77
16:19:33.156250,9.36
16:19:33.171875,20.82
16:19:33.187500,28.53
16:19:33.203125,32.80
16:19:33.218750,34.02
16:19:33.234375,32.57
16:19:33.250000,28.88
16:19:33.265625,23.56
16:19:33.281250,17.58
16:19:33.296875,12.10
16:19:33.312500,8.28
16:19:33.328125,6.92
16:19:33.343750,8.29
16:19:33.359375,12.03
16:19:33.375000,17.38
16:19:33.390625,23.42
16:19:33.406250,29.31
16:19:33.421875,34.37
16:19:33.437500,38.07
16:19:33.453125,39.96
16:19:33.468750,39.71
16:19:33.484375,37.12
16:19:33.500000,32.25
16:19:33.515625,25.48
16:19:33.531250,17.43
16:19:33.546875,8.85
16:19:33.562500,0.43
16:19:33.578125,-7.33
16:19:33.593750,-14.17
16:19:33.609375,-20.07
16:19:33.625000,-25.31
16:19:33.640625,-30.34
16:19:33.656250,-35.71
16:19:33.671875,-41.94
16:19:33.687500,-49.41
16:19:33.703125,-58.29
16:19:33.718750,-68.48
16:19:33.734375,-79.57
16:19:33.750000,-90.81
16:19:33.765625,-101.16
16:19:33.781250,-109.34
16:19:33.796875,-114.14
16:19:33.812500,-114.78
16:19:33.828125,-111.15
16:19:33.843750,-104.00
16:19:33.859375,-94.64
16:19:33.875000,-84.60
16:19:33.890625,-75.04
16:19:33.906250,-66.62
16:19:33.921875,-59.42
16:19:33.937500,-53.32
16:19:33.953125,-48.31
16:19:33.968750,-44.56
16:19:33.984375,-42.37
16:19:34,-41.95
16:19:34.015625,-43.20
16:19:34.031250,-45.75
16:19:34.046875,-49.16
16:19:34.062500,-53.00
16:19:34.078125,-57.02
16:19:34.093750,-60.99
16:19:34.109375,-64.55
16:19:34.125000,-67.17
16:19:34.140625,-68.11
16:19:34.156250,-66.50
16:19:34.171875,-61.48
16:19:34.187500,-52.27
16:19:34.203125,-38.37
16:19:34.218750,-19.87
16:19:34.234375,2.34
16:19:34.250000,26.48
16:19:34.265625,50.17
16:19:34.281250,71.11
16:19:34.296875,87.69
16:19:34.312500,99.33
16:19:34.328125,106.35
16:19:34.343750,109.42
16:19:34.359375,108.99
16:19:34.375000,105.07
16:19:34.390625,97.58
16:19:34.406250,86.74
16:19:34.421875,73.52
16:19:34.437500,59.40
16:19:34.453125,45.96
16:19:34.468750,34.22
16:19:34.484375,24.44
16:19:34.500000,16.34
16:19:34.515625,9.71
16:19:34.531250,4.78
16:19:34.546875,2.31
16:19:34.562500,3.16
16:19:34.578125,7.71
16:19:34.593750,15.37
16:19:34.609375,24.64
16:19:34.625000,33.44
16:19:34.640625,39.87
16:19:34.656250,42.78
16:19:34.671875,42.10
16:19:34.687500,38.89
16:19:34.703125,34.90
16:19:34.718750,32.06
16:19:34.734375,31.93
16:19:34.750000,35.32
16:19:34.765625,42.08
16:19:34.781250,51.24
16:19:34.796875,61.35
16:19:34.812500,70.78
16:19:34.828125,78.11
16:19:34.843750,82.20
16:19:34.859375,82.39
16:19:34.875000,78.46
16:19:34.890625,70.72
16:19:34.906250,59.93
16:19:34.921875,47.19
16:19:34.937500,33.70
16:19:34.953125,20.58
16:19:34.968750,8.71
16:19:34.984375,-1.34
16:19:35,-9.31
16:19:35.015625,-15.28
16:19:35.031250,-19.72
16:19:35.046875,-23.34
16:19:35.062500,-26.90
16:19:35.078125,-30.83
16:19:35.093750,-35.00
16:19:35.109375,-38.73
16:19:35.125000,-41.10
16:19:35.140625,-41.42
16:19:35.156250,-39.61
16:19:35.171875,-36.20
16:19:35.187500,-31.99
16:19:35.203125,-27.58
16:19:35.218750,-23.03
16:19:35.234375,-17.87
16:19:35.250000,-11.42
16:19:35.265625,-3.16
16:19:35.281250,6.96
16:19:35.296875,18.53
16:19:35.312500,30.90
16:19:35.328125,43.36
16:19:35.343750,55.31
16:19:35.359375,66.16
16:19:35.375000,75.22
16:19:35.390625,81.67
16:19:35.406250,84.70
16:19:35.421875,83.68
16:19:35.437500,78.48
16:19:35.453125,69.60
16:19:35.468750,58.12
16:19:35.484375,45.39
16:19:35.500000,32.72
16:19:35.515625,21.12
16:19:35.531250,11.13
16:19:35.546875,2.93
16:19:35.562500,-3.51
16:19:35.578125,-8.30
16:19:35.593750,-11.48
16:19:35.609375,-12.98
16:19:35.625000,-12.72
16:19:35.640625,-10.69
16:19:35.656250,-6.99
16:19:35.671875,-1.89
16:19:35.687500,4.19
16:19:35.703125,10.77
16:19:35.718750,17.40
16:19:35.734375,23.72
16:19:35.750000,29.44
16:19:35.765625,34.30
16:19:35.781250,37.91
16:19:35.796875,39.78
16:19:35.812500,39.42
16:19:35.828125,36.51
16:19:35.843750,31.05
16:19:35.859375,23.39
16:19:35.875000,14.13
16:19:35.890625,3.95
16:19:35.906250,-6.57
16:19:35.921875,-16.97
16:19:35.937500,-26.86
16:19:35.953125,-35.83
16:19:35.968750,-43.28
16:19:35.984375,-48.47
16:19:36,-50.49
16:19:36.015625,-48.55
16:19:36.031250,-42.19
16:19:36.046875,-31.51
16:19:36.062500,-17.25
16:19:36.078125,-0.73
16:19:36.093750,16.53
16:19:36.109375,33.05
16:19:36.125000,47.83
16:19:36.140625,60.43
16:19:36.156250,70.88
16:19:36.171875,79.53
16:19:36.187500,86.85
16:19:36.203125,93.27
16:19:36.218750,99.19
16:19:36.234375,104.93
16:19:36.250000,110.69
16:19:36.265625,116.55
16:19:36.281250,122.32
16:19:36.296875,127.65
16:19:36.312500,132.10
16:19:36.328125,135.27
16:19:36.343750,136.97
16:19:36.359375,137.07
16:19:36.375000,135.42
16:19:36.390625,131.65
16:19:36.406250,125.25
16:19:36.421875,115.72
16:19:36.437500,102.97
16:19:36.453125,87.53
16:19:36.468750,70.62
16:19:36.484375,53.74
16:19:36.500000,38.33
16:19:36.515625,25.43
16:19:36.531250,15.66
16:19:36.546875,9.23
16:19:36.562500,6.00
16:19:36.578125,5.39
16:19:36.593750,6.32
16:19:36.609375,7.21
16:19:36.625000,6.28
16:19:36.640625,2.05
16:19:36.656250,-6.13
16:19:36.671875,-17.84
16:19:36.687500,-31.81
16:19:36.703125,-46.31
16:19:36.718750,-59.77
16:19:36.734375,-71.01
16:19:36.750000,-79.38
16:19:36.765625,-84.63
16:19:36.781250,-86.77
16:19:36.796875,-86.05
16:19:36.812500,-82.98
16:19:36.828125,-78.31
16:19:36.843750,-72.92
16:19:36.859375,-67.66
16:19:36.875000,-63.14
16:19:36.890625,-59.64
16:19:36.906250,-57.14
16:19:36.921875,-55.38
16:19:36.937500,-53.98
16:19:36.953125,-52.65
16:19:36.968750,-51.16
16:19:36.984375,-49.36
16:19:37,-47.21
16:19:37.015625,-44.75
16:19:37.031250,-42.20
16:19:37.046875,-39.91
16:19:37.062500,-38.39
16:19:37.078125,-38.23
16:19:37.093750,-39.90
16:19:37.109375,-43.52
16:19:37.125000,-48.68
16:19:37.140625,-54.43
16:19:37.156250,-59.41
16:19:37.171875,-62.18
16:19:37.187500,-61.59
16:19:37.203125,-56.99
16:19:37.218750,-48.48
16:19:37.234375,-36.73
16:19:37.250000,-22.83
16:19:37.265625,-8.05
16:19:37.281250,6.37
16:19:37.296875,19.35
16:19:37.312500,30.09
16:19:37.328125,38.15
16:19:37.343750,43.48
16:19:37.359375,46.39
16:19:37.375000,47.46
16:19:37.390625,47.37
16:19:37.406250,46.69
16:19:37.421875,45.77
16:19:37.437500,44.73
16:19:37.453125,43.47
16:19:37.468750,41.80
16:19:37.484375,39.47
16:19:37.500000,36.30
16:19:37.515625,32.25
16:19:37.531250,27.66
16:19:37.546875,23.31
16:19:37.562500,20.42
16:19:37.578125,20.27
16:19:37.593750,23.66
16:19:37.609375,30.34
16:19:37.625000,38.91
16:19:37.640625,47.07
16:19:37.656250,52.44
16:19:37.671875,53.40
16:19:37.687500,49.56
16:19:37.703125,41.86
16:19:37.718750,31.90
16:19:37.734375,21.23
16:19:37.750000,10.67
16:19:37.765625,0.18
16:19:37.781250,-10.91
16:19:37.796875,-23.40
16:19:37.812500,-37.64
16:19:37.828125,-53.39
16:19:37.843750,-69.99
16:19:37.859375,-86.69
16:19:37.875000,-102.96
16:19:37.890625,-118.52
16:19:37.906250,-133.16
16:19:37.921875,-146.55
16:19:37.937500,-158.29
16:19:37.953125,-168.10
16:19:37.968750,-176.16
16:19:37.984375,-183.11
16:19:38,-189.73
16:19:38.015625,-196.38
16:19:38.031250,-202.57
16:19:38.046875,-207.06
16:19:38.062500,-208.33
16:19:38.078125,-205.44
16:19:38.093750,-198.58
16:19:38.109375,-189.03
16:19:38.125000,-178.66
16:19:38.140625,-169.13
16:19:38.156250,-161.22
16:19:38.171875,-154.67
16:19:38.187500,-148.45
16:19:38.203125,-141.21
16:19:38.218750,-131.90
16:19:38.234375,-120.07
16:19:38.250000,-106.05
16:19:38.265625,-90.73
16:19:38.281250,-75.32
16:19:38.296875,-61.05
16:19:38.312500,-48.91
16:19:38.328125,-39.53
16:19:38.343750,-33.13
16:19:38.359375,-29.50
16:19:38.375000,-28.05
16:19:38.390625,-27.94
16:19:38.406250,-28.34
16:19:38.421875,-28.74
16:19:38.437500,-29.06
16:19:38.453125,-29.52
16:19:38.468750,-30.22
16:19:38.484375,-30.59
16:19:38.500000,-29.29
16:19:38.515625,-24.41
16:19:38.531250,-14.21
16:19:38.546875,2.22
16:19:38.562500,24.53
16:19:38.578125,51.26
16:19:38.593750,80.26
16:19:38.609375,109.31
16:19:38.625000,136.39
16:19:38.640625,159.76
16:19:38.656250,177.97
16:19:38.671875,189.97
16:19:38.687500,195.25
16:19:38.703125,193.96
16:19:38.718750,186.89
16:19:38.734375,175.18
16:19:38.750000,160.07
16:19:38.765625,142.75
16:19:38.781250,124.37
16:19:38.796875,106.11
16:19:38.812500,89.16
16:19:38.828125,74.39
16:19:38.843750,62.24
16:19:38.859375,52.62
16:19:38.875000,45.34
16:19:38.890625,40.50
16:19:38.906250,38.78
16:19:38.921875,41.12
16:19:38.937500,47.99
16:19:38.953125,58.54
16:19:38.968750,70.44
16:19:38.984375,80.55
16:19:39,86.26
16:19:39.015625,86.70
16:19:39.031250,83.16
16:19:39.046875,78.21
16:19:39.062500,74.26
16:19:39.078125,72.19
16:19:39.093750,71.04
16:19:39.109375,68.75
16:19:39.125000,63.34
16:19:39.140625,53.74
16:19:39.156250,39.92
16:19:39.171875,22.46
16:19:39.187500,2.42
16:19:39.203125,-18.53
16:19:39.218750,-37.67
16:19:39.234375,-51.20
16:19:39.250000,-55.21
16:19:39.265625,-47.07
16:19:39.281250,-26.94
16:19:39.296875,1.71
16:19:39.312500,32.85
16:19:39.328125,59.64
16:19:39.343750,76.42
16:19:39.359375,80.23
16:19:39.375000,71.29
16:19:39.390625,52.57
16:19:39.406250,28.75
16:19:39.421875,4.79
16:19:39.437500,-15.24
16:19:39.453125,-28.98
16:19:39.468750,-35.97
16:19:39.484375,-37.22
16:19:39.500000,-34.57
16:19:39.515625,-29.90
16:19:39.531250,-24.76
16:19:39.546875,-20.26
16:19:39.562500,-17.02
16:19:39.578125,-15.11
16:19:39.593750,-13.88
16:19:39.609375,-12.02
16:19:39.625000,-8.08
16:19:39.640625,-1.14
16:19:39.656250,8.55
16:19:39.671875,19.61
16:19:39.687500,30.18
16:19:39.703125,38.88
16:19:39.718750,45.54
16:19:39.734375,51.13
16:19:39.750000,57.04
16:19:39.765625,63.99
16:19:39.781250,71.44
16:19:39.796875,77.68
16:19:39.812500,80.79
16:19:39.828125,79.65
16:19:39.843750,74.56
16:19:39.859375,67.06
16:19:39.875000,59.18
16:19:39.890625,52.53
16:19:39.906250,47.87
16:19:39.921875,45.08
16:19:39.937500,43.51
16:19:39.953125,42.31
16:19:39.968750,40.54
16:19:39.984375,37.07
16:19:40,30.66
16:19:40.015625,20.18
16:19:40.031250,5.12
16:19:40.046875,-13.94
16:19:40.062500,-35.15
16:19:40.078125,-55.78
16:19:40.093750,-73.00
16:19:40.109375,-84.61
16:19:40.125000,-89.59
16:19:40.140625,-88.10
16:19:40.156250,-81.15
16:19:40.171875,-70.18
16:19:40.187500,-56.68
16:19:40.203125,-42.11
16:19:40.218750,-27.82
16:19:40.234375,-14.98
16:19:40.250000,-4.47
16:19:40.265625,3.33
16:19:40.281250,8.60
16:19:40.296875,11.92
16:19:40.312500,14.07
16:19:40.328125,15.65
16:19:40.343750,16.93
16:19:40.359375,17.87
16:19:40.375000,18.13
16:19:40.390625,17.14
16:19:40.406250,14.23
16:19:40.421875,8.81
16:19:40.437500,0.59
16:19:40.453125,-10.13
16:19:40.468750,-22.45
16:19:40.484375,-34.98
16:19:40.500000,-46.36
16:19:40.515625,-55.75
16:19:40.531250,-63.21
16:19:40.546875,-69.64
16:19:40.562500,-76.43
16:19:40.578125,-84.91
16:19:40.593750,-95.83
16:19:40.609375,-109.12
16:19:40.625000,-123.87
16:19:40.640625,-138.59
16:19:40.656250,-151.42
16:19:40.671875,-160.61
16:19:40.687500,-164.92
16:19:40.703125,-163.99
16:19:40.718750,-158.46
16:19:40.734375,-149.81
16:19:40.750000,-139.84
16:19:40.765625,-130.03
16:19:40.781250,-121.15
16:19:40.796875,-113.22
16:19:40.812500,-105.97
16:19:40.828125,-99.40
16:19:40.843750,-94.17
16:19:40.859375,-91.60
16:19:40.875000,-92.96
16:19:40.890625,-98.76
16:19:40.906250,-108.24
16:19:40.921875,-119.38
16:19:40.937500,-129.47
16:19:40.953125,-135.74
16:19:40.968750,-135.83
16:19:40.984375,-127.90
16:19:41,-110.60
16:19:41.015625,-83.38
16:19:41.031250,-46.93
16:19:41.046875,-3.73
16:19:41.062500,42.12
16:19:41.078125,85.64
16:19:41.093750,122.38
16:19:41.109375,149.57
16:19:41.125000,166.57
16:19:41.140625,174.50
16:19:41.156250,175.33
16:19:41.171875,171.14
16:19:41.187500,163.71
16:19:41.203125,154.61
16:19:41.218750,145.34
16:19:41.234375,137.17
16:19:41.250000,130.96
16:19:41.265625,127.04
16:19:41.281250,125.45
16:19:41.296875,126.36
16:19:41.312500,130.13
16:19:41.328125,137.05
16:19:41.343750,146.61
16:19:41.359375,156.91
16:19:41.375000,164.88
16:19:41.390625,167.06
16:19:41.406250,160.87
16:19:41.421875,145.52
16:19:41.437500,122.15
16:19:41.453125,93.35
16:19:41.468750,62.23
16:19:41.484375,31.63
16:19:41.500000,3.67
16:19:41.515625,-20.28
16:19:41.531250,-39.41
16:19:41.546875,-53.36
16:19:41.562500,-62.23
16:19:41.578125,-66.63
16:19:41.593750,-67.66
16:19:41.609375,-66.73
16:19:41.625000,-65.27
16:19:41.640625,-64.46
16:19:41.656250,-65.10
16:19:41.671875,-67.78
16:19:41.687500,-72.95
16:19:41.703125,-81.00
16:19:41.718750,-91.97
16:19:41.734375,-105.19
16:19:41.750000,-118.99
16:19:41.765625,-130.88
16:19:41.781250,-138.15
16:19:41.796875,-138.77
16:19:41.812500,-132.21
16:19:41.828125,-119.57
16:19:41.843750,-103.30
16:19:41.859375,-86.21
16:19:41.875000,-70.67
16:19:41.890625,-58.01
16:19:41.906250,-48.59
16:19:41.921875,-42.17
16:19:41.937500,-38.43
16:19:41.953125,-37.20
16:19:41.968750,-38.50
16:19:41.984375,-42.20
16:19:42,-47.85
16:19:42.015625,-54.69
16:19:42.031250,-61.84
16:19:42.046875,-68.71
16:19:42.062500,-75.32
16:19:42.078125,-82.13
16:19:42.093750,-89.86
16:19:42.109375,-98.91
16:19:42.125000,-109.14
16:19:42.140625,-119.60
16:19:42.156250,-128.64
16:19:42.171875,-134.05
16:19:42.187500,-133.30
16:19:42.203125,-124.17
16:19:42.218750,-105.49
16:19:42.234375,-77.93
16:19:42.250000,-44.34
16:19:42.265625,-9.24
16:19:42.281250,22.45
16:19:42.296875,46.95
16:19:42.312500,62.57
16:19:42.328125,69.81
16:19:42.343750,70.45
16:19:42.359375,66.44
16:19:42.375000,59.26
16:19:42.390625,49.89
16:19:42.406250,39.46
16:19:42.421875,29.63
16:19:42.437500,22.63
16:19:42.453125,20.59
16:19:42.468750,24.66
16:19:42.484375,34.44
16:19:42.500000,47.90
16:19:42.515625,61.97
16:19:42.531250,73.40
16:19:42.546875,79.69
16:19:42.562500,79.72
16:19:42.578125,73.97
16:19:42.593750,64.24
16:19:42.609375,52.90
16:19:42.625000,42.01
16:19:42.640625,32.58
16:19:42.656250,24.45
16:19:42.671875,16.64
16:19:42.687500,8.29
16:19:42.703125,-0.71
16:19:42.718750,-9.36
16:19:42.734375,-15.92
16:19:42.750000,-18.62
16:19:42.765625,-16.42
16:19:42.781250,-9.36
16:19:42.796875,1.50
16:19:42.812500,14.53
16:19:42.828125,27.98
16:19:42.843750,40.41
16:19:42.859375,50.79
16:19:42.875000,58.46
16:19:42.890625,63.04
16:19:42.906250,64.44
16:19:42.921875,62.83
16:19:42.937500,58.61
16:19:42.953125,52.42
16:19:42.968750,44.91
16:19:42.984375,36.74
16:19:43,28.42
16:19:43.015625,20.35
16:19:43.031250,12.88
16:19:43.046875,6.33
16:19:43.062500,1.03
16:19:43.078125,-2.79
16:19:43.093750,-5.07
16:19:43.109375,-6.02
16:19:43.125000,-6.04
16:19:43.140625,-5.64
16:19:43.156250,-5.33
16:19:43.171875,-5.60
16:19:43.187500,-6.88
16:19:43.203125,-9.57
16:19:43.218750,-14.05
16:19:43.234375,-20.53
16:19:43.250000,-28.91
16:19:43.265625,-38.72
16:19:43.281250,-49.07
16:19:43.296875,-58.84
16:19:43.312500,-66.93
16:19:43.328125,-72.68
16:19:43.343750,-75.98
16:19:43.359375,-77.43
16:19:43.375000,-77.99
16:19:43.390625,-78.61
16:19:43.406250,-79.79
16:19:43.421875,-81.43
16:19:43.437500,-82.89
16:19:43.453125,-83.38
16:19:43.468750,-82.28
16:19:43.484375,-79.31
16:19:43.500000,-74.50
16:19:43.515625,-67.97
16:19:43.531250,-59.85
16:19:43.546875,-50.28
16:19:43.562500,-39.59
16:19:43.578125,-28.36
16:19:43.593750,-17.39
16:19:43.609375,-7.49
16:19:43.625000,0.83
16:19:43.640625,7.42
16:19:43.656250,12.41
16:19:43.671875,16.09
16:19:43.687500,18.72
16:19:43.703125,20.59
16:19:43.718750,22.05
16:19:43.734375,23.56
16:19:43.750000,25.61
16:19:43.765625,28.63
16:19:43.781250,32.76
16:19:43.796875,37.92
16:19:43.812500,43.90
16:19:43.828125,50.51
16:19:43.843750,57.68
16:19:43.859375,65.38
16:19:43.875000,73.49
16:19:43.890625,81.70
16:19:43.906250,89.40
16:19:43.921875,95.84
16:19:43.937500,100.25
16:19:43.953125,102.06
16:19:43.968750,101.02
16:19:43.984375,97.27
16:19:44,91.28
16:19:44.015625,83.74
16:19:44.031250,75.40
16:19:44.046875,66.92
16:19:44.062500,58.77
16:19:44.078125,51.18
16:19:44.093750,44.15
16:19:44.109375,37.49
16:19:44.125000,30.99
16:19:44.140625,24.56
16:19:44.156250,18.41
16:19:44.171875,13.12
16:19:44.187500,9.48
16:19:44.203125,8.31
16:19:44.218750,10.04
16:19:44.234375,14.55
16:19:44.250000,21.05
16:19:44.265625,28.33
16:19:44.281250,35.10
16:19:44.296875,40.40
16:19:44.312500,43.75
16:19:44.328125,45.23
16:19:44.343750,45.33
16:19:44.359375,44.66
16:19:44.375000,43.81
16:19:44.390625,43.14
16:19:44.406250,42.80
16:19:44.421875,42.67
16:19:44.437500,42.56
16:19:44.453125,42.21
16:19:44.468750,41.48
16:19:44.484375,40.35
16:19:44.500000,38.91
16:19:44.515625,37.28
16:19:44.531250,35.58
16:19:44.546875,33.91
16:19:44.562500,32.29
16:19:44.578125,30.72
16:19:44.593750,29.23
16:19:44.609375,27.81
16:19:44.625000,26.43
16:19:44.640625,24.90
16:19:44.656250,22.94
16:19:44.671875,20.21
16:19:44.687500,16.40
16:19:44.703125,11.48
16:19:44.718750,5.67
16:19:44.734375,-0.49
16:19:44.750000,-6.37
16:19:44.765625,-11.44
16:19:44.781250,-15.45
16:19:44.796875,-18.55
16:19:44.812500,-21.15
16:19:44.828125,-23.72
16:19:44.843750,-26.65
16:19:44.859375,-30.07
16:19:44.875000,-33.91
16:19:44.890625,-37.87
16:19:44.906250,-41.59
16:19:44.921875,-44.52
16:19:44.937500,-46.05
16:19:44.953125,-45.51
16:19:44.968750,-42.36
16:19:44.984375,-36.34
16:19:45,-27.72
16:19:45.015625,-17.24
16:19:45.031250,-5.97
16:19:45.046875,4.99
16:19:45.062500,14.81
16:19:45.078125,23.04
16:19:45.093750,29.57
16:19:45.109375,34.46
16:19:45.125000,37.69
16:19:45.140625,39.14
16:19:45.156250,38.64
16:19:45.171875,36.14
16:19:45.187500,31.91
16:19:45.203125,26.59
16:19:45.218750,21.09
16:19:45.234375,16.31
16:19:45.250000,12.88
16:19:45.265625,10.97
16:19:45.281250,10.29
16:19:45.296875,10.22
16:19:45.312500,10.12
16:19:45.328125,9.51
16:19:45.343750,8.18
16:19:45.359375,6.19
16:19:45.375000,3.71
16:19:45.390625,0.94
16:19:45.406250,-1.98
16:19:45.421875,-4.91
16:19:45.437500,-7.61
16:19:45.453125,-9.77
16:19:45.468750,-11.00
16:19:45.484375,-10.98
16:19:45.500000,-9.55
16:19:45.515625,-6.86
16:19:45.531250,-3.28
16:19:45.546875,0.65
16:19:45.562500,4.39
16:19:45.578125,7.42
16:19:45.593750,9.33
16:19:45.609375,9.78
16:19:45.625000,8.51
16:19:45.640625,5.36
16:19:45.656250,0.43
16:19:45.671875,-5.83
16:19:45.687500,-12.55
16:19:45.703125,-18.53
16:19:45.718750,-22.42
16:19:45.734375,-23.06
16:19:45.750000,-19.77
16:19:45.765625,-12.53
16:19:45.781250,-1.99
16:19:45.796875,10.71
16:19:45.812500,24.21
16:19:45.828125,37.29
16:19:45.843750,49.05
16:19:45.859375,59.01
16:19:45.875000,66.96
16:19:45.890625,72.89
16:19:45.906250,76.81
16:19:45.921875,78.70
16:19:45.937500,78.66
16:19:45.953125,76.87
16:19:45.968750,73.71
16:19:45.984375,69.64
16:19:46,65.17
16:19:46.015625,60.72
16:19:46.031250,56.60
16:19:46.046875,53.03
16:19:46.062500,50.15
16:19:46.078125,48.06
16:19:46.093750,46.84
16:19:46.109375,46.49
16:19:46.125000,46.94
16:19:46.140625,48.08
16:19:46.156250,49.75
16:19:46.171875,51.74
16:19:46.187500,53.78
16:19:46.203125,55.49
16:19:46.218750,56.44
16:19:46.234375,56.12
16:19:46.250000,54.10
16:19:46.265625,50.12
16:19:46.281250,44.14
16:19:46.296875,36.43
16:19:46.312500,27.58
16:19:46.328125,18.42
16:19:46.343750,9.91
16:19:46.359375,2.93
16:19:46.375000,-1.88
16:19:46.390625,-4.37
16:19:46.406250,-5.00
16:19:46.421875,-4.75
16:19:46.437500,-4.85
16:19:46.453125,-6.42
16:19:46.468750,-10.05
16:19:46.484375,-15.57
16:19:46.500000,-22.05
16:19:46.515625,-28.13
16:19:46.531250,-32.29
16:19:46.546875,-33.31
16:19:46.562500,-30.42
16:19:46.578125,-23.38
16:19:46.593750,-12.52
16:19:46.609375,1.39
16:19:46.625000,17.08
16:19:46.640625,32.90
16:19:46.656250,46.99
16:19:46.671875,57.60
16:19:46.687500,63.46
16:19:46.703125,64.05
16:19:46.718750,59.68
16:19:46.734375,51.29
16:19:46.750000,40.13
16:19:46.765625,27.44
16:19:46.781250,14.24
16:19:46.796875,1.34
16:19:46.812500,-10.58
16:19:46.828125,-20.89
16:19:46.843750,-29.03
16:19:46.859375,-34.65
16:19:46.875000,-37.70
16:19:46.890625,-38.54
16:19:46.906250,-37.88
16:19:46.921875,-36.64
16:19:46.937500,-35.74
16:19:46.953125,-35.89
16:19:46.968750,-37.48
16:19:46.984375,-40.47
16:19:47,-44.45
16:19:47.015625,-48.71
16:19:47.031250,-52.41
16:19:47.046875,-54.81
16:19:47.062500,-55.46
16:19:47.078125,-54.19
16:19:47.093750,-51.19
16:19:47.109375,-46.79
16:19:47.125000,-41.38
16:19:47.140625,-35.33
16:19:47.156250,-28.95
16:19:47.171875,-22.60
16:19:47.187500,-16.69
16:19:47.203125,-11.70
16:19:47.218750,-8.17
16:19:47.234375,-6.67
16:19:47.250000,-7.62
16:19:47.265625,-11.32
16:19:47.281250,-17.83
16:19:47.296875,-26.93
16:19:47.312500,-38.06
16:19:47.328125,-50.32
16:19:47.343750,-62.48
16:19:47.359375,-73.13
16:19:47.375000,-80.85
16:19:47.390625,-84.41
16:19:47.406250,-82.99
16:19:47.421875,-76.36
16:19:47.437500,-65.01
16:19:47.453125,-50.04
16:19:47.468750,-33.06
16:19:47.484375,-15.80
16:19:47.500000,0.18
16:19:47.515625,13.83
16:19:47.531250,24.64
16:19:47.546875,32.61
16:19:47.562500,37.98
16:19:47.578125,41.06
16:19:47.593750,42.11
16:19:47.609375,41.33
16:19:47.625000,38.95
16:19:47.640625,35.35
16:19:47.656250,30.96
16:19:47.671875,26.28
16:19:47.687500,21.70
16:19:47.703125,17.51
16:19:47.718750,13.94
16:19:47.734375,11.18
16:19:47.750000,9.48
16:19:47.765625,9.05
16:19:47.781250,10.00
16:19:47.796875,12.18
16:19:47.812500,15.18
16:19:47.828125,18.32
16:19:47.843750,20.84
16:19:47.859375,22.01
16:19:47.875000,21.29
16:19:47.890625,18.47
16:19:47.906250,13.70
16:19:47.921875,7.49
16:19:47.937500,0.62
16:19:47.953125,-6.02
16:19:47.968750,-11.72
16:19:47.984375,-16.03
16:19:48,-18.91
16:19:48.015625,-20.61
16:19:48.031250,-21.55
16:19:48.046875,-22.07
16:19:48.062500,-22.40
16:19:48.078125,-22.61
16:19:48.093750,-22.65
16:19:48.109375,-22.55
16:19:48.125000,-22.42
16:19:48.140625,-22.47
16:19:48.156250,-22.96
16:19:48.171875,-24.10
16:19:48.187500,-25.98
16:19:48.203125,-28.50
16:19:48.218750,-31.35
16:19:48.234375,-34.05
16:19:48.250000,-35.97
16:19:48.265625,-36.45
16:19:48.281250,-34.94
16:19:48.296875,-31.16
16:19:48.312500,-25.24
16:19:48.328125,-17.76
16:19:48.343750,-9.68
16:19:48.359375,-2.07
16:19:48.375000,4.17
16:19:48.390625,8.61
16:19:48.406250,11.30
16:19:48.421875,12.74
16:19:48.437500,13.58
16:19:48.453125,14.48
16:19:48.468750,15.90
16:19:48.484375,18.11
16:19:48.500000,21.19
16:19:48.515625,25.11
16:19:48.531250,29.68
16:19:48.546875,34.62
16:19:48.562500,39.56
16:19:48.578125,44.14
16:19:48.593750,48.09
16:19:48.609375,51.20
16:19:48.625000,53.35
16:19:48.640625,54.46
16:19:48.656250,54.45
16:19:48.671875,53.23
16:19:48.687500,50.85
16:19:48.703125,47.41
16:19:48.718750,43.13
16:19:48.734375,38.18
16:19:48.750000,32.71
16:19:48.765625,26.73
16:19:48.781250,20.29
16:19:48.796875,13.43
16:19:48.812500,6.27
16:19:48.828125,-1.08
16:19:48.843750,-8.52
16:19:48.859375,-16.07
16:19:48.875000,-23.80
16:19:48.890625,-31.82
16:19:48.906250,-40.15
16:19:48.921875,-48.70
16:19:48.937500,-57.25
16:19:48.953125,-65.48
16:19:48.968750,-73.01
16:19:48.984375,-79.46
16:19:49,-84.39
16:19:49.015625,-87.38
16:19:49.031250,-88.03
16:19:49.046875,-86.19
16:19:49.062500,-81.96
16:19:49.078125,-75.79
16:19:49.093750,-68.32
16:19:49.109375,-60.23
16:19:49.125000,-52.04
16:19:49.140625,-44.02
16:19:49.156250,-36.22
16:19:49.171875,-28.62
16:19:49.187500,-21.24
16:19:49.203125,-14.21
16:19:49.218750,-7.68
16:19:49.234375,-1.78
16:19:49.250000,3.49
16:19:49.265625,8.24
16:19:49.281250,12.61
16:19:49.296875,16.71
16:19:49.312500,20.61
16:19:49.328125,24.35
16:19:49.343750,28.00
16:19:49.359375,31.73
16:19:49.375000,35.75
16:19:49.390625,40.24
16:19:49.406250,45.25
16:19:49.421875,50.68
16:19:49.437500,56.26
16:19:49.453125,61.59
16:19:49.468750,66.29
16:19:49.484375,70.06
16:19:49.500000,72.79
16:19:49.515625,74.54
16:19:49.531250,75.50
16:19:49.546875,75.87
16:19:49.562500,75.80
16:19:49.578125,75.33
16:19:49.593750,74.37
16:19:49.609375,72.82
16:19:49.625000,70.60
16:19:49.640625,67.78
16:19:49.656250,64.62
16:19:49.671875,61.55
16:19:49.687500,59.11
16:19:49.703125,57.88
16:19:49.718750,58.29
16:19:49.734375,60.45
16:19:49.750000,64.02
16:19:49.765625,68.12
16:19:49.781250,71.44
16:19:49.796875,72.49
16:19:49.812500,70.01
16:19:49.828125,63.36
16:19:49.843750,52.67
16:19:49.859375,38.79
16:19:49.875000,23.11
16:19:49.890625,7.18
16:19:49.906250,-7.56
16:19:49.921875,-19.96
16:19:49.937500,-29.29
16:19:49.953125,-35.21
16:19:49.968750,-37.76
16:19:49.984375,-37.24
16:19:50,-34.15
16:19:50.015625,-29.03
16:19:50.031250,-22.40
16:19:50.046875,-14.71
16:19:50.062500,-6.41
16:19:50.078125,1.99
16:19:50.093750,9.84
16:19:50.109375,16.46
16:19:50.125000,21.26
16:19:50.140625,23.95
16:19:50.156250,24.60
16:19:50.171875,23.68
16:19:50.187500,21.89
16:19:50.203125,19.89
16:19:50.218750,18.10
16:19:50.234375,16.55
16:19:50.250000,14.91
16:19:50.265625,12.73
16:19:50.281250,9.64
16:19:50.296875,5.65
16:19:50.312500,1.19
16:19:50.328125,-2.92
16:19:50.343750,-5.83
16:19:50.359375,-6.95
16:19:50.375000,-6.23
16:19:50.390625,-4.31
16:19:50.406250,-2.37
16:19:50.421875,-1.88
16:19:50.437500,-4.24
16:19:50.453125,-10.36
16:19:50.468750,-20.37
16:19:50.484375,-33.46
16:19:50.500000,-47.96
16:19:50.515625,-61.55
16:19:50.531250,-71.86
16:19:50.546875,-77.04
16:19:50.562500,-76.43
16:19:50.578125,-70.77
16:19:50.593750,-61.95
16:19:50.609375,-52.39
16:19:50.625000,-44.25
16:19:50.640625,-38.83
16:19:50.656250,-36.56
16:19:50.671875,-37.24
16:19:50.687500,-40.48
16:19:50.703125,-45.90
16:19:50.718750,-53.08
16:19:50.734375,-61.27
16:19:50.750000,-69.35
16:19:50.765625,-75.94
16:19:50.781250,-79.86
16:19:50.796875,-80.58
16:19:50.812500,-78.51
16:19:50.828125,-74.67
16:19:50.843750,-70.21
16:19:50.859375,-65.64
16:19:50.875000,-60.39
16:19:50.890625,-52.96
16:19:50.906250,-41.57
16:19:50.921875,-25.19
16:19:50.937500,-4.36
16:19:50.953125,18.62
16:19:50.968750,40.23
16:19:50.984375,56.98
16:19:51,66.50
16:19:51.015625,68.11
16:19:51.031250,62.48
16:19:51.046875,50.81
16:19:51.062500,34.11
16:19:51.078125,13.16
16:19:51.093750,-10.98
16:19:51.109375,-36.25
16:19:51.125000,-59.55
16:19:51.140625,-77.46
16:19:51.156250,-87.49
16:19:51.171875,-89.14
16:19:51.187500,-84.06
16:19:51.203125,-75.20
16:19:51.218750,-65.51
16:19:51.234375,-56.84
16:19:51.250000,-49.49
16:19:51.265625,-42.59
16:19:51.281250,-34.91
16:19:51.296875,-25.63
16:19:51.312500,-14.74
16:19:51.328125,-3.11
16:19:51.343750,7.83
16:19:51.359375,16.46
16:19:51.375000,21.40
16:19:51.390625,21.89
16:19:51.406250,17.94
16:19:51.421875,10.32
16:19:51.437500,0.31
16:19:51.453125,-10.69
16:19:51.468750,-21.54
16:19:51.484375,-31.56
16:19:51.500000,-40.49
16:19:51.515625,-48.39
16:19:51.531250,-55.43
16:19:51.546875,-61.80
16:19:51.562500,-67.55
16:19:51.578125,-72.71
16:19:51.593750,-77.19
16:19:51.609375,-80.94
16:19:51.625000,-83.93
16:19:51.640625,-86.22
16:19:51.656250,-87.88
16:19:51.671875,-89.01
16:19:51.687500,-89.75
16:19:51.703125,-90.28
16:19:51.718750,-90.77
16:19:51.734375,-91.30
16:19:51.750000,-91.65
16:19:51.765625,-91.32
16:19:51.781250,-89.66
16:19:51.796875,-86.19
16:19:51.812500,-80.87
16:19:51.828125,-74.22
16:19:51.843750,-67.06
16:19:51.859375,-60.14
16:19:51.875000,-53.78
16:19:51.890625,-47.81
16:19:51.906250,-41.84
16:19:51.921875,-35.76
16:19:51.937500,-29.91
16:19:51.953125,-25.08
16:19:51.968750,-21.93
16:19:51.984375,-20.54
16:19:52,-20.01
16:19:52.015625,-18.76
16:19:52.031250,-15.00
16:19:52.046875,-7.58
16:19:52.062500,3.62
16:19:52.078125,17.67
16:19:52.093750,33.01
16:19:52.109375,48.05
16:19:52.125000,61.65
16:19:52.140625,73.28
16:19:52.156250,82.92
16:19:52.171875,90.77
16:19:52.187500,97.08
16:19:52.203125,102.01
16:19:52.218750,105.55
16:19:52.234375,107.37
16:19:52.250000,106.86
16:19:52.265625,103.21
16:19:52.281250,95.75
16:19:52.296875,84.33
16:19:52.312500,69.64
16:19:52.328125,53.18
16:19:52.343750,36.89
16:19:52.359375,22.61
16:19:52.375000,11.65
16:19:52.390625,4.56
16:19:52.406250,1.18
16:19:52.421875,0.86
16:19:52.437500,2.77
16:19:52.453125,5.92
16:19:52.468750,9.28
16:19:52.484375,11.66
16:19:52.500000,11.71
16:19:52.515625,8.00
16:19:52.531250,-0.81
16:19:52.546875,-15.69
16:19:52.562500,-36.89
16:19:52.578125,-63.72
16:19:52.593750,-94.38
16:19:52.609375,-126.08
16:19:52.625000,-155.41
16:19:52.640625,-178.88
16:19:52.656250,-193.63
16:19:52.671875,-197.86
16:19:52.687500,-191.23
16:19:52.703125,-174.75
16:19:52.718750,-150.52
16:19:52.734375,-121.36
16:19:52.750000,-90.20
16:19:52.765625,-59.77
16:19:52.781250,-32.35
16:19:52.796875,-9.63
16:19:52.812500,7.20
16:19:52.828125,17.53
16:19:52.843750,21.44
16:19:52.859375,19.96
16:19:52.875000,15.13
16:19:52.890625,9.87
16:19:52.906250,7.31
16:19:52.921875,9.96
16:19:52.937500,18.86
16:19:52.953125,33.20
16:19:52.968750,50.59
16:19:52.984375,67.84
16:19:53,81.92
16:19:53.015625,90.71
16:19:53.031250,93.14
16:19:53.046875,89.01
16:19:53.062500,78.79
16:19:53.078125,63.78
16:19:53.093750,46.28
16:19:53.109375,29.65
16:19:53.125000,17.62
16:19:53.140625,13.08
16:19:53.156250,16.86
16:19:53.171875,27.20
16:19:53.187500,40.51
16:19:53.203125,53.02
16:19:53.218750,62.54
16:19:53.234375,69.41
16:19:53.250000,75.95
16:19:53.265625,84.72
16:19:53.281250,96.67
16:19:53.296875,110.22
16:19:53.312500,121.79
16:19:53.328125,127.43
16:19:53.343750,124.61
16:19:53.359375,113.11
16:19:53.375000,94.78
16:19:53.390625,72.41
16:19:53.406250,48.61
16:19:53.421875,25.30
16:19:53.437500,3.91
16:19:53.453125,-14.16
16:19:53.468750,-27.32
16:19:53.484375,-34.04
16:19:53.500000,-33.59
16:19:53.515625,-26.54
16:19:53.531250,-14.79
16:19:53.546875,-0.91
16:19:53.562500,12.72
16:19:53.578125,24.59
16:19:53.593750,34.17
16:19:53.609375,41.53
16:19:53.625000,46.82
16:19:53.640625,49.86
16:19:53.656250,50.18
16:19:53.671875,47.41
16:19:53.687500,41.69
16:19:53.703125,33.96
16:19:53.718750,25.82
16:19:53.734375,19.08
16:19:53.750000,15.17
16:19:53.765625,14.70
16:19:53.781250,17.27
16:19:53.796875,21.77
16:19:53.812500,26.78
16:19:53.828125,31.07
16:19:53.843750,33.87
16:19:53.859375,34.89
16:19:53.875000,34.15
16:19:53.890625,31.82
16:19:53.906250,28.14
16:19:53.921875,23.38
16:19:53.937500,17.94
16:19:53.953125,12.31
16:19:53.968750,6.99
16:19:53.984375,2.36
16:19:54,-1.51
16:19:54.015625,-4.80
16:19:54.031250,-7.84
16:19:54.046875,-10.97
16:19:54.062500,-14.36
16:19:54.078125,-17.95
16:19:54.093750,-21.50
16:19:54.109375,-24.69
16:19:54.125000,-27.29
16:19:54.140625,-29.36
16:19:54.156250,-31.27
16:19:54.171875,-33.72
16:19:54.187500,-37.49
16:19:54.203125,-43.09
16:19:54.218750,-50.41
16:19:54.234375,-58.52
16:19:54.250000,-65.78
16:19:54.265625,-70.23
16:19:54.281250,-70.29
16:19:54.296875,-65.25
16:19:54.312500,-55.54
16:19:54.328125,-42.58
16:19:54.343750,-28.22
16:19:54.359375,-14.15
16:19:54.375000,-1.48
16:19:54.390625,9.36
16:19:54.406250,18.37
16:19:54.421875,25.69
16:19:54.437500,31.37
16:19:54.453125,35.30
16:19:54.468750,37.38
16:19:54.484375,37.75
16:19:54.500000,36.75
16:19:54.515625,34.92
16:19:54.531250,32.79
16:19:54.546875,30.71
16:19:54.562500,28.78
16:19:54.578125,26.93
16:19:54.593750,25.00
16:19:54.609375,22.93
16:19:54.625000,20.83
16:19:54.640625,18.91
16:19:54.656250,17.46
16:19:54.671875,16.66
16:19:54.687500,16.45
16:19:54.703125,16.57
16:19:54.718750,16.56
16:19:54.734375,16.04
16:19:54.750000,14.84
16:19:54.765625,13.05
16:19:54.781250,10.95
16:19:54.796875,8.73
16:19:54.812500,6.42
16:19:54.828125,3.76
16:19:54.843750,0.39
16:19:54.859375,-3.96
16:19:54.875000,-9.30
16:19:54.890625,-15.37
16:19:54.906250,-21.72
16:19:54.921875,-27.90
16:19:54.937500,-33.61
16:19:54.953125,-38.71
16:19:54.968750,-43.24
16:19:54.984375,-47.38
16:19:55,-51.40
16:19:55.015625,-55.63
16:19:55.031250,-60.29
16:19:55.046875,-65.32
16:19:55.062500,-70.14
16:19:55.078125,-73.70
16:19:55.093750,-74.61
16:19:55.109375,-71.64
16:19:55.125000,-64.07
16:19:55.140625,-52.16
16:19:55.156250,-37.03
16:19:55.171875,-20.47
16:19:55.187500,-4.30
16:19:55.203125,10.08
16:19:55.218750,22.00
16:19:55.234375,31.45
16:19:55.250000,38.81
16:19:55.265625,44.45
16:19:55.281250,48.55
16:19:55.296875,51.11
16:19:55.312500,52.09
16:19:55.328125,51.65
16:19:55.343750,50.19
16:19:55.359375,48.17
16:19:55.375000,45.99
16:19:55.390625,43.85
16:19:55.406250,41.80
16:19:55.421875,39.80
16:19:55.437500,37.90
16:19:55.453125,36.17
16:19:55.468750,34.64
16:19:55.484375,33.14
16:19:55.500000,31.34
16:19:55.515625,28.86
16:19:55.531250,25.51
16:19:55.546875,21.34
16:19:55.562500,16.70
16:19:55.578125,12.03
16:19:55.593750,7.73
16:19:55.609375,4.02
16:19:55.625000,0.99
16:19:55.640625,-1.42
16:19:55.656250,-3.39
16:19:55.671875,-5.21
16:19:55.687500,-7.28
16:19:55.703125,-10.04
16:19:55.718750,-13.76
16:19:55.734375,-18.39
16:19:55.750000,-23.53
16:19:55.765625,-28.47
16:19:55.781250,-32.53
16:19:55.796875,-35.22
16:19:55.812500,-36.47
16:19:55.828125,-36.56
16:19:55.843750,-36.10
16:19:55.859375,-35.73
16:19:55.875000,-36.05
16:19:55.890625,-37.37
16:19:55.906250,-39.50
16:19:55.921875,-41.69
16:19:55.937500,-42.70
16:19:55.953125,-41.20
16:19:55.968750,-36.24
16:19:55.984375,-27.75
16:19:56,-16.58
16:19:56.015625,-4.25
16:19:56.031250,7.61
16:19:56.046875,17.86
16:19:56.062500,25.99
16:19:56.078125,32.09
16:19:56.093750,36.42
16:19:56.109375,39.17
16:19:56.125000,40.34
16:19:56.140625,39.98
16:19:56.156250,38.29
16:19:56.171875,35.78
16:19:56.187500,33.11
16:19:56.203125,30.82
16:19:56.218750,29.18
16:19:56.234375,28.06
16:19:56.250000,27.15
16:19:56.265625,26.09
16:19:56.281250,24.71
16:19:56.296875,23.08
16:19:56.312500,21.39
16:19:56.328125,19.85
16:19:56.343750,18.53
16:19:56.359375,17.30
16:19:56.375000,15.88
16:19:56.390625,14.00
16:19:56.406250,11.46
16:19:56.421875,8.26
16:19:56.437500,4.57
16:19:56.453125,0.67
16:19:56.468750,-3.17
16:19:56.484375,-6.73
16:19:56.500000,-9.91
16:19:56.515625,-12.73
16:19:56.531250,-15.22
16:19:56.546875,-17.46
16:19:56.562500,-19.43
16:19:56.578125,-21.12
16:19:56.593750,-22.48
16:19:56.609375,-23.47
16:19:56.625000,-24.13
16:19:56.640625,-24.54
16:19:56.656250,-24.82
16:19:56.671875,-25.11
16:19:56.687500,-25.55
16:19:56.703125,-26.33
16:19:56.718750,-27.63
16:19:56.734375,-29.66
16:19:56.750000,-32.45
16:19:56.765625,-35.74
16:19:56.781250,-38.91
16:19:56.796875,-41.02
16:19:56.812500,-41.13
16:19:56.828125,-38.56
16:19:56.843750,-33.24
16:19:56.859375,-25.66
16:19:56.875000,-16.72
16:19:56.890625,-7.42
16:19:56.906250,1.48
16:19:56.921875,9.46
16:19:56.937500,16.28
16:19:56.953125,21.76
16:19:56.968750,25.80
16:19:56.984375,28.26
16:19:57,29.18
16:19:57.015625,28.73
16:19:57.031250,27.27
16:19:57.046875,25.20
16:19:57.062500,22.89
16:19:57.078125,20.61
16:19:57.093750,18.45
16:19:57.109375,16.45
16:19:57.125000,14.57
16:19:57.140625,12.79
16:19:57.156250,11.09
16:19:57.171875,9.48
16:19:57.187500,8.03
16:19:57.203125,6.81
16:19:57.218750,5.88
16:19:57.234375,5.21
16:19:57.250000,4.70
16:19:57.265625,4.14
16:19:57.281250,3.35
16:19:57.296875,2.29
16:19:57.312500,1.08
16:19:57.328125,-0.06
16:19:57.343750,-0.88
16:19:57.359375,-1.29
16:19:57.375000,-1.40
16:19:57.390625,-1.50
16:19:57.406250,-1.93
