11:43:37,-0.00
11:43:37.015625,-0.00
11:43:37.031250,-0.00
11:43:37.046875,-0.00
11:43:37.062500,-0.00
11:43:37.078125,-0.00
11:43:37.093750,-0.00
11:43:37.109375,-0.00
11:43:37.125000,-0.00
11:43:37.140625,-0.00
11:43:37.156250,0.00
11:43:37.171875,0.01
11:43:37.187500,0.01
11:43:37.203125,-0.00
11:43:37.218750,-0.03
11:43:37.234375,-0.05
11:43:37.250000,-0.05
11:43:37.265625,0.00
11:43:37.281250,0.13
11:43:37.296875,0.36
11:43:37.312500,0.66
11:43:37.328125,1.01
11:43:37.343750,1.37
11:43:37.359375,1.72
11:43:37.375000,2.06
11:43:37.390625,2.40
11:43:37.406250,2.79
11:43:37.421875,3.24
11:43:37.437500,3.80
11:43:37.453125,4.42
11:43:37.468750,5.06
11:43:37.484375,5.66
11:43:37.500000,6.20
11:43:37.515625,6.68
11:43:37.531250,7.15
11:43:37.546875,7.68
11:43:37.562500,8.31
11:43:37.578125,9.14
11:43:37.593750,10.09
11:43:37.609375,11.04
11:43:37.625000,11.88
11:43:37.640625,12.56
11:43:37.656250,13.14
11:43:37.671875,13.76
11:43:37.687500,14.65
11:43:37.703125,15.96
11:43:37.718750,17.91
11:43:37.734375,20.32
11:43:37.750000,22.90
11:43:37.765625,25.38
11:43:37.781250,27.58
11:43:37.796875,29.57
11:43:37.812500,31.68
11:43:37.828125,34.32
11:43:37.843750,37.81
11:43:37.859375,42.54
11:43:37.875000,48.15
11:43:37.890625,54.10
11:43:37.906250,59.83
11:43:37.921875,64.97
11:43:37.937500,69.58
11:43:37.953125,74.14
11:43:37.968750,79.34
11:43:37.984375,85.71
11:43:38,93.76
11:43:38.015625,103.00
11:43:38.031250,112.62
11:43:38.046875,121.73
11:43:38.062500,129.77
11:43:38.078125,136.75
11:43:38.093750,143.30
11:43:38.109375,150.75
11:43:38.125000,157.77
11:43:38.140625,166.64
11:43:38.156250,177.95
11:43:38.171875,191.79
11:43:38.187500,206.97
11:43:38.203125,220.57
11:43:38.218750,228.25
11:43:38.234375,225.36
11:43:38.250000,208.53
11:43:38.265625,176.87
11:43:38.281250,132.76
11:43:38.296875,80.05
11:43:38.312500,23.07
11:43:38.328125,-34.94
11:43:38.343750,-92.44
11:43:38.359375,-149.16
11:43:38.375000,-205.23
11:43:38.390625,-260.37
11:43:38.406250,-313.74
11:43:38.421875,-363.87
11:43:38.437500,-409.83
11:43:38.453125,-450.91
11:43:38.468750,-486.50
11:43:38.484375,-515.74
11:43:38.500000,-537.23
11:43:38.515625,-549.22
11:43:38.531250,-549.96
11:43:38.546875,-538.37
11:43:38.562500,-514.21
11:43:38.578125,-478.67
11:43:38.593750,-433.88
11:43:38.609375,-382.45
11:43:38.625000,-327.02
11:43:38.640625,-269.84
11:43:38.656250,-212.63
11:43:38.671875,-156.66
11:43:38.687500,-102.95
11:43:38.703125,-52.37
11:43:38.718750,-5.90
11:43:38.734375,35.58
11:43:38.750000,71.43
11:43:38.765625,101.35
11:43:38.781250,125.50
11:43:38.796875,144.38
11:43:38.812500,158.69
11:43:38.828125,169.15
11:43:38.843750,176.37
11:43:38.859375,180.75
11:43:38.875000,182.57
11:43:38.890625,182.07
11:43:38.906250,179.51
11:43:38.921875,175.23
11:43:38.937500,169.65
11:43:38.953125,163.18
11:43:38.968750,156.15
11:43:38.984375,148.81
11:43:39,141.30
11:43:39.015625,133.69
11:43:39.031250,126.02
11:43:39.046875,118.33
11:43:39.062500,110.69
11:43:39.078125,103.16
11:43:39.093750,95.80
11:43:39.109375,88.68
11:43:39.125000,81.83
11:43:39.140625,75.25
11:43:39.156250,68.95
11:43:39.171875,62.95
11:43:39.187500,57.25
11:43:39.203125,51.86
11:43:39.218750,46.78
11:43:39.234375,42.03
11:43:39.250000,37.59
11:43:39.265625,33.45
11:43:39.281250,29.61
11:43:39.296875,26.07
11:43:39.312500,22.81
11:43:39.328125,19.83
11:43:39.343750,17.11
11:43:39.359375,14.67
11:43:39.375000,12.48
11:43:39.390625,10.54
11:43:39.406250,8.83
11:43:39.421875,7.34
11:43:39.437500,6.06
11:43:39.453125,4.97
11:43:39.468750,4.06
11:43:39.484375,3.30
11:43:39.500000,2.66
11:43:39.515625,2.11
11:43:39.531250,1.63
11:43:39.546875,1.20
11:43:39.562500,0.83
11:43:39.578125,0.52
11:43:39.593750,0.28
11:43:39.609375,0.13
11:43:39.625000,0.03
11:43:39.640625,-0.03
11:43:39.656250,-0.08
11:43:39.671875,-0.15
11:43:39.687500,-0.25
11:43:39.703125,-0.36
11:43:39.718750,-0.45
11:43:39.734375,-0.49
11:43:39.750000,-0.47
11:43:39.765625,-0.42
11:43:39.781250,-0.36
11:43:39.796875,-0.34
11:43:39.812500,-0.41
11:43:39.828125,-0.56
11:43:39.843750,-0.75
11:43:39.859375,-0.92
11:43:39.875000,-0.99
11:43:39.890625,-0.95
11:43:39.906250,-0.81
11:43:39.921875,-0.69
11:43:39.937500,-0.69
11:43:39.953125,-0.92
11:43:39.968750,-1.37
11:43:39.984375,-1.93
11:43:40,-2.43
11:43:40.015625,-2.70
11:43:40.031250,-2.65
11:43:40.046875,-2.38
11:43:40.062500,-2.09
11:43:40.078125,-2.06
11:43:40.093750,-2.47
11:43:40.109375,-3.34
11:43:40.125000,-4.46
11:43:40.140625,-5.48
11:43:40.156250,-6.06
11:43:40.171875,-6.04
11:43:40.187500,-5.54
11:43:40.203125,-4.96
11:43:40.218750,-4.74
11:43:40.234375,-5.23
11:43:40.250000,-6.44
11:43:40.265625,-8.05
11:43:40.281250,-9.52
11:43:40.296875,-10.39
11:43:40.312500,-10.41
11:43:40.328125,-9.73
11:43:40.343750,-8.78
11:43:40.359375,-8.05
11:43:40.375000,-7.94
11:43:40.390625,-8.73
11:43:40.406250,-10.55
11:43:40.421875,-13.33
11:43:40.437500,-16.53
11:43:40.453125,-18.92
11:43:40.468750,-18.86
11:43:40.484375,-14.75
11:43:40.500000,-5.91
11:43:40.515625,6.85
11:43:40.531250,21.26
11:43:40.546875,34.44
11:43:40.562500,43.95
11:43:40.578125,48.85
11:43:40.593750,49.72
11:43:40.609375,48.16
11:43:40.625000,45.69
11:43:40.640625,43.16
11:43:40.656250,40.50
11:43:40.671875,37.22
11:43:40.687500,33.09
11:43:40.703125,28.16
11:43:40.718750,22.94
11:43:40.734375,17.98
11:43:40.750000,13.49
11:43:40.765625,9.27
11:43:40.781250,4.93
11:43:40.796875,0.12
11:43:40.812500,-5.13
11:43:40.828125,-10.34
11:43:40.843750,-14.82
11:43:40.859375,-17.88
11:43:40.875000,-19.21
11:43:40.890625,-19.04
11:43:40.906250,-18.05
11:43:40.921875,-17.04
11:43:40.937500,-16.68
11:43:40.953125,-17.21
11:43:40.968750,-18.45
11:43:40.984375,-19.96
11:43:41,-21.22
11:43:41.015625,-21.87
11:43:41.031250,-21.67
11:43:41.046875,-20.54
11:43:41.062500,-18.43
11:43:41.078125,-15.30
11:43:41.093750,-11.21
11:43:41.109375,-6.36
11:43:41.125000,-1.21
11:43:41.140625,3.63
11:43:41.156250,7.54
11:43:41.171875,10.11
11:43:41.187500,11.19
11:43:41.203125,11.05
11:43:41.218750,10.09
11:43:41.234375,8.85
11:43:41.250000,7.73
11:43:41.265625,6.99
11:43:41.281250,6.76
11:43:41.296875,7.08
11:43:41.312500,7.91
11:43:41.328125,9.16
11:43:41.343750,10.70
11:43:41.359375,12.26
11:43:41.375000,13.58
11:43:41.390625,14.42
11:43:41.406250,14.65
11:43:41.421875,14.21
11:43:41.437500,13.19
11:43:41.453125,11.73
11:43:41.468750,9.99
11:43:41.484375,8.15
11:43:41.500000,6.32
11:43:41.515625,4.60
11:43:41.531250,3.07
11:43:41.546875,1.77
11:43:41.562500,0.66
11:43:41.578125,-0.28
11:43:41.593750,-1.10
11:43:41.609375,-1.85
11:43:41.625000,-2.58
11:43:41.640625,-3.43
11:43:41.656250,-4.58
11:43:41.671875,-6.19
11:43:41.687500,-8.01
11:43:41.703125,-9.88
11:43:41.718750,-11.63
11:43:41.734375,-13.22
11:43:41.750000,-14.78
11:43:41.765625,-16.62
11:43:41.781250,-19.16
11:43:41.796875,-22.66
11:43:41.812500,-27.06
11:43:41.828125,-31.85
11:43:41.843750,-36.17
11:43:41.859375,-38.97
11:43:41.875000,-39.28
11:43:41.890625,-36.53
11:43:41.906250,-30.72
11:43:41.921875,-22.40
11:43:41.937500,-12.52
11:43:41.953125,-2.16
11:43:41.968750,7.68
11:43:41.984375,16.26
11:43:42,23.16
11:43:42.015625,28.25
11:43:42.031250,31.56
11:43:42.046875,33.23
11:43:42.062500,33.42
11:43:42.078125,32.30
11:43:42.093750,30.09
11:43:42.109375,27.09
11:43:42.125000,23.59
11:43:42.140625,19.98
11:43:42.156250,16.64
11:43:42.171875,13.85
11:43:42.187500,11.77
11:43:42.203125,10.36
11:43:42.218750,9.46
11:43:42.234375,8.81
11:43:42.250000,8.20
11:43:42.265625,7.47
11:43:42.281250,6.52
11:43:42.296875,5.22
11:43:42.312500,3.47
11:43:42.328125,1.19
11:43:42.343750,-1.56
11:43:42.359375,-4.53
11:43:42.375000,-7.30
11:43:42.390625,-9.44
11:43:42.406250,-10.65
11:43:42.421875,-10.92
11:43:42.437500,-10.51
11:43:42.453125,-9.89
11:43:42.468750,-9.57
11:43:42.484375,-10.01
11:43:42.500000,-11.40
11:43:42.515625,-13.64
11:43:42.531250,-16.35
11:43:42.546875,-18.96
11:43:42.562500,-20.88
11:43:42.578125,-21.79
11:43:42.593750,-21.74
11:43:42.609375,-21.20
11:43:42.625000,-20.90
11:43:42.640625,-21.51
11:43:42.656250,-23.43
11:43:42.671875,-26.58
11:43:42.687500,-30.40
11:43:42.703125,-34.00
11:43:42.718750,-36.35
11:43:42.734375,-36.54
11:43:42.750000,-33.98
11:43:42.765625,-28.57
11:43:42.781250,-20.72
11:43:42.796875,-11.26
11:43:42.812500,-1.26
11:43:42.828125,8.26
11:43:42.843750,16.50
11:43:42.859375,23.05
11:43:42.875000,27.82
11:43:42.890625,30.93
11:43:42.906250,32.66
11:43:42.921875,33.24
11:43:42.937500,32.89
11:43:42.953125,31.80
11:43:42.968750,30.15
11:43:42.984375,28.08
11:43:43,25.77
11:43:43.015625,23.38
11:43:43.031250,21.13
11:43:43.046875,19.19
11:43:43.062500,17.66
11:43:43.078125,16.45
11:43:43.093750,15.24
11:43:43.109375,13.41
11:43:43.125000,10.05
11:43:43.140625,4.20
11:43:43.156250,-4.99
11:43:43.171875,-17.94
11:43:43.187500,-34.36
11:43:43.203125,-53.10
11:43:43.218750,-72.23
11:43:43.234375,-89.40
11:43:43.250000,-102.40
11:43:43.265625,-109.74
11:43:43.281250,-111.09
11:43:43.296875,-107.27
11:43:43.312500,-100.04
11:43:43.328125,-91.49
11:43:43.343750,-83.57
11:43:43.359375,-77.62
11:43:43.375000,-74.17
11:43:43.390625,-72.82
11:43:43.406250,-72.29
11:43:43.421875,-70.77
11:43:43.437500,-66.40
11:43:43.453125,-57.98
11:43:43.468750,-45.40
11:43:43.484375,-29.76
11:43:43.500000,-12.91
11:43:43.515625,3.33
11:43:43.531250,17.89
11:43:43.546875,30.73
11:43:43.562500,42.59
11:43:43.578125,54.33
11:43:43.593750,66.42
11:43:43.609375,78.72
11:43:43.625000,90.54
11:43:43.640625,101.08
11:43:43.656250,109.67
11:43:43.671875,115.94
11:43:43.687500,119.72
11:43:43.703125,120.92
11:43:43.718750,119.55
11:43:43.734375,115.73
11:43:43.750000,109.87
11:43:43.765625,102.61
11:43:43.781250,94.81
11:43:43.796875,87.30
11:43:43.812500,80.68
11:43:43.828125,75.18
11:43:43.843750,70.63
11:43:43.859375,66.61
11:43:43.875000,62.65
11:43:43.890625,58.52
11:43:43.906250,54.27
11:43:43.921875,50.21
11:43:43.937500,46.70
11:43:43.953125,43.90
11:43:43.968750,41.63
11:43:43.984375,39.48
11:43:44,36.97
11:43:44.015625,33.81
11:43:44.031250,29.99
11:43:44.046875,25.73
11:43:44.062500,21.31
11:43:44.078125,16.87
11:43:44.093750,12.39
11:43:44.109375,7.67
11:43:44.125000,2.54
11:43:44.140625,-3.06
11:43:44.156250,-9.04
11:43:44.171875,-15.18
11:43:44.187500,-21.19
11:43:44.203125,-26.79
11:43:44.218750,-31.73
11:43:44.234375,-35.89
11:43:44.250000,-39.27
11:43:44.265625,-42.03
11:43:44.281250,-44.48
11:43:44.296875,-47.06
11:43:44.312500,-50.17
11:43:44.328125,-53.97
11:43:44.343750,-58.25
11:43:44.359375,-62.30
11:43:44.375000,-65.13
11:43:44.390625,-65.73
11:43:44.406250,-63.53
11:43:44.421875,-58.52
11:43:44.437500,-51.35
11:43:44.453125,-43.02
11:43:44.468750,-34.59
11:43:44.484375,-26.86
11:43:44.500000,-20.31
11:43:44.515625,-15.17
11:43:44.531250,-11.51
11:43:44.546875,-9.29
11:43:44.562500,-8.35
11:43:44.578125,-8.42
11:43:44.593750,-9.07
11:43:44.609375,-9.85
11:43:44.625000,-10.36
11:43:44.640625,-10.38
11:43:44.656250,-9.84
11:43:44.671875,-8.83
11:43:44.687500,-7.49
11:43:44.703125,-5.93
11:43:44.718750,-4.21
11:43:44.734375,-2.21
11:43:44.750000,0.25
11:43:44.765625,3.36
11:43:44.781250,7.19
11:43:44.796875,11.52
11:43:44.812500,15.89
11:43:44.828125,19.70
11:43:44.843750,22.44
11:43:44.859375,23.88
11:43:44.875000,24.15
11:43:44.890625,23.54
11:43:44.906250,22.34
11:43:44.921875,20.66
11:43:44.937500,18.31
11:43:44.953125,14.94
11:43:44.968750,10.14
11:43:44.984375,3.63
11:43:45,-4.63
11:43:45.015625,-14.34
11:43:45.031250,-24.72
11:43:45.046875,-34.54
11:43:45.062500,-42.32
11:43:45.078125,-46.65
11:43:45.093750,-46.66
11:43:45.109375,-42.32
11:43:45.125000,-34.53
11:43:45.140625,-24.74
11:43:45.156250,-14.49
11:43:45.171875,-4.92
11:43:45.187500,3.47
11:43:45.203125,10.68
11:43:45.218750,16.97
11:43:45.234375,22.60
11:43:45.250000,27.69
11:43:45.265625,32.23
11:43:45.281250,36.16
11:43:45.296875,39.45
11:43:45.312500,42.05
11:43:45.328125,43.94
11:43:45.343750,45.11
11:43:45.359375,45.52
11:43:45.375000,45.17
11:43:45.390625,44.06
11:43:45.406250,42.22
11:43:45.421875,39.73
11:43:45.437500,36.77
11:43:45.453125,33.58
11:43:45.468750,30.44
11:43:45.484375,27.61
11:43:45.500000,25.16
11:43:45.515625,23.07
11:43:45.531250,21.22
11:43:45.546875,19.48
11:43:45.562500,17.81
11:43:45.578125,16.25
11:43:45.593750,14.87
11:43:45.609375,13.66
11:43:45.625000,12.53
11:43:45.640625,11.33
11:43:45.656250,9.94
11:43:45.671875,8.31
11:43:45.687500,6.51
11:43:45.703125,4.64
11:43:45.718750,2.79
11:43:45.734375,1.03
11:43:45.750000,-0.66
11:43:45.765625,-2.30
11:43:45.781250,-4.03
11:43:45.796875,-5.96
11:43:45.812500,-8.23
11:43:45.828125,-10.91
11:43:45.843750,-13.94
11:43:45.859375,-17.17
11:43:45.875000,-20.42
11:43:45.890625,-23.55
11:43:45.906250,-26.48
11:43:45.921875,-29.23
11:43:45.937500,-31.84
11:43:45.953125,-34.33
11:43:45.968750,-36.69
11:43:45.984375,-38.89
11:43:46,-40.84
11:43:46.015625,-42.46
11:43:46.031250,-43.53
11:43:46.046875,-43.71
11:43:46.062500,-42.61
11:43:46.078125,-39.90
11:43:46.093750,-35.51
11:43:46.109375,-29.72
11:43:46.125000,-23.15
11:43:46.140625,-16.53
11:43:46.156250,-10.55
11:43:46.171875,-5.61
11:43:46.187500,-1.82
11:43:46.203125,0.96
11:43:46.218750,3.00
11:43:46.234375,4.56
11:43:46.250000,5.82
11:43:46.265625,6.86
11:43:46.281250,7.74
11:43:46.296875,8.49
11:43:46.312500,9.12
11:43:46.328125,9.66
11:43:46.343750,10.15
11:43:46.359375,10.58
11:43:46.375000,10.97
11:43:46.390625,11.34
11:43:46.406250,11.71
11:43:46.421875,12.09
11:43:46.437500,12.50
11:43:46.453125,12.86
11:43:46.468750,13.10
11:43:46.484375,13.10
11:43:46.500000,12.76
11:43:46.515625,12.02
11:43:46.531250,10.88
11:43:46.546875,9.41
11:43:46.562500,7.69
11:43:46.578125,5.86
11:43:46.593750,4.02
11:43:46.609375,2.24
11:43:46.625000,0.53
11:43:46.640625,-1.13
11:43:46.656250,-2.77
11:43:46.671875,-4.43
11:43:46.687500,-6.14
11:43:46.703125,-7.98
11:43:46.718750,-10.01
11:43:46.734375,-12.31
11:43:46.750000,-14.94
11:43:46.765625,-17.90
11:43:46.781250,-21.13
11:43:46.796875,-24.42
11:43:46.812500,-27.50
11:43:46.828125,-29.97
11:43:46.843750,-31.39
11:43:46.859375,-31.32
11:43:46.875000,-29.45
11:43:46.890625,-25.75
11:43:46.906250,-20.49
11:43:46.921875,-14.18
11:43:46.937500,-7.48
11:43:46.953125,-1.01
11:43:46.968750,4.77
11:43:46.984375,9.61
11:43:47,13.37
11:43:47.015625,15.95
11:43:47.031250,17.28
11:43:47.046875,17.33
11:43:47.062500,16.23
11:43:47.078125,14.24
11:43:47.093750,11.77
11:43:47.109375,9.26
11:43:47.125000,7.09
11:43:47.140625,5.54
11:43:47.156250,4.72
11:43:47.171875,4.61
11:43:47.187500,5.07
11:43:47.203125,5.88
11:43:47.218750,6.79
11:43:47.234375,7.58
11:43:47.250000,8.10
11:43:47.265625,8.31
11:43:47.281250,8.21
11:43:47.296875,7.81
11:43:47.312500,7.06
11:43:47.328125,5.87
11:43:47.343750,4.18
11:43:47.359375,1.99
11:43:47.375000,-0.60
11:43:47.390625,-3.42
11:43:47.406250,-6.30
11:43:47.421875,-9.13
11:43:47.437500,-11.85
11:43:47.453125,-14.45
11:43:47.468750,-17.00
11:43:47.484375,-19.54
11:43:47.500000,-22.22
11:43:47.515625,-25.16
11:43:47.531250,-28.43
11:43:47.546875,-31.91
11:43:47.562500,-35.24
11:43:47.578125,-37.81
11:43:47.593750,-38.96
11:43:47.609375,-38.18
11:43:47.625000,-35.25
11:43:47.640625,-30.40
11:43:47.656250,-24.14
11:43:47.671875,-17.18
11:43:47.687500,-10.18
11:43:47.703125,-3.59
11:43:47.718750,2.31
11:43:47.734375,7.41
11:43:47.750000,11.59
11:43:47.765625,14.72
11:43:47.781250,16.72
11:43:47.796875,17.63
11:43:47.812500,17.66
11:43:47.828125,17.15
11:43:47.843750,16.52
11:43:47.859375,16.08
11:43:47.875000,15.95
11:43:47.890625,16.05
11:43:47.906250,16.19
11:43:47.921875,16.15
11:43:47.937500,15.82
11:43:47.953125,15.27
11:43:47.968750,14.66
11:43:47.984375,14.12
11:43:48,13.70
11:43:48.015625,13.35
11:43:48.031250,12.91
11:43:48.046875,12.20
11:43:48.062500,11.08
11:43:48.078125,9.52
11:43:48.093750,7.54
11:43:48.109375,5.22
11:43:48.125000,2.65
11:43:48.140625,-0.06
11:43:48.156250,-2.78
11:43:48.171875,-5.43
11:43:48.187500,-7.97
11:43:48.203125,-10.46
11:43:48.218750,-13.04
11:43:48.234375,-15.86
11:43:48.250000,-19.04
11:43:48.265625,-22.55
11:43:48.281250,-26.19
11:43:48.296875,-29.59
11:43:48.312500,-32.29
11:43:48.328125,-33.80
11:43:48.343750,-33.73
11:43:48.359375,-31.88
11:43:48.375000,-28.30
11:43:48.390625,-23.25
11:43:48.406250,-17.21
11:43:48.421875,-10.73
11:43:48.437500,-4.37
11:43:48.453125,1.42
11:43:48.468750,6.33
11:43:48.484375,10.21
11:43:48.500000,13.04
11:43:48.515625,14.91
11:43:48.531250,16.01
11:43:48.546875,16.58
11:43:48.562500,16.83
11:43:48.578125,16.93
11:43:48.593750,17.00
11:43:48.609375,17.03
11:43:48.625000,16.97
11:43:48.640625,16.73
11:43:48.656250,16.24
11:43:48.671875,15.50
11:43:48.687500,14.62
11:43:48.703125,13.76
11:43:48.718750,13.08
11:43:48.734375,12.66
11:43:48.750000,12.45
11:43:48.765625,12.30
11:43:48.781250,11.95
11:43:48.796875,11.15
11:43:48.812500,9.77
11:43:48.828125,7.81
11:43:48.843750,5.43
11:43:48.859375,2.93
11:43:48.875000,0.54
11:43:48.890625,-1.66
11:43:48.906250,-3.76
11:43:48.921875,-5.98
11:43:48.937500,-8.54
11:43:48.953125,-11.60
11:43:48.968750,-15.20
11:43:48.984375,-19.23
11:43:49,-23.48
11:43:49.015625,-27.59
11:43:49.031250,-31.02
11:43:49.046875,-33.16
11:43:49.062500,-33.38
11:43:49.078125,-31.33
11:43:49.093750,-27.02
11:43:49.109375,-20.96
11:43:49.125000,-13.96
11:43:49.140625,-6.87
11:43:49.156250,-0.28
11:43:49.171875,5.50
11:43:49.187500,10.47
11:43:49.203125,14.69
11:43:49.218750,18.15
11:43:49.234375,20.73
11:43:49.250000,22.28
11:43:49.265625,22.78
11:43:49.281250,22.40
11:43:49.296875,21.52
11:43:49.312500,20.53
11:43:49.328125,19.75
11:43:49.343750,19.24
11:43:49.359375,18.86
11:43:49.375000,18.39
11:43:49.390625,17.66
11:43:49.406250,16.64
11:43:49.421875,15.49
11:43:49.437500,14.42
11:43:49.453125,13.54
11:43:49.468750,12.82
11:43:49.484375,12.01
11:43:49.500000,10.81
11:43:49.515625,8.98
11:43:49.531250,6.52
11:43:49.546875,3.63
11:43:49.562500,0.68
11:43:49.578125,-2.01
11:43:49.593750,-4.27
11:43:49.609375,-6.19
11:43:49.625000,-7.96
11:43:49.640625,-9.89
11:43:49.656250,-12.18
11:43:49.671875,-14.92
11:43:49.687500,-18.05
11:43:49.703125,-21.40
11:43:49.718750,-24.68
11:43:49.734375,-27.57
11:43:49.750000,-29.62
11:43:49.765625,-30.43
11:43:49.781250,-29.63
11:43:49.796875,-27.00
11:43:49.812500,-22.55
11:43:49.828125,-16.59
11:43:49.843750,-9.70
11:43:49.859375,-2.57
11:43:49.875000,4.09
11:43:49.890625,9.76
11:43:49.906250,14.21
11:43:49.921875,17.42
11:43:49.937500,19.56
11:43:49.953125,20.85
11:43:49.968750,21.51
11:43:49.984375,21.66
11:43:50,21.46
11:43:50.015625,21.04
11:43:50.031250,20.52
11:43:50.046875,20.00
11:43:50.062500,19.48
11:43:50.078125,18.94
11:43:50.093750,18.32
11:43:50.109375,17.61
11:43:50.125000,16.84
11:43:50.140625,16.09
11:43:50.156250,15.40
11:43:50.171875,14.78
11:43:50.187500,14.14
11:43:50.203125,13.33
11:43:50.218750,12.19
11:43:50.234375,10.63
11:43:50.250000,8.64
11:43:50.265625,6.31
11:43:50.281250,3.82
11:43:50.296875,1.34
11:43:50.312500,-1.06
11:43:50.328125,-3.34
11:43:50.343750,-5.59
11:43:50.359375,-7.98
11:43:50.375000,-10.65
11:43:50.390625,-13.72
11:43:50.406250,-17.22
11:43:50.421875,-21.02
11:43:50.437500,-24.82
11:43:50.453125,-28.16
11:43:50.468750,-30.46
11:43:50.484375,-31.17
11:43:50.500000,-29.94
11:43:50.515625,-26.70
11:43:50.531250,-21.73
11:43:50.546875,-15.54
11:43:50.562500,-8.79
11:43:50.578125,-2.15
11:43:50.593750,3.92
11:43:50.609375,9.13
11:43:50.625000,13.39
11:43:50.640625,16.70
11:43:50.656250,19.14
11:43:50.671875,20.74
11:43:50.687500,21.61
11:43:50.703125,21.92
11:43:50.718750,21.91
11:43:50.734375,21.85
11:43:50.750000,21.91
11:43:50.765625,22.08
11:43:50.781250,22.22
11:43:50.796875,22.12
11:43:50.812500,21.67
11:43:50.828125,20.93
11:43:50.843750,20.09
11:43:50.859375,19.39
11:43:50.875000,18.94
11:43:50.890625,18.70
11:43:50.906250,18.46
11:43:50.921875,17.98
11:43:50.937500,17.13
11:43:50.953125,15.85
11:43:50.968750,14.27
11:43:50.984375,12.52
11:43:51,10.72
11:43:51.015625,8.91
11:43:51.031250,7.08
11:43:51.046875,5.12
11:43:51.062500,2.81
11:43:51.078125,-0.22
11:43:51.093750,-4.46
11:43:51.109375,-10.34
11:43:51.125000,-17.96
11:43:51.140625,-26.88
11:43:51.156250,-36.06
11:43:51.171875,-44.08
11:43:51.187500,-49.64
11:43:51.203125,-51.89
11:43:51.218750,-50.75
11:43:51.234375,-46.78
11:43:51.250000,-40.93
11:43:51.265625,-34.11
11:43:51.281250,-27.03
11:43:51.296875,-20.12
11:43:51.312500,-13.71
11:43:51.328125,-8.08
11:43:51.343750,-3.52
11:43:51.359375,-0.17
11:43:51.375000,2.02
11:43:51.390625,3.29
11:43:51.406250,3.99
11:43:51.421875,4.43
11:43:51.437500,4.79
11:43:51.453125,5.10
11:43:51.468750,5.25
11:43:51.484375,5.11
11:43:51.500000,4.62
11:43:51.515625,3.80
11:43:51.531250,2.78
11:43:51.546875,1.72
11:43:51.562500,0.72
11:43:51.578125,-0.21
11:43:51.593750,-1.15
11:43:51.609375,-2.29
11:43:51.625000,-3.86
11:43:51.640625,-6.09
11:43:51.656250,-9.13
11:43:51.671875,-13.07
11:43:51.687500,-17.76
11:43:51.703125,-22.95
11:43:51.718750,-28.26
11:43:51.734375,-33.27
11:43:51.750000,-37.71
11:43:51.765625,-41.43
11:43:51.781250,-44.45
11:43:51.796875,-46.88
11:43:51.812500,-48.77
11:43:51.828125,-50.04
11:43:51.843750,-50.43
11:43:51.859375,-49.50
11:43:51.875000,-46.78
11:43:51.890625,-41.85
11:43:51.906250,-34.53
11:43:51.921875,-25.02
11:43:51.937500,-13.88
11:43:51.953125,-2.01
11:43:51.968750,9.64
11:43:51.984375,20.26
11:43:52,29.40
11:43:52.015625,36.92
11:43:52.031250,42.89
11:43:52.046875,47.39
11:43:52.062500,50.42
11:43:52.078125,51.96
11:43:52.093750,52.06
11:43:52.109375,50.96
11:43:52.125000,49.11
11:43:52.140625,47.01
11:43:52.156250,45.00
11:43:52.171875,43.20
11:43:52.187500,41.51
11:43:52.203125,39.66
11:43:52.218750,37.45
11:43:52.234375,34.83
11:43:52.250000,31.90
11:43:52.265625,28.91
11:43:52.281250,26.08
11:43:52.296875,23.58
11:43:52.312500,21.42
11:43:52.328125,19.43
11:43:52.343750,17.34
11:43:52.359375,14.92
11:43:52.375000,11.99
11:43:52.390625,8.65
11:43:52.406250,5.11
11:43:52.421875,1.67
11:43:52.437500,-1.46
11:43:52.453125,-4.26
11:43:52.468750,-6.90
11:43:52.484375,-9.67
11:43:52.500000,-12.81
11:43:52.515625,-16.34
11:43:52.531250,-20.05
11:43:52.546875,-23.51
11:43:52.562500,-26.20
11:43:52.578125,-27.62
11:43:52.593750,-27.41
11:43:52.609375,-25.41
11:43:52.625000,-21.70
11:43:52.640625,-16.58
11:43:52.656250,-10.57
11:43:52.671875,-4.30
11:43:52.687500,1.59
11:43:52.703125,6.55
11:43:52.718750,10.26
11:43:52.734375,12.64
11:43:52.750000,13.87
11:43:52.765625,14.32
11:43:52.781250,14.41
11:43:52.796875,14.46
11:43:52.812500,14.64
11:43:52.828125,14.93
11:43:52.843750,15.17
11:43:52.859375,15.15
11:43:52.875000,14.75
11:43:52.890625,13.96
11:43:52.906250,12.93
11:43:52.921875,11.87
11:43:52.937500,11.02
11:43:52.953125,10.56
11:43:52.968750,10.49
11:43:52.984375,10.69
11:43:53,10.85
11:43:53.015625,10.60
11:43:53.031250,9.61
11:43:53.046875,7.75
11:43:53.062500,5.16
11:43:53.078125,2.28
11:43:53.093750,-0.40
11:43:53.109375,-2.42
11:43:53.125000,-3.65
11:43:53.140625,-4.24
11:43:53.156250,-4.62
11:43:53.171875,-5.23
11:43:53.187500,-6.42
11:43:53.203125,-8.24
11:43:53.218750,-10.49
11:43:53.234375,-12.76
11:43:53.250000,-14.59
11:43:53.265625,-15.57
11:43:53.281250,-15.42
11:43:53.296875,-14.05
11:43:53.312500,-11.52
11:43:53.328125,-8.02
11:43:53.343750,-3.86
11:43:53.359375,0.61
11:43:53.375000,5.07
11:43:53.390625,9.20
11:43:53.406250,12.80
11:43:53.421875,15.67
11:43:53.437500,17.71
11:43:53.453125,18.92
11:43:53.468750,19.36
11:43:53.484375,19.16
11:43:53.500000,18.52
11:43:53.515625,17.60
11:43:53.531250,16.59
11:43:53.546875,15.59
11:43:53.562500,14.65
11:43:53.578125,13.82
11:43:53.593750,13.13
11:43:53.609375,12.61
11:43:53.625000,12.24
11:43:53.640625,11.95
11:43:53.656250,11.58
11:43:53.671875,10.96
11:43:53.687500,9.96
11:43:53.703125,8.59
11:43:53.718750,7.04
11:43:53.734375,5.51
11:43:53.750000,4.14
11:43:53.765625,2.93
11:43:53.781250,1.72
11:43:53.796875,0.32
11:43:53.812500,-1.39
11:43:53.828125,-3.37
11:43:53.843750,-5.50
11:43:53.859375,-7.69
11:43:53.875000,-9.90
11:43:53.890625,-12.24
11:43:53.906250,-14.77
11:43:53.921875,-17.51
11:43:53.937500,-20.33
11:43:53.953125,-22.92
11:43:53.968750,-24.93
11:43:53.984375,-26.02
11:43:54,-25.95
11:43:54.015625,-24.61
11:43:54.031250,-22.05
11:43:54.046875,-18.44
11:43:54.062500,-14.06
11:43:54.078125,-9.27
11:43:54.093750,-4.41
11:43:54.109375,0.17
11:43:54.125000,4.18
11:43:54.140625,7.43
11:43:54.156250,9.82
11:43:54.171875,11.39
11:43:54.187500,12.26
11:43:54.203125,12.66
11:43:54.218750,12.80
11:43:54.234375,12.79
11:43:54.250000,12.65
11:43:54.265625,12.36
11:43:54.281250,11.87
11:43:54.296875,11.25
11:43:54.312500,10.63
11:43:54.328125,10.15
11:43:54.343750,9.86
11:43:54.359375,9.69
11:43:54.375000,9.46
11:43:54.390625,9.04
11:43:54.406250,8.41
11:43:54.421875,7.69
11:43:54.437500,7.06
11:43:54.453125,6.54
11:43:54.468750,5.99
11:43:54.484375,5.11
11:43:54.500000,3.61
11:43:54.515625,1.46
11:43:54.531250,-1.09
11:43:54.546875,-3.64
11:43:54.562500,-5.78
11:43:54.578125,-7.37
11:43:54.593750,-8.52
11:43:54.609375,-9.58
11:43:54.625000,-10.87
11:43:54.640625,-12.61
11:43:54.656250,-14.77
11:43:54.671875,-17.14
11:43:54.687500,-19.38
11:43:54.703125,-21.15
11:43:54.718750,-22.14
11:43:54.734375,-22.13
11:43:54.750000,-21.02
11:43:54.765625,-18.86
11:43:54.781250,-15.86
11:43:54.796875,-12.35
11:43:54.812500,-8.68
11:43:54.828125,-5.20
11:43:54.843750,-2.11
11:43:54.859375,0.49
11:43:54.875000,2.60
11:43:54.890625,4.27
11:43:54.906250,5.51
11:43:54.921875,6.32
11:43:54.937500,6.64
11:43:54.953125,6.50
11:43:54.968750,5.97
11:43:54.984375,5.24
11:43:55,4.54
11:43:55.015625,4.09
11:43:55.031250,3.98
11:43:55.046875,4.12
11:43:55.062500,4.31
11:43:55.078125,4.35
11:43:55.093750,4.07
11:43:55.109375,3.52
11:43:55.125000,2.81
11:43:55.140625,2.07
11:43:55.156250,1.37
11:43:55.171875,0.70
11:43:55.187500,-0.01
11:43:55.203125,-0.79
11:43:55.218750,-1.64
11:43:55.234375,-2.51
11:43:55.250000,-3.32
11:43:55.265625,-4.06
11:43:55.281250,-4.77
11:43:55.296875,-5.52
11:43:55.312500,-6.38
11:43:55.328125,-7.44
11:43:55.343750,-8.81
11:43:55.359375,-10.52
11:43:55.375000,-12.55
11:43:55.390625,-14.67
11:43:55.406250,-16.56
11:43:55.421875,-17.80
11:43:55.437500,-18.08
11:43:55.453125,-17.32
11:43:55.468750,-15.65
11:43:55.484375,-13.35
11:43:55.500000,-10.71
11:43:55.515625,-7.89
11:43:55.531250,-4.96
11:43:55.546875,-2.00
11:43:55.562500,0.88
11:43:55.578125,3.44
11:43:55.593750,5.47
11:43:55.609375,6.87
11:43:55.625000,7.67
11:43:55.640625,8.04
11:43:55.656250,8.14
11:43:55.671875,8.10
11:43:55.687500,7.95
11:43:55.703125,7.71
11:43:55.718750,7.45
11:43:55.734375,7.29
11:43:55.750000,7.30
11:43:55.765625,7.49
11:43:55.781250,7.71
11:43:55.796875,7.80
11:43:55.812500,7.60
11:43:55.828125,7.07
11:43:55.843750,6.26
11:43:55.859375,5.28
11:43:55.875000,4.28
11:43:55.890625,3.40
11:43:55.906250,2.72
11:43:55.921875,2.29
11:43:55.937500,2.03
11:43:55.953125,1.78
11:43:55.968750,1.37
11:43:55.984375,0.67
11:43:56,-0.33
11:43:56.015625,-1.45
11:43:56.031250,-2.52
11:43:56.046875,-3.44
11:43:56.062500,-4.27
11:43:56.078125,-5.19
11:43:56.093750,-6.38
11:43:56.109375,-7.97
11:43:56.125000,-9.91
11:43:56.140625,-12.11
11:43:56.156250,-14.37
11:43:56.171875,-16.45
11:43:56.187500,-18.03
11:43:56.203125,-18.78
11:43:56.218750,-18.41
11:43:56.234375,-16.80
11:43:56.250000,-14.15
11:43:56.265625,-10.90
11:43:56.281250,-7.57
11:43:56.296875,-4.61
11:43:56.312500,-2.17
11:43:56.328125,-0.20
11:43:56.343750,1.50
11:43:56.359375,3.08
11:43:56.375000,4.55
11:43:56.390625,5.80
11:43:56.406250,6.68
11:43:56.421875,7.10
11:43:56.437500,7.05
11:43:56.453125,6.64
11:43:56.468750,6.02
11:43:56.484375,5.33
11:43:56.500000,4.71
11:43:56.515625,4.26
11:43:56.531250,4.03
11:43:56.546875,4.04
11:43:56.562500,4.23
11:43:56.578125,4.50
11:43:56.593750,4.73
11:43:56.609375,4.81
11:43:56.625000,4.68
11:43:56.640625,4.32
11:43:56.656250,3.74
11:43:56.671875,2.97
11:43:56.687500,2.06
11:43:56.703125,1.08
11:43:56.718750,0.10
11:43:56.734375,-0.81
11:43:56.750000,-1.57
11:43:56.765625,-2.15
11:43:56.781250,-2.59
11:43:56.796875,-3.00
11:43:56.812500,-3.57
11:43:56.828125,-4.51
11:43:56.843750,-5.96
11:43:56.859375,-7.93
11:43:56.875000,-10.26
11:43:56.890625,-12.65
11:43:56.906250,-14.82
11:43:56.921875,-16.56
11:43:56.937500,-17.76
11:43:56.953125,-18.46
11:43:56.968750,-18.64
11:43:56.984375,-18.25
11:43:57,-17.16
11:43:57.015625,-15.26
11:43:57.031250,-12.60
11:43:57.046875,-9.45
11:43:57.062500,-6.20
11:43:57.078125,-3.22
11:43:57.093750,-0.72
11:43:57.109375,1.30
11:43:57.125000,3.00
11:43:57.140625,4.52
11:43:57.156250,5.88
11:43:57.171875,6.99
11:43:57.187500,7.70
11:43:57.203125,7.95
11:43:57.218750,7.76
11:43:57.234375,7.27
11:43:57.250000,6.66
11:43:57.265625,6.07
11:43:57.281250,5.58
11:43:57.296875,5.23
11:43:57.312500,5.02
11:43:57.328125,4.91
11:43:57.343750,4.82
11:43:57.359375,4.65
11:43:57.375000,4.33
11:43:57.390625,3.87
11:43:57.406250,3.31
11:43:57.421875,2.71
11:43:57.437500,2.08
11:43:57.453125,1.39
11:43:57.468750,0.56
11:43:57.484375,-0.45
11:43:57.500000,-1.62
11:43:57.515625,-2.86
11:43:57.531250,-4.06
11:43:57.546875,-5.15
11:43:57.562500,-6.10
11:43:57.578125,-6.92
11:43:57.593750,-7.68
11:43:57.609375,-8.47
11:43:57.625000,-9.40
11:43:57.640625,-10.67
11:43:57.656250,-12.39
11:43:57.671875,-14.55
11:43:57.687500,-17.00
11:43:57.703125,-19.42
11:43:57.718750,-21.40
11:43:57.734375,-22.57
11:43:57.750000,-22.63
11:43:57.765625,-21.47
11:43:57.781250,-19.15
11:43:57.796875,-15.91
11:43:57.812500,-12.13
11:43:57.828125,-8.28
11:43:57.843750,-4.78
11:43:57.859375,-1.94
11:43:57.875000,0.19
11:43:57.890625,1.71
11:43:57.906250,2.84
11:43:57.921875,3.74
11:43:57.937500,4.48
11:43:57.953125,4.98
11:43:57.968750,5.15
11:43:57.984375,4.93
11:43:58,4.40
11:43:58.015625,3.72
11:43:58.031250,3.10
11:43:58.046875,2.69
11:43:58.062500,2.52
11:43:58.078125,2.54
11:43:58.093750,2.64
11:43:58.109375,2.70
11:43:58.125000,2.63
11:43:58.140625,2.39
11:43:58.156250,1.92
11:43:58.171875,1.23
11:43:58.187500,0.35
11:43:58.203125,-0.64
11:43:58.218750,-1.61
11:43:58.234375,-2.41
11:43:58.250000,-3.00
11:43:58.265625,-3.42
11:43:58.281250,-3.81
11:43:58.296875,-4.42
11:43:58.312500,-5.42
11:43:58.328125,-6.85
11:43:58.343750,-8.60
11:43:58.359375,-10.44
11:43:58.375000,-12.11
11:43:58.390625,-13.44
11:43:58.406250,-14.39
11:43:58.421875,-15.02
11:43:58.437500,-15.42
11:43:58.453125,-15.61
11:43:58.468750,-15.50
11:43:58.484375,-14.89
11:43:58.500000,-13.63
11:43:58.515625,-11.65
11:43:58.531250,-9.10
11:43:58.546875,-6.25
11:43:58.562500,-3.41
11:43:58.578125,-0.81
11:43:58.593750,1.45
11:43:58.609375,3.35
11:43:58.625000,4.90
11:43:58.640625,6.08
11:43:58.656250,6.88
11:43:58.671875,7.26
11:43:58.687500,7.28
11:43:58.703125,7.07
11:43:58.718750,6.78
11:43:58.734375,6.56
11:43:58.750000,6.50
11:43:58.765625,6.56
11:43:58.781250,6.64
11:43:58.796875,6.64
11:43:58.812500,6.45
11:43:58.828125,6.02
11:43:58.843750,5.37
11:43:58.859375,4.57
11:43:58.875000,3.72
11:43:58.890625,2.92
11:43:58.906250,2.22
11:43:58.921875,1.60
11:43:58.937500,1.05
11:43:58.953125,0.47
11:43:58.968750,-0.18
11:43:58.984375,-1.00
11:43:59,-2.03
11:43:59.015625,-3.37
11:43:59.031250,-5.02
11:43:59.046875,-6.95
11:43:59.062500,-9.02
11:43:59.078125,-11.02
11:43:59.093750,-12.79
11:43:59.109375,-14.27
11:43:59.125000,-15.49
11:43:59.140625,-16.62
11:43:59.156250,-17.78
11:43:59.171875,-18.93
11:43:59.187500,-19.87
11:43:59.203125,-20.25
11:43:59.218750,-19.76
11:43:59.234375,-18.22
11:43:59.250000,-15.69
11:43:59.265625,-12.40
11:43:59.281250,-8.72
11:43:59.296875,-4.93
11:43:59.312500,-1.27
11:43:59.328125,2.14
11:43:59.343750,5.20
11:43:59.359375,7.79
11:43:59.375000,9.73
11:43:59.390625,10.86
11:43:59.406250,11.13
11:43:59.421875,10.67
11:43:59.437500,9.79
11:43:59.453125,8.95
11:43:59.468750,8.53
11:43:59.484375,8.74
11:43:59.500000,9.44
11:43:59.515625,10.28
11:43:59.531250,10.85
11:43:59.546875,10.93
11:43:59.562500,10.53
11:43:59.578125,9.92
11:43:59.593750,9.41
11:43:59.609375,9.14
11:43:59.625000,9.04
11:43:59.640625,8.90
11:43:59.656250,8.48
11:43:59.671875,7.67
11:43:59.687500,6.54
11:43:59.703125,5.24
11:43:59.718750,3.87
11:43:59.734375,2.44
11:43:59.750000,0.87
11:43:59.765625,-0.93
11:43:59.781250,-2.97
11:43:59.796875,-5.24
11:43:59.812500,-7.68
11:43:59.828125,-10.27
11:43:59.843750,-12.99
11:43:59.859375,-15.72
11:43:59.875000,-18.25
11:43:59.890625,-20.26
11:43:59.906250,-21.37
11:43:59.921875,-21.30
11:43:59.937500,-19.91
11:43:59.953125,-17.32
11:43:59.968750,-13.80
11:43:59.984375,-9.74
11:44:00,-5.56
11:44:00.015625,-1.61
11:44:00.031250,1.84
11:44:00.046875,4.64
11:44:00.062500,6.80
11:44:00.078125,8.40
11:44:00.093750,9.59
11:44:00.109375,10.49
11:44:00.125000,11.14
11:44:00.140625,11.55
11:44:00.156250,11.70
11:44:00.171875,11.62
11:44:00.187500,11.45
11:44:00.203125,11.33
11:44:00.218750,11.39
11:44:00.234375,11.62
11:44:00.250000,11.92
11:44:00.265625,12.12
11:44:00.281250,12.13
11:44:00.296875,11.91
11:44:00.312500,11.54
11:44:00.328125,11.03
11:44:00.343750,10.34
11:44:00.359375,9.33
11:44:00.375000,7.87
11:44:00.390625,5.90
11:44:00.406250,3.55
11:44:00.421875,1.02
11:44:00.437500,-1.51
11:44:00.453125,-3.94
11:44:00.468750,-6.32
11:44:00.484375,-8.72
11:44:00.500000,-11.22
11:44:00.515625,-13.81
11:44:00.531250,-16.49
11:44:00.546875,-19.25
11:44:00.562500,-22.17
11:44:00.578125,-25.33
11:44:00.593750,-28.72
11:44:00.609375,-32.12
11:44:00.625000,-35.13
11:44:00.640625,-37.25
11:44:00.656250,-38.08
11:44:00.671875,-37.47
11:44:00.687500,-35.58
11:44:00.703125,-32.86
11:44:00.718750,-29.86
11:44:00.734375,-27.04
11:44:00.750000,-24.70
11:44:00.765625,-22.91
11:44:00.781250,-21.54
11:44:00.796875,-20.36
11:44:00.812500,-19.16
11:44:00.828125,-17.76
11:44:00.843750,-16.03
11:44:00.859375,-13.87
11:44:00.875000,-11.15
11:44:00.890625,-7.69
11:44:00.906250,-3.35
11:44:00.921875,1.92
11:44:00.937500,8.04
11:44:00.953125,14.72
11:44:00.968750,21.54
11:44:00.984375,28.09
11:44:01,33.99
11:44:01.015625,39.02
11:44:01.031250,43.11
11:44:01.046875,46.23
11:44:01.062500,48.37
11:44:01.078125,49.55
11:44:01.093750,49.69
11:44:01.109375,48.77
11:44:01.125000,46.82
11:44:01.140625,43.94
11:44:01.156250,40.38
11:44:01.171875,36.43
11:44:01.187500,32.34
11:44:01.203125,28.29
11:44:01.218750,24.40
11:44:01.234375,20.66
11:44:01.250000,16.99
11:44:01.265625,13.27
11:44:01.281250,9.39
11:44:01.296875,5.30
11:44:01.312500,1.10
11:44:01.328125,-2.94
11:44:01.343750,-6.41
11:44:01.359375,-8.88
11:44:01.375000,-10.06
11:44:01.390625,-9.84
11:44:01.406250,-8.42
11:44:01.421875,-6.10
11:44:01.437500,-3.23
11:44:01.453125,-0.02
11:44:01.468750,3.39
11:44:01.484375,6.91
11:44:01.500000,10.36
11:44:01.515625,13.42
11:44:01.531250,15.76
11:44:01.546875,17.12
11:44:01.562500,17.49
11:44:01.578125,17.09
11:44:01.593750,16.31
11:44:01.609375,15.59
11:44:01.625000,15.19
11:44:01.640625,15.19
11:44:01.656250,15.43
11:44:01.671875,15.64
11:44:01.687500,15.54
11:44:01.703125,14.97
11:44:01.718750,13.90
11:44:01.734375,12.48
11:44:01.750000,10.88
11:44:01.765625,9.34
11:44:01.781250,8.06
11:44:01.796875,7.18
11:44:01.812500,6.76
11:44:01.828125,6.75
11:44:01.843750,6.93
11:44:01.859375,6.98
11:44:01.875000,6.58
11:44:01.890625,5.54
11:44:01.906250,3.87
11:44:01.921875,1.80
11:44:01.937500,-0.41
11:44:01.953125,-2.54
11:44:01.968750,-4.55
11:44:01.984375,-6.55
11:44:02,-8.66
11:44:02.015625,-10.93
11:44:02.031250,-13.24
11:44:02.046875,-15.28
11:44:02.062500,-16.68
11:44:02.078125,-17.06
11:44:02.093750,-16.20
11:44:02.109375,-14.06
11:44:02.125000,-10.84
11:44:02.140625,-6.92
11:44:02.156250,-2.79
11:44:02.171875,1.14
11:44:02.187500,4.60
11:44:02.203125,7.51
11:44:02.218750,9.90
11:44:02.234375,11.81
11:44:02.250000,13.22
11:44:02.265625,14.12
11:44:02.281250,14.49
11:44:02.296875,14.42
11:44:02.312500,14.05
11:44:02.328125,13.52
11:44:02.343750,12.89
11:44:02.359375,12.17
11:44:02.375000,11.34
11:44:02.390625,10.41
11:44:02.406250,9.51
11:44:02.421875,8.80
11:44:02.437500,8.39
11:44:02.453125,8.25
11:44:02.468750,8.25
11:44:02.484375,8.13
11:44:02.500000,7.69
11:44:02.515625,6.82
11:44:02.531250,5.57
11:44:02.546875,4.08
11:44:02.562500,2.49
11:44:02.578125,0.94
11:44:02.593750,-0.54
11:44:02.609375,-1.97
11:44:02.625000,-3.40
11:44:02.640625,-4.82
11:44:02.656250,-6.23
11:44:02.671875,-7.62
11:44:02.687500,-9.01
11:44:02.703125,-10.42
11:44:02.718750,-11.86
11:44:02.734375,-13.26
11:44:02.750000,-14.40
11:44:02.765625,-15.02
11:44:02.781250,-14.83
11:44:02.796875,-13.62
11:44:02.812500,-11.41
11:44:02.828125,-8.36
11:44:02.843750,-4.80
11:44:02.859375,-1.04
11:44:02.875000,2.67
11:44:02.890625,6.21
11:44:02.906250,9.54
11:44:02.921875,12.66
11:44:02.937500,15.54
11:44:02.953125,18.09
11:44:02.968750,20.12
11:44:02.984375,21.49
11:44:03,22.07
11:44:03.015625,21.86
11:44:03.031250,20.99
11:44:03.046875,19.72
11:44:03.062500,18.30
11:44:03.078125,16.95
11:44:03.093750,15.80
11:44:03.109375,14.87
11:44:03.125000,14.18
11:44:03.140625,13.69
11:44:03.156250,13.38
11:44:03.171875,13.12
11:44:03.187500,12.74
11:44:03.203125,12.04
11:44:03.218750,10.82
11:44:03.234375,9.11
11:44:03.250000,7.09
11:44:03.265625,5.08
11:44:03.281250,3.34
11:44:03.296875,1.94
11:44:03.312500,0.75
11:44:03.328125,-0.52
11:44:03.343750,-2.05
11:44:03.359375,-3.87
11:44:03.375000,-5.83
11:44:03.390625,-7.70
11:44:03.406250,-9.34
11:44:03.421875,-10.76
11:44:03.437500,-12.11
11:44:03.453125,-13.60
11:44:03.468750,-15.33
11:44:03.484375,-17.28
11:44:03.500000,-19.25
11:44:03.515625,-20.94
11:44:03.531250,-22.06
11:44:03.546875,-22.33
11:44:03.562500,-21.66
11:44:03.578125,-20.00
11:44:03.593750,-17.44
11:44:03.609375,-14.10
11:44:03.625000,-10.20
11:44:03.640625,-6.01
11:44:03.656250,-1.91
11:44:03.671875,1.69
11:44:03.687500,4.39
11:44:03.703125,5.96
11:44:03.718750,6.41
11:44:03.734375,6.02
11:44:03.750000,5.28
11:44:03.765625,4.68
11:44:03.781250,4.55
11:44:03.796875,4.93
11:44:03.812500,5.66
11:44:03.828125,6.38
11:44:03.843750,6.85
11:44:03.859375,6.92
11:44:03.875000,6.59
11:44:03.890625,6.01
11:44:03.906250,5.34
11:44:03.921875,4.79
11:44:03.937500,4.50
11:44:03.953125,4.56
11:44:03.968750,4.89
11:44:03.984375,5.22
11:44:04,5.15
11:44:04.015625,4.31
11:44:04.031250,2.59
11:44:04.046875,0.18
11:44:04.062500,-2.42
11:44:04.078125,-4.69
11:44:04.093750,-6.34
11:44:04.109375,-7.41
11:44:04.125000,-8.19
11:44:04.140625,-9.06
11:44:04.156250,-10.28
11:44:04.171875,-11.93
11:44:04.187500,-13.95
11:44:04.203125,-16.30
11:44:04.218750,-18.85
11:44:04.234375,-21.42
11:44:04.250000,-23.68
11:44:04.265625,-25.18
11:44:04.281250,-25.41
11:44:04.296875,-24.08
11:44:04.312500,-21.16
11:44:04.328125,-16.96
11:44:04.343750,-12.03
11:44:04.359375,-6.99
11:44:04.375000,-2.41
11:44:04.390625,1.36
11:44:04.406250,4.21
11:44:04.421875,6.23
11:44:04.437500,7.55
11:44:04.453125,8.33
11:44:04.468750,8.60
11:44:04.484375,8.35
11:44:04.500000,7.62
11:44:04.515625,6.58
11:44:04.531250,5.54
11:44:04.546875,4.88
11:44:04.562500,4.82
11:44:04.578125,5.32
11:44:04.593750,6.13
11:44:04.609375,6.84
11:44:04.625000,7.19
11:44:04.640625,7.10
11:44:04.656250,6.71
11:44:04.671875,6.23
11:44:04.687500,5.79
11:44:04.703125,5.37
11:44:04.718750,4.83
11:44:04.734375,4.02
11:44:04.750000,2.82
11:44:04.765625,1.23
11:44:04.781250,-0.62
11:44:04.796875,-2.55
11:44:04.812500,-4.40
11:44:04.828125,-6.09
11:44:04.843750,-7.70
11:44:04.859375,-9.44
11:44:04.875000,-11.53
11:44:04.890625,-14.13
11:44:04.906250,-17.14
11:44:04.921875,-20.23
11:44:04.937500,-22.89
11:44:04.953125,-24.62
11:44:04.968750,-25.09
11:44:04.984375,-24.20
11:44:05,-22.06
11:44:05.015625,-18.86
11:44:05.031250,-14.84
11:44:05.046875,-10.25
11:44:05.062500,-5.41
11:44:05.078125,-0.69
11:44:05.093750,3.55
11:44:05.109375,7.00
11:44:05.125000,9.55
11:44:05.140625,11.23
11:44:05.156250,12.24
11:44:05.171875,12.88
11:44:05.187500,13.45
11:44:05.203125,14.22
11:44:05.218750,15.32
11:44:05.234375,16.71
11:44:05.250000,18.19
11:44:05.265625,19.43
11:44:05.281250,20.14
11:44:05.296875,20.23
11:44:05.312500,19.87
11:44:05.328125,19.47
11:44:05.343750,19.53
11:44:05.359375,20.36
11:44:05.375000,21.96
11:44:05.390625,23.95
11:44:05.406250,25.76
11:44:05.421875,26.87
11:44:05.437500,27.12
11:44:05.453125,26.80
11:44:05.468750,26.55
11:44:05.484375,27.01
11:44:05.500000,28.39
11:44:05.515625,30.21
11:44:05.531250,31.29
11:44:05.546875,30.19
11:44:05.562500,25.78
11:44:05.578125,17.83
11:44:05.593750,7.27
11:44:05.609375,-3.99
11:44:05.625000,-13.71
11:44:05.640625,-19.96
11:44:05.656250,-21.71
11:44:05.671875,-19.00
11:44:05.687500,-12.67
11:44:05.703125,-3.98
11:44:05.718750,5.76
11:44:05.734375,15.29
11:44:05.750000,23.43
11:44:05.765625,29.03
11:44:05.781250,31.18
11:44:05.796875,29.63
11:44:05.812500,25.00
11:44:05.828125,18.67
11:44:05.843750,12.21
11:44:05.859375,6.68
11:44:05.875000,2.47
11:44:05.890625,-0.29
11:44:05.906250,-1.09
11:44:05.921875,1.22
11:44:05.937500,7.85
11:44:05.953125,18.70
11:44:05.968750,31.29
11:44:05.984375,40.99
11:44:06,42.74
11:44:06.015625,33.73
11:44:06.031250,15.24
11:44:06.046875,-7.37
11:44:06.062500,-26.81
11:44:06.078125,-37.03
11:44:06.093750,-35.56
11:44:06.109375,-24.19
11:44:06.125000,-7.66
11:44:06.140625,8.44
11:44:06.156250,19.60
11:44:06.171875,23.32
11:44:06.187500,19.27
11:44:06.203125,8.95
11:44:06.218750,-5.00
11:44:06.234375,-19.66
11:44:06.250000,-32.64
11:44:06.265625,-42.78
11:44:06.281250,-50.28
11:44:06.296875,-56.24
11:44:06.312500,-61.87
11:44:06.328125,-67.78
11:44:06.343750,-73.96
11:44:06.359375,-80.11
11:44:06.375000,-86.09
11:44:06.390625,-91.86
11:44:06.406250,-97.16
11:44:06.421875,-101.12
11:44:06.437500,-102.48
11:44:06.453125,-100.23
11:44:06.468750,-94.39
11:44:06.484375,-86.11
11:44:06.500000,-77.17
11:44:06.515625,-69.04
11:44:06.531250,-62.21
11:44:06.546875,-56.21
11:44:06.562500,-50.24
11:44:06.578125,-43.74
11:44:06.593750,-36.57
11:44:06.609375,-28.75
11:44:06.625000,-20.15
11:44:06.640625,-10.47
11:44:06.656250,0.24
11:44:06.671875,11.19
11:44:06.687500,20.80
11:44:06.703125,27.39
11:44:06.718750,30.16
11:44:06.734375,29.87
11:44:06.750000,28.56
11:44:06.765625,28.67
11:44:06.781250,31.71
11:44:06.796875,37.60
11:44:06.812500,44.72
11:44:06.828125,50.80
11:44:06.843750,54.07
11:44:06.859375,53.88
11:44:06.875000,50.87
11:44:06.890625,46.38
11:44:06.906250,41.87
11:44:06.921875,38.38
11:44:06.937500,36.39
11:44:06.953125,35.91
11:44:06.968750,36.64
11:44:06.984375,38.20
11:44:07,40.18
11:44:07.015625,42.17
11:44:07.031250,43.82
11:44:07.046875,44.85
11:44:07.062500,45.12
11:44:07.078125,44.58
11:44:07.093750,43.31
11:44:07.109375,41.38
11:44:07.125000,38.92
11:44:07.140625,36.00
11:44:07.156250,32.72
11:44:07.171875,29.15
11:44:07.187500,25.37
11:44:07.203125,21.40
11:44:07.218750,17.30
11:44:07.234375,13.16
11:44:07.250000,9.16
11:44:07.265625,5.51
11:44:07.281250,2.33
11:44:07.296875,-0.38
11:44:07.312500,-2.83
11:44:07.328125,-5.23
11:44:07.343750,-7.68
11:44:07.359375,-10.03
11:44:07.375000,-11.98
11:44:07.390625,-13.26
11:44:07.406250,-13.83
11:44:07.421875,-13.99
11:44:07.437500,-14.27
11:44:07.453125,-15.21
11:44:07.468750,-17.09
11:44:07.484375,-19.82
11:44:07.500000,-23.00
11:44:07.515625,-26.06
11:44:07.531250,-28.49
11:44:07.546875,-29.86
11:44:07.562500,-29.93
11:44:07.578125,-28.65
11:44:07.593750,-26.14
11:44:07.609375,-22.70
11:44:07.625000,-18.71
11:44:07.640625,-14.60
11:44:07.656250,-10.68
11:44:07.671875,-7.06
11:44:07.687500,-3.54
11:44:07.703125,0.22
11:44:07.718750,4.59
11:44:07.734375,9.70
11:44:07.750000,15.22
11:44:07.765625,20.45
11:44:07.781250,24.46
11:44:07.796875,26.54
11:44:07.812500,26.49
11:44:07.828125,24.74
11:44:07.843750,22.18
11:44:07.859375,19.65
11:44:07.875000,17.65
11:44:07.890625,16.16
11:44:07.906250,14.77
11:44:07.921875,13.05
11:44:07.937500,10.84
11:44:07.953125,8.32
11:44:07.968750,5.80
11:44:07.984375,3.45
11:44:08,1.23
11:44:08.015625,-1.14
11:44:08.031250,-3.88
11:44:08.046875,-7.04
11:44:08.062500,-10.38
11:44:08.078125,-13.54
11:44:08.093750,-16.26
11:44:08.109375,-18.43
11:44:08.125000,-20.11
11:44:08.140625,-21.34
11:44:08.156250,-22.05
11:44:08.171875,-21.95
11:44:08.187500,-20.75
11:44:08.203125,-18.29
11:44:08.218750,-14.64
11:44:08.234375,-10.18
11:44:08.250000,-5.42
11:44:08.265625,-0.88
11:44:08.281250,3.08
11:44:08.296875,6.28
11:44:08.312500,8.70
11:44:08.328125,10.41
11:44:08.343750,11.52
11:44:08.359375,12.13
11:44:08.375000,12.35
11:44:08.390625,12.24
11:44:08.406250,11.85
11:44:08.421875,11.21
11:44:08.437500,10.31
11:44:08.453125,9.19
11:44:08.468750,7.90
11:44:08.484375,6.53
11:44:08.500000,5.15
11:44:08.515625,3.78
11:44:08.531250,2.38
11:44:08.546875,0.90
11:44:08.562500,-0.68
11:44:08.578125,-2.32
11:44:08.593750,-3.95
11:44:08.609375,-5.52
11:44:08.625000,-7.04
11:44:08.640625,-8.69
11:44:08.656250,-10.66
11:44:08.671875,-13.09
11:44:08.687500,-15.97
11:44:08.703125,-19.02
11:44:08.718750,-21.80
11:44:08.734375,-23.79
11:44:08.750000,-24.56
11:44:08.765625,-23.88
11:44:08.781250,-21.82
11:44:08.796875,-18.69
11:44:08.812500,-14.95
11:44:08.828125,-11.04
11:44:08.843750,-7.31
11:44:08.859375,-3.91
11:44:08.875000,-0.87
11:44:08.890625,1.84
11:44:08.906250,4.22
11:44:08.921875,6.19
11:44:08.937500,7.60
11:44:08.953125,8.33
11:44:08.968750,8.34
11:44:08.984375,7.72
11:44:09,6.66
11:44:09.015625,5.46
11:44:09.031250,4.40
11:44:09.046875,3.75
11:44:09.062500,3.72
11:44:09.078125,4.45
11:44:09.093750,5.95
11:44:09.109375,8.11
11:44:09.125000,10.60
11:44:09.140625,12.98
11:44:09.156250,14.76
11:44:09.171875,15.55
11:44:09.187500,15.20
11:44:09.203125,13.83
11:44:09.218750,11.76
11:44:09.234375,9.32
11:44:09.250000,6.67
11:44:09.265625,3.79
11:44:09.281250,0.53
11:44:09.296875,-3.20
11:44:09.312500,-7.26
11:44:09.328125,-11.29
11:44:09.343750,-14.75
11:44:09.359375,-17.09
11:44:09.375000,-17.96
11:44:09.390625,-17.27
11:44:09.406250,-15.17
11:44:09.421875,-11.97
11:44:09.437500,-8.04
11:44:09.453125,-3.76
11:44:09.468750,0.53
11:44:09.484375,4.53
11:44:09.500000,7.97
11:44:09.515625,10.69
11:44:09.531250,12.62
11:44:09.546875,13.76
11:44:09.562500,14.22
11:44:09.578125,14.11
11:44:09.593750,13.59
11:44:09.609375,12.84
11:44:09.625000,12.03
11:44:09.640625,11.29
11:44:09.656250,10.70
11:44:09.671875,10.25
11:44:09.687500,9.91
11:44:09.703125,9.63
11:44:09.718750,9.36
11:44:09.734375,9.06
11:44:09.750000,8.67
11:44:09.765625,8.10
11:44:09.781250,7.21
11:44:09.796875,5.95
11:44:09.812500,4.36
11:44:09.828125,2.59
11:44:09.843750,0.86
11:44:09.859375,-0.61
11:44:09.875000,-1.76
11:44:09.890625,-2.69
11:44:09.906250,-3.63
11:44:09.921875,-4.82
11:44:09.937500,-6.41
11:44:09.953125,-8.42
11:44:09.968750,-10.69
11:44:09.984375,-12.94
11:44:10,-14.85
11:44:10.015625,-16.10
11:44:10.031250,-16.42
11:44:10.046875,-15.71
11:44:10.062500,-14.00
11:44:10.078125,-11.45
11:44:10.093750,-8.31
11:44:10.109375,-4.85
11:44:10.125000,-1.31
11:44:10.140625,2.07
11:44:10.156250,5.12
11:44:10.171875,7.69
11:44:10.187500,9.68
11:44:10.203125,11.05
11:44:10.218750,11.83
11:44:10.234375,12.07
11:44:10.250000,11.88
11:44:10.265625,11.37
11:44:10.281250,10.65
11:44:10.296875,9.87
11:44:10.312500,9.19
11:44:10.328125,8.71
11:44:10.343750,8.45
11:44:10.359375,8.33
11:44:10.375000,8.19
11:44:10.390625,7.91
11:44:10.406250,7.39
11:44:10.421875,6.66
11:44:10.437500,5.79
11:44:10.453125,4.83
11:44:10.468750,3.79
11:44:10.484375,2.66
11:44:10.500000,1.39
11:44:10.515625,-0.04
11:44:10.531250,-1.61
11:44:10.546875,-3.33
11:44:10.562500,-5.19
11:44:10.578125,-7.13
11:44:10.593750,-9.02
11:44:10.609375,-10.68
11:44:10.625000,-11.95
11:44:10.640625,-12.78
11:44:10.656250,-13.30
11:44:10.671875,-13.71
11:44:10.687500,-14.29
11:44:10.703125,-15.16
11:44:10.718750,-16.28
11:44:10.734375,-17.44
11:44:10.750000,-18.33
11:44:10.765625,-18.64
11:44:10.781250,-18.13
11:44:10.796875,-16.66
11:44:10.812500,-14.18
11:44:10.828125,-10.77
11:44:10.843750,-6.67
11:44:10.859375,-2.23
11:44:10.875000,2.11
11:44:10.890625,5.94
11:44:10.906250,9.03
11:44:10.921875,11.27
11:44:10.937500,12.75
11:44:10.953125,13.59
11:44:10.968750,13.99
11:44:10.984375,14.07
11:44:11,13.93
11:44:11.015625,13.69
11:44:11.031250,13.37
11:44:11.046875,13.03
11:44:11.062500,12.67
11:44:11.078125,12.33
11:44:11.093750,12.04
11:44:11.109375,11.87
11:44:11.125000,11.85
11:44:11.140625,11.99
11:44:11.156250,12.22
11:44:11.171875,12.45
11:44:11.187500,12.56
11:44:11.203125,12.48
11:44:11.218750,12.18
11:44:11.234375,11.64
11:44:11.250000,10.82
11:44:11.265625,9.64
11:44:11.281250,8.01
11:44:11.296875,6.01
11:44:11.312500,3.80
11:44:11.328125,1.70
11:44:11.343750,-0.00
11:44:11.359375,-1.14
11:44:11.375000,-1.73
11:44:11.390625,-1.99
11:44:11.406250,-2.17
11:44:11.421875,-2.51
11:44:11.437500,-3.11
11:44:11.453125,-3.91
11:44:11.468750,-4.80
11:44:11.484375,-5.68
11:44:11.500000,-6.52
11:44:11.515625,-7.37
11:44:11.531250,-8.27
11:44:11.546875,-9.21
11:44:11.562500,-10.06
11:44:11.578125,-10.55
11:44:11.593750,-10.38
11:44:11.609375,-9.37
11:44:11.625000,-7.50
11:44:11.640625,-5.03
11:44:11.656250,-2.38
11:44:11.671875,0.01
11:44:11.687500,1.75
11:44:11.703125,2.66
11:44:11.718750,2.73
11:44:11.734375,2.01
11:44:11.750000,0.60
11:44:11.765625,-1.45
11:44:11.781250,-4.06
11:44:11.796875,-7.06
11:44:11.812500,-10.12
11:44:11.828125,-12.76
11:44:11.843750,-14.41
11:44:11.859375,-14.73
11:44:11.875000,-13.62
11:44:11.890625,-11.38
11:44:11.906250,-8.50
11:44:11.921875,-5.60
11:44:11.937500,-3.13
11:44:11.953125,-1.35
11:44:11.968750,-0.32
11:44:11.984375,0.07
11:44:12,-0.03
11:44:12.015625,-0.40
11:44:12.031250,-0.81
11:44:12.046875,-1.00
11:44:12.062500,-0.82
11:44:12.078125,-0.29
11:44:12.093750,0.41
11:44:12.109375,0.95
11:44:12.125000,1.03
11:44:12.140625,0.49
11:44:12.156250,-0.63
11:44:12.171875,-2.08
11:44:12.187500,-3.51
11:44:12.203125,-4.61
11:44:12.218750,-5.20
11:44:12.234375,-5.32
11:44:12.250000,-5.08
11:44:12.265625,-4.58
11:44:12.281250,-3.79
11:44:12.296875,-2.48
11:44:12.312500,-0.36
11:44:12.328125,2.80
11:44:12.343750,7.08
11:44:12.359375,12.43
11:44:12.375000,18.71
11:44:12.390625,25.69
11:44:12.406250,33.05
11:44:12.421875,40.29
11:44:12.437500,46.74
11:44:12.453125,51.64
11:44:12.468750,54.37
11:44:12.484375,54.61
11:44:12.500000,52.52
11:44:12.515625,48.62
11:44:12.531250,43.52
11:44:12.546875,37.57
11:44:12.562500,30.64
11:44:12.578125,22.14
11:44:12.593750,11.43
11:44:12.609375,-1.72
11:44:12.625000,-16.59
11:44:12.640625,-31.59
11:44:12.656250,-44.59
11:44:12.671875,-53.78
11:44:12.687500,-58.17
11:44:12.703125,-57.91
11:44:12.718750,-53.96
11:44:12.734375,-47.66
11:44:12.750000,-40.44
11:44:12.765625,-33.80
11:44:12.781250,-29.31
11:44:12.796875,-28.36
11:44:12.812500,-31.74
11:44:12.828125,-39.07
11:44:12.843750,-48.67
11:44:12.859375,-58.08
11:44:12.875000,-64.97
11:44:12.890625,-68.05
11:44:12.906250,-67.55
11:44:12.921875,-64.76
11:44:12.937500,-61.34
11:44:12.953125,-58.38
11:44:12.968750,-56.07
11:44:12.984375,-53.90
11:44:13,-51.19
11:44:13.015625,-47.67
11:44:13.031250,-43.55
11:44:13.046875,-39.46
11:44:13.062500,-35.93
11:44:13.078125,-33.03
11:44:13.093750,-30.11
11:44:13.109375,-26.08
11:44:13.125000,-19.82
11:44:13.140625,-10.70
11:44:13.156250,1.15
11:44:13.171875,14.85
11:44:13.187500,29.16
11:44:13.203125,42.81
11:44:13.218750,54.86
11:44:13.234375,64.67
11:44:13.250000,71.86
11:44:13.265625,76.21
11:44:13.281250,77.77
11:44:13.296875,76.84
11:44:13.312500,74.05
11:44:13.328125,70.18
11:44:13.343750,65.99
11:44:13.359375,61.93
11:44:13.375000,58.05
11:44:13.390625,54.08
11:44:13.406250,49.62
11:44:13.421875,44.46
11:44:13.437500,38.64
11:44:13.453125,32.52
11:44:13.468750,26.56
11:44:13.484375,21.17
11:44:13.500000,16.50
11:44:13.515625,12.44
11:44:13.531250,8.72
11:44:13.546875,5.05
11:44:13.562500,1.24
11:44:13.578125,-2.71
11:44:13.593750,-6.65
11:44:13.609375,-10.36
11:44:13.625000,-13.66
11:44:13.640625,-16.49
11:44:13.656250,-18.90
11:44:13.671875,-21.01
11:44:13.687500,-22.97
11:44:13.703125,-24.87
11:44:13.718750,-26.73
11:44:13.734375,-28.53
11:44:13.750000,-30.12
11:44:13.765625,-31.38
11:44:13.781250,-32.18
11:44:13.796875,-32.37
11:44:13.812500,-31.80
11:44:13.828125,-30.34
11:44:13.843750,-27.86
11:44:13.859375,-24.38
11:44:13.875000,-20.06
11:44:13.890625,-15.29
11:44:13.906250,-10.54
11:44:13.921875,-6.31
11:44:13.937500,-2.90
11:44:13.953125,-0.43
11:44:13.968750,1.16
11:44:13.984375,2.07
11:44:14,2.46
11:44:14.015625,2.52
11:44:14.031250,2.39
11:44:14.046875,2.21
11:44:14.062500,2.05
11:44:14.078125,1.96
11:44:14.093750,1.94
11:44:14.109375,1.96
11:44:14.125000,2.03
11:44:14.140625,2.19
11:44:14.156250,2.46
11:44:14.171875,2.80
11:44:14.187500,3.12
11:44:14.203125,3.27
11:44:14.218750,3.15
11:44:14.234375,2.72
11:44:14.250000,2.03
11:44:14.265625,1.17
11:44:14.281250,0.17
11:44:14.296875,-0.97
11:44:14.312500,-2.30
11:44:14.328125,-3.87
11:44:14.343750,-5.71
11:44:14.359375,-7.78
11:44:14.375000,-10.04
11:44:14.390625,-12.41
11:44:14.406250,-14.81
11:44:14.421875,-17.08
11:44:14.437500,-19.03
11:44:14.453125,-20.41
11:44:14.468750,-20.93
11:44:14.484375,-20.38
11:44:14.500000,-18.66
11:44:14.515625,-15.89
11:44:14.531250,-12.30
11:44:14.546875,-8.26
11:44:14.562500,-4.12
11:44:14.578125,-0.11
11:44:14.593750,3.64
11:44:14.609375,7.07
11:44:14.625000,10.12
11:44:14.640625,12.64
11:44:14.656250,14.44
11:44:14.671875,15.42
11:44:14.687500,15.59
11:44:14.703125,15.11
11:44:14.718750,14.25
11:44:14.734375,13.19
11:44:14.750000,12.00
11:44:14.765625,10.64
11:44:14.781250,9.07
11:44:14.796875,7.37
11:44:14.812500,5.73
11:44:14.828125,4.37
11:44:14.843750,3.41
11:44:14.859375,2.77
11:44:14.875000,2.23
11:44:14.890625,1.49
11:44:14.906250,0.33
11:44:14.921875,-1.32
11:44:14.937500,-3.39
11:44:14.953125,-5.70
11:44:14.968750,-8.01
11:44:14.984375,-10.13
11:44:15,-11.92
11:44:15.015625,-13.40
11:44:15.031250,-14.75
11:44:15.046875,-16.29
11:44:15.062500,-18.31
11:44:15.078125,-20.96
11:44:15.093750,-24.07
11:44:15.109375,-27.15
11:44:15.125000,-29.61
11:44:15.140625,-30.89
11:44:15.156250,-30.74
11:44:15.171875,-29.15
11:44:15.187500,-26.33
11:44:15.203125,-22.54
11:44:15.218750,-18.00
11:44:15.234375,-12.86
11:44:15.250000,-7.33
11:44:15.265625,-1.73
11:44:15.281250,3.49
11:44:15.296875,7.86
11:44:15.312500,11.00
11:44:15.328125,12.76
11:44:15.343750,13.29
11:44:15.359375,12.94
11:44:15.375000,12.19
11:44:15.390625,11.41
11:44:15.406250,10.83
11:44:15.421875,10.52
11:44:15.437500,10.41
11:44:15.453125,10.45
11:44:15.468750,10.62
11:44:15.484375,10.94
11:44:15.500000,11.40
11:44:15.515625,11.96
11:44:15.531250,12.49
11:44:15.546875,12.86
11:44:15.562500,12.95
11:44:15.578125,12.73
11:44:15.593750,12.23
11:44:15.609375,11.45
11:44:15.625000,10.36
11:44:15.640625,8.91
11:44:15.656250,7.09
11:44:15.671875,4.96
11:44:15.687500,2.71
11:44:15.703125,0.48
11:44:15.718750,-1.66
11:44:15.734375,-3.84
11:44:15.750000,-6.36
11:44:15.765625,-9.48
11:44:15.781250,-13.29
11:44:15.796875,-17.52
11:44:15.812500,-21.57
11:44:15.828125,-24.65
11:44:15.843750,-26.07
11:44:15.859375,-25.45
11:44:15.875000,-22.87
11:44:15.890625,-18.75
11:44:15.906250,-13.73
11:44:15.921875,-8.44
11:44:15.937500,-3.34
11:44:15.953125,1.29
11:44:15.968750,5.33
11:44:15.984375,8.78
11:44:16,11.65
11:44:16.015625,13.96
11:44:16.031250,15.67
11:44:16.046875,16.68
11:44:16.062500,16.93
11:44:16.078125,16.44
11:44:16.093750,15.38
11:44:16.109375,14.05
11:44:16.125000,12.78
11:44:16.140625,11.78
11:44:16.156250,11.10
11:44:16.171875,10.61
11:44:16.187500,10.16
11:44:16.203125,9.72
11:44:16.218750,9.32
11:44:16.234375,9.11
11:44:16.250000,9.13
11:44:16.265625,9.27
11:44:16.281250,9.28
11:44:16.296875,8.86
11:44:16.312500,7.82
11:44:16.328125,6.16
11:44:16.343750,4.06
11:44:16.359375,1.81
11:44:16.375000,-0.33
11:44:16.390625,-2.24
11:44:16.406250,-3.98
11:44:16.421875,-5.75
11:44:16.437500,-7.84
11:44:16.453125,-10.45
11:44:16.468750,-13.57
11:44:16.484375,-16.94
11:44:16.500000,-20.08
11:44:16.515625,-22.41
11:44:16.531250,-23.48
11:44:16.546875,-23.02
11:44:16.562500,-21.00
11:44:16.578125,-17.58
11:44:16.593750,-13.02
11:44:16.609375,-7.63
11:44:16.625000,-1.77
11:44:16.640625,4.14
11:44:16.656250,9.62
11:44:16.671875,14.23
11:44:16.687500,17.62
11:44:16.703125,19.68
11:44:16.718750,20.53
11:44:16.734375,20.48
11:44:16.750000,19.88
11:44:16.765625,19.04
11:44:16.781250,18.16
11:44:16.796875,17.31
11:44:16.812500,16.52
11:44:16.828125,15.78
11:44:16.843750,15.10
11:44:16.859375,14.54
11:44:16.875000,14.11
11:44:16.890625,13.82
11:44:16.906250,13.59
11:44:16.921875,13.34
11:44:16.937500,12.93
11:44:16.953125,12.27
11:44:16.968750,11.28
11:44:16.984375,9.89
11:44:17,8.07
11:44:17.015625,5.78
11:44:17.031250,3.08
11:44:17.046875,0.07
11:44:17.062500,-3.02
11:44:17.078125,-6.03
11:44:17.093750,-8.81
11:44:17.109375,-11.40
11:44:17.125000,-13.99
11:44:17.140625,-16.78
11:44:17.156250,-19.91
11:44:17.171875,-23.30
11:44:17.187500,-26.57
11:44:17.203125,-29.12
11:44:17.218750,-30.31
11:44:17.234375,-29.63
11:44:17.250000,-26.91
11:44:17.265625,-22.33
11:44:17.281250,-16.40
11:44:17.296875,-9.78
11:44:17.312500,-3.16
11:44:17.328125,2.89
11:44:17.343750,7.97
11:44:17.359375,11.92
11:44:17.375000,14.74
11:44:17.390625,16.51
11:44:17.406250,17.39
11:44:17.421875,17.57
11:44:17.437500,17.24
11:44:17.453125,16.64
11:44:17.468750,16.05
11:44:17.484375,15.69
11:44:17.500000,15.68
11:44:17.515625,16.00
11:44:17.531250,16.48
11:44:17.546875,16.88
11:44:17.562500,17.02
11:44:17.578125,16.79
11:44:17.593750,16.26
11:44:17.609375,15.53
11:44:17.625000,14.71
11:44:17.640625,13.81
11:44:17.656250,12.79
11:44:17.671875,11.55
11:44:17.687500,10.03
11:44:17.703125,8.22
11:44:17.718750,6.14
11:44:17.734375,3.83
11:44:17.750000,1.33
11:44:17.765625,-1.33
11:44:17.781250,-4.15
11:44:17.796875,-7.15
11:44:17.812500,-10.38
11:44:17.828125,-13.86
11:44:17.843750,-17.53
11:44:17.859375,-21.13
11:44:17.875000,-24.25
11:44:17.890625,-26.36
11:44:17.906250,-26.97
11:44:17.921875,-25.79
11:44:17.937500,-22.80
11:44:17.953125,-18.25
11:44:17.968750,-12.62
11:44:17.984375,-6.48
11:44:18,-0.40
11:44:18.015625,5.16
11:44:18.031250,9.87
11:44:18.046875,13.62
11:44:18.062500,16.48
11:44:18.078125,18.63
11:44:18.093750,20.30
11:44:18.109375,21.61
11:44:18.125000,22.56
11:44:18.140625,23.05
11:44:18.156250,22.96
11:44:18.171875,22.21
11:44:18.187500,20.87
11:44:18.203125,19.15
11:44:18.218750,17.29
11:44:18.234375,15.50
11:44:18.250000,13.93
11:44:18.265625,12.65
11:44:18.281250,11.63
11:44:18.296875,10.84
11:44:18.312500,10.18
11:44:18.328125,9.57
11:44:18.343750,8.89
11:44:18.359375,8.04
11:44:18.375000,6.96
11:44:18.390625,5.59
11:44:18.406250,3.90
11:44:18.421875,1.93
11:44:18.437500,-0.29
11:44:18.453125,-2.65
11:44:18.468750,-5.06
11:44:18.484375,-7.48
11:44:18.500000,-9.94
11:44:18.515625,-12.56
11:44:18.531250,-15.45
11:44:18.546875,-18.64
11:44:18.562500,-21.87
11:44:18.578125,-24.69
11:44:18.593750,-26.48
11:44:18.609375,-26.70
11:44:18.625000,-25.12
11:44:18.640625,-21.81
11:44:18.656250,-17.16
11:44:18.671875,-11.69
11:44:18.687500,-5.86
11:44:18.703125,-0.06
11:44:18.718750,5.48
11:44:18.734375,10.52
11:44:18.750000,14.86
11:44:18.765625,18.30
11:44:18.781250,20.78
11:44:18.796875,22.29
11:44:18.812500,22.98
11:44:18.828125,23.02
11:44:18.843750,22.61
11:44:18.859375,21.93
11:44:18.875000,21.17
11:44:18.890625,20.50
11:44:18.906250,20.05
11:44:18.921875,19.89
11:44:18.937500,20.01
11:44:18.953125,20.33
11:44:18.968750,20.72
11:44:18.984375,21.08
11:44:19,21.28
11:44:19.015625,21.19
11:44:19.031250,20.70
11:44:19.046875,19.73
11:44:19.062500,18.35
11:44:19.078125,16.81
11:44:19.093750,15.47
11:44:19.109375,14.64
11:44:19.125000,14.39
11:44:19.140625,14.47
11:44:19.156250,14.35
11:44:19.171875,13.50
11:44:19.187500,11.64
11:44:19.203125,8.92
11:44:19.218750,5.92
11:44:19.234375,3.43
11:44:19.250000,2.07
11:44:19.265625,1.97
11:44:19.281250,2.82
11:44:19.296875,3.99
11:44:19.312500,5.02
11:44:19.328125,5.90
11:44:19.343750,7.20
11:44:19.359375,9.86
11:44:19.375000,14.77
11:44:19.390625,22.40
11:44:19.406250,32.57
11:44:19.421875,44.50
11:44:19.437500,56.96
11:44:19.453125,68.20
11:44:19.468750,76.01
11:44:19.484375,77.99
11:44:19.500000,72.19
11:44:19.515625,58.10
11:44:19.531250,37.19
11:44:19.546875,12.61
11:44:19.562500,-11.93
11:44:19.578125,-33.67
11:44:19.593750,-51.71
11:44:19.609375,-66.84
11:44:19.625000,-80.37
11:44:19.640625,-92.76
11:44:19.656250,-103.00
11:44:19.671875,-109.26
11:44:19.687500,-110.28
11:44:19.703125,-106.60
11:44:19.718750,-100.73
11:44:19.734375,-95.98
11:44:19.750000,-94.76
11:44:19.765625,-97.41
11:44:19.781250,-102.07
11:44:19.796875,-105.88
11:44:19.812500,-106.17
11:44:19.828125,-101.62
11:44:19.843750,-92.38
11:44:19.859375,-79.83
11:44:19.875000,-66.21
11:44:19.890625,-54.29
11:44:19.906250,-47.08
11:44:19.921875,-46.93
11:44:19.937500,-54.27
11:44:19.953125,-66.63
11:44:19.968750,-78.69
11:44:19.984375,-83.96
11:44:20,-77.49
11:44:20.015625,-58.32
11:44:20.031250,-30.13
11:44:20.046875,0.43
11:44:20.062500,26.83
11:44:20.078125,45.50
11:44:20.093750,56.83
11:44:20.109375,63.94
11:44:20.125000,70.25
11:44:20.140625,77.42
11:44:20.156250,84.80
11:44:20.171875,90.56
11:44:20.187500,93.29
11:44:20.203125,93.11
11:44:20.218750,91.60
11:44:20.234375,90.55
11:44:20.250000,90.74
11:44:20.265625,91.38
11:44:20.281250,90.64
11:44:20.296875,86.70
11:44:20.312500,79.00
11:44:20.328125,68.59
11:44:20.343750,57.69
11:44:20.359375,48.57
11:44:20.375000,42.61
11:44:20.390625,39.72
11:44:20.406250,38.55
11:44:20.421875,37.25
11:44:20.437500,34.32
11:44:20.453125,29.20
11:44:20.468750,22.37
11:44:20.484375,14.96
11:44:20.500000,8.26
11:44:20.515625,3.16
11:44:20.531250,-0.09
11:44:20.546875,-1.88
11:44:20.562500,-3.02
11:44:20.578125,-4.27
11:44:20.593750,-6.06
11:44:20.609375,-8.34
11:44:20.625000,-10.76
11:44:20.640625,-12.86
11:44:20.656250,-14.52
11:44:20.671875,-15.95
11:44:20.687500,-17.59
11:44:20.703125,-19.80
11:44:20.718750,-22.53
11:44:20.734375,-25.30
11:44:20.750000,-27.39
11:44:20.765625,-28.10
11:44:20.781250,-27.03
11:44:20.796875,-24.15
11:44:20.812500,-19.75
11:44:20.828125,-14.27
11:44:20.843750,-8.25
11:44:20.859375,-2.28
11:44:20.875000,3.11
11:44:20.890625,7.55
11:44:20.906250,10.95
11:44:20.921875,13.62
11:44:20.937500,16.09
11:44:20.953125,18.95
11:44:20.968750,22.63
11:44:20.984375,27.17
11:44:21,32.26
11:44:21.015625,37.41
11:44:21.031250,42.25
11:44:21.046875,46.72
11:44:21.062500,51.28
11:44:21.078125,56.79
11:44:21.093750,64.19
11:44:21.109375,74.16
11:44:21.125000,86.80
11:44:21.140625,101.51
11:44:21.156250,117.24
11:44:21.171875,132.79
11:44:21.187500,147.18
11:44:21.203125,159.79
11:44:21.218750,170.21
11:44:21.234375,178.14
11:44:21.250000,183.28
11:44:21.265625,185.45
11:44:21.281250,184.70
11:44:21.296875,181.18
11:44:21.312500,174.87
11:44:21.328125,165.32
11:44:21.343750,151.69
11:44:21.359375,133.29
11:44:21.375000,110.35
11:44:21.390625,84.52
11:44:21.406250,58.69
11:44:21.421875,36.20
11:44:21.437500,19.74
11:44:21.453125,10.64
11:44:21.468750,8.77
11:44:21.484375,12.85
11:44:21.500000,20.99
11:44:21.515625,31.20
11:44:21.531250,41.79
11:44:21.546875,51.51
11:44:21.562500,59.80
11:44:21.578125,66.56
11:44:21.593750,71.79
11:44:21.609375,75.10
11:44:21.625000,75.40
11:44:21.640625,71.05
11:44:21.656250,60.70
11:44:21.671875,44.26
11:44:21.687500,23.51
11:44:21.703125,1.77
11:44:21.718750,-17.30
11:44:21.734375,-31.23
11:44:21.750000,-39.66
11:44:21.765625,-44.37
11:44:21.781250,-48.35
11:44:21.796875,-54.45
11:44:21.812500,-64.46
11:44:21.828125,-78.76
11:44:21.843750,-96.58
11:44:21.859375,-116.57
11:44:21.875000,-137.20
11:44:21.890625,-156.91
11:44:21.906250,-174.07
11:44:21.921875,-187.04
11:44:21.937500,-194.65
11:44:21.953125,-196.73
11:44:21.968750,-194.60
11:44:21.984375,-190.83
11:44:22,-188.39
11:44:22.015625,-189.40
11:44:22.031250,-194.14
11:44:22.046875,-200.92
11:44:22.062500,-206.65
11:44:22.078125,-208.15
11:44:22.093750,-203.33
11:44:22.109375,-191.90
11:44:22.125000,-175.29
11:44:22.140625,-155.96
11:44:22.156250,-136.55
11:44:22.171875,-119.32
11:44:22.187500,-105.47
11:44:22.203125,-95.01
11:44:22.218750,-87.13
11:44:22.234375,-80.75
11:44:22.250000,-75.02
11:44:22.265625,-69.55
11:44:22.281250,-64.26
11:44:22.296875,-59.19
11:44:22.312500,-54.40
11:44:22.328125,-49.55
11:44:22.343750,-43.84
11:44:22.359375,-36.51
11:44:22.375000,-27.33
11:44:22.390625,-16.96
11:44:22.406250,-6.75
11:44:22.421875,1.83
11:44:22.437500,7.87
11:44:22.453125,10.90
11:44:22.468750,11.47
11:44:22.484375,11.09
11:44:22.500000,11.42
11:44:22.515625,13.38
11:44:22.531250,16.87
11:44:22.546875,21.15
11:44:22.562500,25.44
11:44:22.578125,29.20
11:44:22.593750,30.73
11:44:22.609375,28.94
11:44:22.625000,24.23
11:44:22.640625,18.38
11:44:22.656250,13.46
11:44:22.671875,10.95
11:44:22.687500,11.64
11:44:22.703125,15.49
11:44:22.718750,21.62
11:44:22.734375,25.53
11:44:22.750000,23.66
11:44:22.765625,15.97
11:44:22.781250,5.88
11:44:22.796875,-2.80
11:44:22.812500,-8.13
11:44:22.828125,-10.35
11:44:22.843750,-11.10
11:44:22.859375,-12.18
11:44:22.875000,-19.32
11:44:22.890625,-35.27
11:44:22.906250,-57.03
11:44:22.921875,-77.47
11:44:22.937500,-90.83
11:44:22.953125,-95.86
11:44:22.968750,-95.25
11:44:22.984375,-93.50
11:44:23,-94.96
11:44:23.015625,-109.09
11:44:23.031250,-142.18
11:44:23.046875,-193.61
11:44:23.062500,-257.05
11:44:23.078125,-325.43
11:44:23.093750,-393.43
11:44:23.109375,-456.37
11:44:23.125000,-509.16
11:44:23.140625,-507.55
11:44:23.156250,-428.37
11:44:23.171875,-287.72
11:44:23.187500,-130.67
11:44:23.203125,4.06
11:44:23.218750,101.32
11:44:23.234375,163.92
11:44:23.250000,202.43
11:44:23.265625,228.04
11:44:23.281250,248.85
11:44:23.296875,262.51
11:44:23.312500,265.34
11:44:23.328125,257.60
11:44:23.343750,244.09
11:44:23.359375,229.84
11:44:23.375000,217.36
11:44:23.390625,207.21
11:44:23.406250,199.34
11:44:23.421875,193.72
11:44:23.437500,185.55
11:44:23.453125,170.02
11:44:23.468750,148.07
11:44:23.484375,124.74
11:44:23.500000,104.87
11:44:23.515625,90.70
11:44:23.531250,82.30
11:44:23.546875,78.81
11:44:23.562500,79.24
11:44:23.578125,79.75
11:44:23.593750,77.55
11:44:23.609375,73.01
11:44:23.625000,68.85
11:44:23.640625,67.60
11:44:23.656250,70.02
11:44:23.671875,75.40
11:44:23.687500,82.18
11:44:23.703125,88.56
11:44:23.718750,91.42
11:44:23.734375,88.75
11:44:23.750000,80.95
11:44:23.765625,70.49
11:44:23.781250,60.39
11:44:23.796875,52.90
11:44:23.812500,49.17
11:44:23.828125,49.23
11:44:23.843750,52.39
11:44:23.859375,57.01
11:44:23.875000,61.59
11:44:23.890625,65.28
11:44:23.906250,67.57
11:44:23.921875,67.70
11:44:23.937500,64.53
11:44:23.953125,56.81
11:44:23.968750,43.82
11:44:23.984375,25.93
11:44:24,4.83
11:44:24.015625,-16.73
11:44:24.031250,-35.62
11:44:24.046875,-49.44
11:44:24.062500,-57.25
11:44:24.078125,-59.70
11:44:24.093750,-58.51
11:44:24.109375,-55.55
11:44:24.125000,-52.02
11:44:24.140625,-48.29
11:44:24.156250,-44.22
11:44:24.171875,-39.74
11:44:24.187500,-35.28
11:44:24.203125,-31.59
11:44:24.218750,-29.25
11:44:24.234375,-28.28
11:44:24.250000,-27.97
11:44:24.265625,-27.31
11:44:24.281250,-25.52
11:44:24.296875,-22.50
11:44:24.312500,-18.87
11:44:24.328125,-15.66
11:44:24.343750,-13.73
11:44:24.359375,-13.37
11:44:24.375000,-14.19
11:44:24.390625,-15.26
11:44:24.406250,-15.58
11:44:24.421875,-14.46
11:44:24.437500,-11.76
11:44:24.453125,-7.90
11:44:24.468750,-3.63
11:44:24.484375,0.19
11:44:24.500000,2.90
11:44:24.515625,4.20
11:44:24.531250,4.25
11:44:24.546875,3.62
11:44:24.562500,3.25
11:44:24.578125,4.11
11:44:24.593750,6.94
11:44:24.609375,11.92
11:44:24.625000,18.63
11:44:24.640625,26.24
11:44:24.656250,33.88
11:44:24.671875,40.98
11:44:24.687500,47.38
11:44:24.703125,53.16
11:44:24.718750,58.40
11:44:24.734375,63.00
11:44:24.750000,66.58
11:44:24.765625,68.69
11:44:24.781250,68.99
11:44:24.796875,67.41
11:44:24.812500,64.19
11:44:24.828125,59.76
11:44:24.843750,54.56
11:44:24.859375,48.93
11:44:24.875000,43.02
11:44:24.890625,36.79
11:44:24.906250,30.13
11:44:24.921875,22.92
11:44:24.937500,15.16
11:44:24.953125,6.99
11:44:24.968750,-1.33
11:44:24.984375,-9.59
11:44:25,-17.73
11:44:25.015625,-25.82
11:44:25.031250,-33.99
11:44:25.046875,-42.27
11:44:25.062500,-50.39
11:44:25.078125,-57.81
11:44:25.093750,-63.78
11:44:25.109375,-67.65
11:44:25.125000,-69.14
11:44:25.140625,-68.64
11:44:25.156250,-67.17
11:44:25.171875,-66.19
11:44:25.187500,-66.95
11:44:25.203125,-70.08
11:44:25.218750,-75.19
11:44:25.234375,-81.10
11:44:25.250000,-86.32
11:44:25.265625,-89.69
11:44:25.281250,-90.77
11:44:25.296875,-89.84
11:44:25.312500,-87.56
11:44:25.328125,-84.46
11:44:25.343750,-80.57
11:44:25.359375,-75.42
11:44:25.375000,-68.20
11:44:25.390625,-58.13
11:44:25.406250,-44.80
11:44:25.421875,-28.40
11:44:25.437500,-9.72
11:44:25.453125,10.05
11:44:25.468750,29.58
11:44:25.484375,47.76
11:44:25.500000,63.90
11:44:25.515625,77.75
11:44:25.531250,89.38
11:44:25.546875,98.93
11:44:25.562500,106.46
11:44:25.578125,111.91
11:44:25.593750,115.19
11:44:25.609375,116.27
11:44:25.625000,115.32
11:44:25.640625,112.61
11:44:25.656250,108.54
11:44:25.671875,103.51
11:44:25.687500,97.97
11:44:25.703125,92.32
11:44:25.718750,86.97
11:44:25.734375,82.23
11:44:25.750000,78.14
11:44:25.765625,74.50
11:44:25.781250,70.85
11:44:25.796875,66.67
11:44:25.812500,61.55
11:44:25.828125,55.33
11:44:25.843750,48.14
11:44:25.859375,40.26
11:44:25.875000,31.99
11:44:25.890625,23.51
11:44:25.906250,14.88
11:44:25.921875,6.10
11:44:25.937500,-2.83
11:44:25.953125,-11.79
11:44:25.968750,-20.62
11:44:25.984375,-29.10
11:44:26,-36.92
11:44:26.015625,-43.74
11:44:26.031250,-49.24
11:44:26.046875,-53.24
11:44:26.062500,-55.85
11:44:26.078125,-57.43
11:44:26.093750,-58.48
11:44:26.109375,-59.35
11:44:26.125000,-60.05
11:44:26.140625,-60.22
11:44:26.156250,-59.32
11:44:26.171875,-56.99
11:44:26.187500,-53.20
11:44:26.203125,-48.39
11:44:26.218750,-43.28
11:44:26.234375,-38.58
11:44:26.250000,-34.75
11:44:26.265625,-31.91
11:44:26.281250,-29.90
11:44:26.296875,-28.36
11:44:26.312500,-26.99
11:44:26.328125,-25.60
11:44:26.343750,-24.12
11:44:26.359375,-22.54
11:44:26.375000,-20.85
11:44:26.390625,-18.96
11:44:26.406250,-16.85
11:44:26.421875,-14.57
11:44:26.437500,-12.35
11:44:26.453125,-10.51
11:44:26.468750,-9.39
11:44:26.484375,-9.24
11:44:26.500000,-10.15
11:44:26.515625,-12.12
11:44:26.531250,-15.07
11:44:26.546875,-18.88
11:44:26.562500,-23.33
11:44:26.578125,-28.13
11:44:26.593750,-32.81
11:44:26.609375,-36.85
11:44:26.625000,-39.69
11:44:26.640625,-40.94
11:44:26.656250,-40.40
11:44:26.671875,-38.19
11:44:26.687500,-34.78
11:44:26.703125,-30.89
11:44:26.718750,-27.41
11:44:26.734375,-25.16
11:44:26.750000,-24.68
11:44:26.765625,-26.18
11:44:26.781250,-29.45
11:44:26.796875,-33.94
11:44:26.812500,-38.80
11:44:26.828125,-43.06
11:44:26.843750,-45.74
11:44:26.859375,-46.06
11:44:26.875000,-43.67
11:44:26.890625,-38.61
11:44:26.906250,-31.31
11:44:26.921875,-22.26
11:44:26.937500,-11.80
11:44:26.953125,-0.04
11:44:26.968750,13.02
11:44:26.984375,27.26
11:44:27,42.22
11:44:27.015625,57.08
11:44:27.031250,70.79
11:44:27.046875,82.44
11:44:27.062500,91.47
11:44:27.078125,97.78
11:44:27.093750,101.63
11:44:27.109375,103.35
11:44:27.125000,103.13
11:44:27.140625,100.89
11:44:27.156250,96.34
11:44:27.171875,89.39
11:44:27.187500,80.41
11:44:27.203125,70.35
11:44:27.218750,60.56
11:44:27.234375,52.21
11:44:27.250000,45.77
11:44:27.265625,40.73
11:44:27.281250,35.85
11:44:27.296875,29.68
11:44:27.312500,21.25
11:44:27.328125,10.32
11:44:27.343750,-2.58
11:44:27.359375,-16.50
11:44:27.375000,-30.46
11:44:27.390625,-43.72
11:44:27.406250,-55.91
11:44:27.421875,-67.08
11:44:27.437500,-77.74
11:44:27.453125,-88.74
11:44:27.468750,-100.99
11:44:27.484375,-115.00
11:44:27.500000,-130.50
11:44:27.515625,-146.28
11:44:27.531250,-160.55
11:44:27.546875,-171.63
11:44:27.562500,-178.55
11:44:27.578125,-181.39
11:44:27.593750,-181.09
11:44:27.609375,-178.93
11:44:27.625000,-175.91
11:44:27.640625,-172.45
11:44:27.656250,-168.37
11:44:27.671875,-163.20
11:44:27.687500,-156.45
11:44:27.703125,-147.90
11:44:27.718750,-137.58
11:44:27.734375,-125.72
11:44:27.750000,-112.62
11:44:27.765625,-98.68
11:44:27.781250,-84.29
11:44:27.796875,-69.93
11:44:27.812500,-56.07
11:44:27.828125,-43.19
11:44:27.843750,-31.61
11:44:27.859375,-21.46
11:44:27.875000,-12.61
11:44:27.890625,-4.75
11:44:27.906250,2.58
11:44:27.921875,9.80
11:44:27.937500,17.20
11:44:27.953125,24.82
11:44:27.968750,32.55
11:44:27.984375,40.17
11:44:28,47.49
11:44:28.015625,54.45
11:44:28.031250,61.15
11:44:28.046875,67.76
11:44:28.062500,74.49
11:44:28.078125,81.45
11:44:28.093750,88.53
11:44:28.109375,95.27
11:44:28.125000,100.93
11:44:28.140625,104.54
11:44:28.156250,105.19
11:44:28.171875,102.40
11:44:28.187500,96.32
11:44:28.203125,87.85
11:44:28.218750,78.39
11:44:28.234375,69.47
11:44:28.250000,62.20
11:44:28.265625,57.03
11:44:28.281250,53.77
11:44:28.296875,51.90
11:44:28.312500,50.86
11:44:28.328125,50.36
11:44:28.343750,50.25
11:44:28.359375,50.38
11:44:28.375000,50.30
11:44:28.390625,49.25
11:44:28.406250,46.27
11:44:28.421875,40.66
11:44:28.437500,32.29
11:44:28.453125,21.81
11:44:28.468750,10.44
11:44:28.484375,-0.40
11:44:28.500000,-9.61
11:44:28.515625,-16.73
11:44:28.531250,-21.89
11:44:28.546875,-25.66
11:44:28.562500,-28.67
11:44:28.578125,-31.31
11:44:28.593750,-33.67
11:44:28.609375,-35.59
11:44:28.625000,-36.82
11:44:28.640625,-37.14
11:44:28.656250,-36.43
11:44:28.671875,-34.76
11:44:28.687500,-32.32
11:44:28.703125,-29.47
11:44:28.718750,-26.59
11:44:28.734375,-23.97
11:44:28.750000,-21.61
11:44:28.765625,-19.20
11:44:28.781250,-16.23
11:44:28.796875,-12.26
11:44:28.812500,-7.20
11:44:28.828125,-1.40
11:44:28.843750,4.47
11:44:28.859375,9.85
11:44:28.875000,14.63
11:44:28.890625,19.32
11:44:28.906250,24.88
11:44:28.921875,32.40
11:44:28.937500,42.55
11:44:28.953125,55.36
11:44:28.968750,70.19
11:44:28.984375,85.94
11:44:29,101.48
11:44:29.015625,115.95
11:44:29.031250,128.97
11:44:29.046875,140.67
11:44:29.062500,151.55
11:44:29.078125,162.14
11:44:29.093750,172.83
11:44:29.109375,183.63
11:44:29.125000,194.13
11:44:29.140625,203.69
11:44:29.156250,211.67
11:44:29.171875,217.71
11:44:29.187500,221.85
11:44:29.203125,224.53
11:44:29.218750,226.29
11:44:29.234375,227.60
11:44:29.250000,228.53
11:44:29.265625,228.74
11:44:29.281250,227.54
11:44:29.296875,224.19
11:44:29.312500,218.22
11:44:29.328125,209.76
11:44:29.343750,199.75
11:44:29.359375,189.69
11:44:29.375000,181.12
11:44:29.390625,174.82
11:44:29.406250,170.40
11:44:29.421875,166.26
11:44:29.437500,160.45
11:44:29.453125,151.62
11:44:29.468750,139.73
11:44:29.484375,125.93
11:44:29.500000,111.90
11:44:29.515625,98.87
11:44:29.531250,86.95
11:44:29.546875,75.12
11:44:29.562500,61.56
11:44:29.578125,44.13
11:44:29.593750,20.64
11:44:29.609375,-10.84
11:44:29.625000,-51.45
11:44:29.640625,-100.63
11:44:29.656250,-155.39
11:44:29.671875,-210.15
11:44:29.687500,-257.91
11:44:29.703125,-292.36
11:44:29.718750,-310.04
11:44:29.734375,-311.53
11:44:29.750000,-300.77
11:44:29.765625,-283.42
11:44:29.781250,-264.48
11:44:29.796875,-246.91
11:44:29.812500,-231.46
11:44:29.828125,-217.50
11:44:29.843750,-204.24
11:44:29.859375,-191.61
11:44:29.875000,-180.77
11:44:29.890625,-173.72
11:44:29.906250,-172.29
11:44:29.921875,-176.80
11:44:29.937500,-185.25
11:44:29.953125,-193.60
11:44:29.968750,-197.44
11:44:29.984375,-194.76
11:44:30,-187.61
11:44:30.015625,-182.15
11:44:30.031250,-186.24
11:44:30.046875,-205.87
11:44:30.062500,-242.45
11:44:30.078125,-292.72
11:44:30.093750,-351.16
11:44:30.109375,-413.09
11:44:30.125000,-476.13
11:44:30.140625,-538.96
11:44:30.156250,-598.70
11:44:30.171875,-648.86
11:44:30.187500,-680.28
11:44:30.203125,-684.50
11:44:30.218750,-657.88
11:44:30.234375,-603.78
11:44:30.250000,-531.31
11:44:30.265625,-451.74
11:44:30.281250,-374.35
11:44:30.296875,-304.06
11:44:30.312500,-241.49
11:44:30.328125,-184.80
11:44:30.343750,-131.92
11:44:30.359375,-81.61
11:44:30.375000,-33.66
11:44:30.390625,11.74
11:44:30.406250,54.37
11:44:30.421875,94.02
11:44:30.437500,130.36
11:44:30.453125,162.88
11:44:30.468750,191.27
11:44:30.484375,215.54
11:44:30.500000,236.43
11:44:30.515625,255.26
11:44:30.531250,273.75
11:44:30.546875,293.56
11:44:30.562500,316.00
11:44:30.578125,341.50
11:44:30.593750,369.02
11:44:30.609375,395.62
11:44:30.625000,416.67
11:44:30.640625,427.10
11:44:30.656250,423.35
11:44:30.671875,405.15
11:44:30.687500,376.15
11:44:30.703125,342.75
11:44:30.718750,311.50
11:44:30.734375,286.41
11:44:30.750000,267.53
11:44:30.765625,251.65
11:44:30.781250,234.66
11:44:30.796875,214.11
11:44:30.812500,190.53
11:44:30.828125,166.74
11:44:30.843750,145.89
11:44:30.859375,129.45
11:44:30.875000,116.26
11:44:30.890625,103.37
11:44:30.906250,87.80
11:44:30.921875,68.33
11:44:30.937500,46.28
11:44:30.953125,24.82
11:44:30.968750,7.39
11:44:30.984375,-3.86
11:44:31,-8.92
11:44:31.015625,-9.56
11:44:31.031250,-8.07
11:44:31.046875,-6.01
11:44:31.062500,-3.44
11:44:31.078125,0.74
11:44:31.093750,7.80
11:44:31.109375,18.03
11:44:31.125000,30.13
11:44:31.140625,41.50
11:44:31.156250,49.34
11:44:31.171875,51.85
11:44:31.187500,49.10
11:44:31.203125,42.94
11:44:31.218750,36.12
11:44:31.234375,31.10
11:44:31.250000,29.02
11:44:31.265625,29.41
11:44:31.281250,30.66
11:44:31.296875,30.98
11:44:31.312500,29.35
11:44:31.328125,25.86
11:44:31.343750,21.52
11:44:31.359375,17.54
11:44:31.375000,14.67
11:44:31.390625,12.78
11:44:31.406250,11.03
11:44:31.421875,8.28
11:44:31.437500,3.59
11:44:31.453125,-3.39
11:44:31.468750,-12.38
11:44:31.484375,-22.54
11:44:31.500000,-32.78
11:44:31.515625,-42.01
11:44:31.531250,-49.44
11:44:31.546875,-54.68
11:44:31.562500,-57.75
11:44:31.578125,-58.91
11:44:31.593750,-58.39
11:44:31.609375,-56.26
11:44:31.625000,-52.37
11:44:31.640625,-46.49
11:44:31.656250,-38.58
11:44:31.671875,-28.94
11:44:31.687500,-18.25
11:44:31.703125,-7.42
11:44:31.718750,2.51
11:44:31.734375,10.65
11:44:31.750000,16.32
11:44:31.765625,19.29
11:44:31.781250,19.77
11:44:31.796875,18.46
11:44:31.812500,16.27
11:44:31.828125,14.08
11:44:31.843750,12.42
11:44:31.859375,11.35
11:44:31.875000,10.60
11:44:31.890625,9.86
11:44:31.906250,9.10
11:44:31.921875,8.69
11:44:31.937500,9.38
11:44:31.953125,12.01
11:44:31.968750,17.22
11:44:31.984375,25.16
11:44:32,35.36
11:44:32.015625,46.79
11:44:32.031250,58.10
11:44:32.046875,67.97
11:44:32.062500,75.42
11:44:32.078125,80.13
11:44:32.093750,82.43
11:44:32.109375,83.08
11:44:32.125000,82.90
11:44:32.140625,82.43
11:44:32.156250,81.79
11:44:32.171875,80.77
11:44:32.187500,79.05
11:44:32.203125,76.40
11:44:32.218750,72.69
11:44:32.234375,67.86
11:44:32.250000,61.90
11:44:32.265625,55.03
11:44:32.281250,47.75
11:44:32.296875,40.90
11:44:32.312500,35.43
11:44:32.328125,32.03
11:44:32.343750,30.77
11:44:32.359375,31.05
11:44:32.375000,31.71
11:44:32.390625,31.45
11:44:32.406250,29.28
11:44:32.421875,24.74
11:44:32.437500,18.09
11:44:32.453125,10.08
11:44:32.468750,1.81
11:44:32.484375,-5.67
11:44:32.500000,-11.61
11:44:32.515625,-15.81
11:44:32.531250,-18.53
11:44:32.546875,-20.29
11:44:32.562500,-21.54
11:44:32.578125,-22.41
11:44:32.593750,-22.77
11:44:32.609375,-22.39
11:44:32.625000,-21.27
11:44:32.640625,-19.66
11:44:32.656250,-17.96
11:44:32.671875,-16.47
11:44:32.687500,-15.13
11:44:32.703125,-13.39
11:44:32.718750,-10.41
11:44:32.734375,-5.32
11:44:32.750000,2.40
11:44:32.765625,12.59
11:44:32.781250,24.43
11:44:32.796875,36.56
11:44:32.812500,47.33
11:44:32.828125,55.15
11:44:32.843750,58.76
11:44:32.859375,57.71
11:44:32.875000,52.72
11:44:32.890625,45.83
11:44:32.906250,39.97
11:44:32.921875,37.82
11:44:32.937500,40.52
11:44:32.953125,46.81
11:44:32.968750,53.36
11:44:32.984375,56.24
11:44:33,52.87
11:44:33.015625,43.32
11:44:33.031250,30.25
11:44:33.046875,17.49
11:44:33.062500,8.22
11:44:33.078125,3.81
11:44:33.093750,3.84
11:44:33.109375,7.05
11:44:33.125000,12.24
11:44:33.140625,18.62
11:44:33.156250,25.61
11:44:33.171875,32.52
11:44:33.187500,38.66
11:44:33.203125,43.60
11:44:33.218750,47.29
11:44:33.234375,49.50
11:44:33.250000,49.16
11:44:33.265625,44.07
11:44:33.281250,31.62
11:44:33.296875,10.59
11:44:33.312500,-17.12
11:44:33.328125,-45.89
11:44:33.343750,-67.49
11:44:33.359375,-73.87
11:44:33.375000,-60.16
11:44:33.390625,-26.48
11:44:33.406250,22.15
11:44:33.421875,77.74
11:44:33.437500,131.99
11:44:33.453125,178.15
11:44:33.468750,211.78
11:44:33.484375,230.18
11:44:33.500000,231.60
11:44:33.515625,215.01
11:44:33.531250,180.53
11:44:33.546875,130.54
11:44:33.562500,70.30
11:44:33.578125,7.64
11:44:33.593750,-48.77
11:44:33.609375,-91.92
11:44:33.625000,-118.65
11:44:33.640625,-130.46
11:44:33.656250,-132.54
11:44:33.671875,-131.34
11:44:33.687500,-131.94
11:44:33.703125,-136.20
11:44:33.718750,-142.71
11:44:33.734375,-148.19
11:44:33.750000,-149.60
11:44:33.765625,-145.79
11:44:33.781250,-137.87
11:44:33.796875,-128.36
11:44:33.812500,-119.58
11:44:33.828125,-112.44
11:44:33.843750,-106.23
11:44:33.859375,-99.31
11:44:33.875000,-90.44
11:44:33.890625,-79.59
11:44:33.906250,-68.09
11:44:33.921875,-57.81
11:44:33.937500,-50.19
11:44:33.953125,-45.40
11:44:33.968750,-42.29
11:44:33.984375,-39.05
11:44:34,-34.18
11:44:34.015625,-27.31
11:44:34.031250,-19.37
11:44:34.046875,-12.14
11:44:34.062500,-7.42
11:44:34.078125,-6.41
11:44:34.093750,-9.42
11:44:34.109375,-15.85
11:44:34.125000,-24.33
11:44:34.140625,-33.00
11:44:34.156250,-40.04
11:44:34.171875,-44.28
11:44:34.187500,-45.77
11:44:34.203125,-45.98
11:44:34.218750,-47.22
11:44:34.234375,-51.75
11:44:34.250000,-60.78
11:44:34.265625,-74.03
11:44:34.281250,-89.91
11:44:34.296875,-106.27
11:44:34.312500,-121.03
11:44:34.328125,-132.67
11:44:34.343750,-140.32
11:44:34.359375,-143.71
11:44:34.375000,-143.13
11:44:34.390625,-139.29
11:44:34.406250,-133.22
11:44:34.421875,-125.95
11:44:34.437500,-118.29
11:44:34.453125,-110.71
11:44:34.468750,-103.65
11:44:34.484375,-97.74
11:44:34.500000,-93.72
11:44:34.515625,-91.77
11:44:34.531250,-90.67
11:44:34.546875,-87.51
11:44:34.562500,-78.34
11:44:34.578125,-59.70
11:44:34.593750,-30.47
11:44:34.609375,7.21
11:44:34.625000,48.29
11:44:34.640625,86.65
11:44:34.656250,117.24
11:44:34.671875,137.93
11:44:34.687500,149.95
11:44:34.703125,156.82
11:44:34.718750,162.47
11:44:34.734375,169.41
11:44:34.750000,177.91
11:44:34.765625,186.39
11:44:34.781250,192.74
11:44:34.796875,195.57
11:44:34.812500,194.78
11:44:34.828125,191.19
11:44:34.843750,185.67
11:44:34.859375,178.37
11:44:34.875000,168.69
11:44:34.890625,155.82
11:44:34.906250,139.76
11:44:34.921875,121.76
11:44:34.937500,104.24
11:44:34.953125,89.78
11:44:34.968750,80.08
11:44:34.984375,75.17
11:44:35,73.52
11:44:35.015625,72.76
11:44:35.031250,70.82
11:44:35.046875,66.80
11:44:35.062500,61.25
11:44:35.078125,55.78
11:44:35.093750,52.16
11:44:35.109375,51.32
11:44:35.125000,52.67
11:44:35.140625,54.22
11:44:35.156250,53.39
11:44:35.171875,48.13
11:44:35.187500,37.95
11:44:35.203125,24.16
11:44:35.218750,9.17
11:44:35.234375,-4.48
11:44:35.250000,-15.17
11:44:35.265625,-22.38
11:44:35.281250,-26.41
11:44:35.296875,-28.02
11:44:35.312500,-28.19
11:44:35.328125,-28.39
11:44:35.343750,-30.75
11:44:35.359375,-37.76
11:44:35.375000,-51.36
11:44:35.390625,-71.80
11:44:35.406250,-97.09
11:44:35.421875,-123.42
11:44:35.437500,-146.54
11:44:35.453125,-163.27
11:44:35.468750,-172.42
11:44:35.484375,-174.57
11:44:35.500000,-171.21
11:44:35.515625,-163.87
11:44:35.531250,-153.78
11:44:35.546875,-142.11
11:44:35.562500,-130.31
11:44:35.578125,-119.97
11:44:35.593750,-112.32
11:44:35.609375,-107.50
11:44:35.625000,-104.43
11:44:35.640625,-101.30
11:44:35.656250,-96.49
11:44:35.671875,-89.42
11:44:35.687500,-80.71
11:44:35.703125,-71.70
11:44:35.718750,-63.63
11:44:35.734375,-56.97
11:44:35.750000,-51.43
11:44:35.765625,-46.29
11:44:35.781250,-40.97
11:44:35.796875,-35.28
11:44:35.812500,-29.38
11:44:35.828125,-23.47
11:44:35.843750,-17.61
11:44:35.859375,-11.70
11:44:35.875000,-5.65
11:44:35.890625,0.39
11:44:35.906250,6.04
11:44:35.921875,10.82
11:44:35.937500,14.29
11:44:35.953125,16.25
11:44:35.968750,16.67
11:44:35.984375,15.73
11:44:36,13.61
11:44:36.015625,10.53
11:44:36.031250,6.60
11:44:36.046875,1.98
11:44:36.062500,-3.03
11:44:36.078125,-7.87
11:44:36.093750,-11.68
11:44:36.109375,-13.50
11:44:36.125000,-12.57
11:44:36.140625,-8.63
11:44:36.156250,-2.13
11:44:36.171875,5.97
11:44:36.187500,14.47
11:44:36.203125,22.42
11:44:36.218750,29.35
11:44:36.234375,35.26
11:44:36.250000,40.33
11:44:36.265625,44.68
11:44:36.281250,48.17
11:44:36.296875,50.50
11:44:36.312500,51.42
11:44:36.328125,50.94
11:44:36.343750,49.38
11:44:36.359375,47.38
11:44:36.375000,45.61
11:44:36.390625,44.61
11:44:36.406250,44.56
11:44:36.421875,45.31
11:44:36.437500,46.39
11:44:36.453125,47.25
11:44:36.468750,47.45
11:44:36.484375,46.79
11:44:36.500000,45.35
11:44:36.515625,43.39
11:44:36.531250,41.18
11:44:36.546875,38.84
11:44:36.562500,36.31
11:44:36.578125,33.31
11:44:36.593750,29.52
11:44:36.609375,24.66
11:44:36.625000,18.70
11:44:36.640625,11.97
11:44:36.656250,5.14
11:44:36.671875,-0.78
11:44:36.687500,-4.69
11:44:36.703125,-5.69
11:44:36.718750,-3.31
11:44:36.734375,2.29
11:44:36.750000,10.41
11:44:36.765625,20.08
11:44:36.781250,30.33
11:44:36.796875,40.53
11:44:36.812500,50.40
11:44:36.828125,59.90
11:44:36.843750,69.00
11:44:36.859375,77.46
11:44:36.875000,84.90
11:44:36.890625,90.97
11:44:36.906250,95.65
11:44:36.921875,99.41
11:44:36.937500,103.17
11:44:36.953125,107.90
11:44:36.968750,114.26
11:44:36.984375,122.24
11:44:37,131.20
11:44:37.015625,140.06
11:44:37.031250,147.67
11:44:37.046875,153.01
11:44:37.062500,155.21
11:44:37.078125,153.43
11:44:37.093750,146.92
11:44:37.109375,135.11
11:44:37.125000,118.01
11:44:37.140625,96.37
11:44:37.156250,71.57
11:44:37.171875,45.25
11:44:37.187500,18.80
11:44:37.203125,-7.01
11:44:37.218750,-31.92
11:44:37.234375,-55.75
11:44:37.250000,-78.03
11:44:37.265625,-97.70
11:44:37.281250,-113.36
11:44:37.296875,-123.75
11:44:37.312500,-128.24
11:44:37.328125,-127.03
11:44:37.343750,-121.12
11:44:37.359375,-111.86
11:44:37.375000,-100.59
11:44:37.390625,-88.35
11:44:37.406250,-75.85
11:44:37.421875,-63.61
11:44:37.437500,-52.14
11:44:37.453125,-42.08
11:44:37.468750,-34.04
11:44:37.484375,-28.47
11:44:37.500000,-25.39
11:44:37.515625,-24.37
11:44:37.531250,-24.61
11:44:37.546875,-25.31
11:44:37.562500,-26.04
11:44:37.578125,-26.84
11:44:37.593750,-28.12
11:44:37.609375,-30.26
11:44:37.625000,-33.26
11:44:37.640625,-36.64
11:44:37.656250,-39.66
11:44:37.671875,-41.79
11:44:37.687500,-43.13
11:44:37.703125,-44.38
11:44:37.718750,-46.54
11:44:37.734375,-50.37
11:44:37.750000,-55.96
11:44:37.765625,-62.65
11:44:37.781250,-69.36
11:44:37.796875,-75.13
11:44:37.812500,-79.48
11:44:37.828125,-82.58
11:44:37.843750,-85.06
11:44:37.859375,-87.67
11:44:37.875000,-91.02
11:44:37.890625,-95.37
11:44:37.906250,-100.54
11:44:37.921875,-105.93
11:44:37.937500,-110.53
11:44:37.953125,-113.11
11:44:37.968750,-112.54
11:44:37.984375,-108.09
11:44:38,-99.71
11:44:38.015625,-88.05
11:44:38.031250,-74.25
11:44:38.046875,-59.56
11:44:38.062500,-44.99
11:44:38.078125,-30.97
11:44:38.093750,-17.39
11:44:38.109375,-3.81
11:44:38.125000,10.14
11:44:38.140625,24.33
11:44:38.156250,38.01
11:44:38.171875,49.96
11:44:38.187500,58.95
11:44:38.203125,64.40
11:44:38.218750,66.63
11:44:38.234375,66.81
11:44:38.250000,66.36
11:44:38.265625,66.35
11:44:38.281250,67.00
11:44:38.296875,67.84
11:44:38.312500,68.20
11:44:38.328125,67.80
11:44:38.343750,67.15
11:44:38.359375,67.26
11:44:38.375000,69.15
11:44:38.390625,73.07
11:44:38.406250,78.27
11:44:38.421875,83.11
11:44:38.437500,85.70
11:44:38.453125,84.74
11:44:38.468750,80.02
11:44:38.484375,72.56
11:44:38.500000,64.10
11:44:38.515625,56.41
11:44:38.531250,50.58
11:44:38.546875,46.80
11:44:38.562500,44.42
11:44:38.578125,42.53
11:44:38.593750,40.44
11:44:38.609375,37.84
11:44:38.625000,34.80
11:44:38.640625,31.39
11:44:38.656250,27.51
11:44:38.671875,22.92
11:44:38.687500,17.47
11:44:38.703125,11.48
11:44:38.718750,5.69
11:44:38.734375,1.16
11:44:38.750000,-1.24
11:44:38.765625,-1.23
11:44:38.781250,0.74
11:44:38.796875,3.53
11:44:38.812500,5.80
11:44:38.828125,6.47
11:44:38.843750,5.05
11:44:38.859375,1.70
11:44:38.875000,-2.87
11:44:38.890625,-7.89
11:44:38.906250,-12.69
11:44:38.921875,-16.87
11:44:38.937500,-20.28
11:44:38.953125,-22.86
11:44:38.968750,-24.56
11:44:38.984375,-25.26
11:44:39,-24.88
11:44:39.015625,-23.39
11:44:39.031250,-20.91
11:44:39.046875,-17.62
11:44:39.062500,-13.68
11:44:39.078125,-9.20
11:44:39.093750,-4.28
11:44:39.109375,0.91
11:44:39.125000,6.01
11:44:39.140625,10.48
11:44:39.156250,13.78
11:44:39.171875,15.47
11:44:39.187500,15.40
11:44:39.203125,13.72
11:44:39.218750,10.76
11:44:39.234375,6.92
11:44:39.250000,2.58
11:44:39.265625,-1.93
11:44:39.281250,-6.32
11:44:39.296875,-10.37
11:44:39.312500,-13.97
11:44:39.328125,-17.21
11:44:39.343750,-20.37
11:44:39.359375,-23.85
11:44:39.375000,-27.97
11:44:39.390625,-32.82
11:44:39.406250,-38.23
11:44:39.421875,-43.74
11:44:39.437500,-48.73
11:44:39.453125,-52.52
11:44:39.468750,-54.54
11:44:39.484375,-54.39
11:44:39.500000,-52.05
11:44:39.515625,-47.92
11:44:39.531250,-42.74
11:44:39.546875,-37.39
11:44:39.562500,-32.62
11:44:39.578125,-28.88
11:44:39.593750,-26.18
11:44:39.609375,-24.28
11:44:39.625000,-22.86
11:44:39.640625,-21.72
11:44:39.656250,-20.80
11:44:39.671875,-20.14
11:44:39.687500,-19.75
11:44:39.703125,-19.48
11:44:39.718750,-19.20
11:44:39.734375,-18.77
11:44:39.750000,-18.21
11:44:39.765625,-17.70
11:44:39.781250,-17.51
11:44:39.796875,-17.88
11:44:39.812500,-18.91
11:44:39.828125,-20.47
11:44:39.843750,-22.28
11:44:39.859375,-24.00
11:44:39.875000,-25.34
11:44:39.890625,-26.13
11:44:39.906250,-26.31
11:44:39.921875,-25.87
11:44:39.937500,-24.87
11:44:39.953125,-23.46
11:44:39.968750,-21.88
11:44:39.984375,-20.46
11:44:40,-19.45
11:44:40.015625,-18.92
11:44:40.031250,-18.66
11:44:40.046875,-18.32
11:44:40.062500,-17.55
11:44:40.078125,-16.28
11:44:40.093750,-14.76
11:44:40.109375,-13.51
11:44:40.125000,-13.03
11:44:40.140625,-13.66
11:44:40.156250,-15.29
11:44:40.171875,-17.50
11:44:40.187500,-19.58
11:44:40.203125,-20.81
11:44:40.218750,-20.60
11:44:40.234375,-18.61
11:44:40.250000,-14.86
11:44:40.265625,-9.69
11:44:40.281250,-3.72
11:44:40.296875,2.35
11:44:40.312500,7.95
11:44:40.328125,12.83
11:44:40.343750,17.08
11:44:40.359375,21.04
11:44:40.375000,25.03
11:44:40.390625,29.12
11:44:40.406250,33.00
11:44:40.421875,36.10
11:44:40.437500,37.80
11:44:40.453125,37.83
11:44:40.468750,36.43
11:44:40.484375,34.44
11:44:40.500000,33.03
11:44:40.515625,33.29
11:44:40.531250,35.76
11:44:40.546875,40.18
11:44:40.562500,45.56
11:44:40.578125,50.52
11:44:40.593750,53.88
11:44:40.609375,55.02
11:44:40.625000,54.11
11:44:40.640625,51.89
11:44:40.656250,49.35
11:44:40.671875,47.28
11:44:40.687500,46.08
11:44:40.703125,45.73
11:44:40.718750,45.99
11:44:40.734375,46.59
11:44:40.750000,47.40
11:44:40.765625,48.44
11:44:40.781250,49.85
11:44:40.796875,51.74
11:44:40.812500,54.14
11:44:40.828125,56.98
11:44:40.843750,60.15
11:44:40.859375,63.60
11:44:40.875000,67.37
11:44:40.890625,71.46
11:44:40.906250,75.81
11:44:40.921875,80.17
11:44:40.937500,84.17
11:44:40.953125,87.46
11:44:40.968750,89.90
11:44:40.984375,91.57
11:44:41,92.68
11:44:41.015625,93.44
11:44:41.031250,93.83
11:44:41.046875,93.70
11:44:41.062500,92.86
11:44:41.078125,91.26
11:44:41.093750,89.03
11:44:41.109375,86.26
11:44:41.125000,82.71
11:44:41.140625,77.63
11:44:41.156250,69.94
11:44:41.171875,58.66
11:44:41.187500,43.49
11:44:41.203125,25.09
11:44:41.218750,5.11
11:44:41.234375,-14.31
11:44:41.250000,-31.19
11:44:41.265625,-44.22
11:44:41.281250,-52.94
11:44:41.296875,-57.55
11:44:41.312500,-58.68
11:44:41.328125,-57.14
11:44:41.343750,-53.89
11:44:41.359375,-50.05
11:44:41.375000,-46.84
11:44:41.390625,-45.27
11:44:41.406250,-45.83
11:44:41.421875,-48.22
11:44:41.437500,-51.55
11:44:41.453125,-54.68
11:44:41.468750,-56.79
11:44:41.484375,-57.76
11:44:41.500000,-58.05
11:44:41.515625,-58.44
11:44:41.531250,-59.40
11:44:41.546875,-60.86
11:44:41.562500,-62.27
11:44:41.578125,-62.91
11:44:41.593750,-62.33
11:44:41.609375,-60.56
11:44:41.625000,-58.02
11:44:41.640625,-55.23
11:44:41.656250,-52.61
11:44:41.671875,-50.26
11:44:41.687500,-48.15
11:44:41.703125,-46.19
11:44:41.718750,-44.38
11:44:41.734375,-42.81
11:44:41.750000,-41.50
11:44:41.765625,-40.30
11:44:41.781250,-38.79
11:44:41.796875,-36.41
11:44:41.812500,-32.60
11:44:41.828125,-27.08
11:44:41.843750,-19.97
11:44:41.859375,-11.91
11:44:41.875000,-3.84
11:44:41.890625,3.15
11:44:41.906250,8.22
11:44:41.921875,10.87
11:44:41.937500,11.04
11:44:41.953125,9.00
11:44:41.968750,5.21
11:44:41.984375,0.26
11:44:42,-5.29
11:44:42.015625,-10.94
11:44:42.031250,-16.40
11:44:42.046875,-21.63
11:44:42.062500,-26.82
11:44:42.078125,-32.21
11:44:42.093750,-37.82
11:44:42.109375,-43.38
11:44:42.125000,-48.32
11:44:42.140625,-52.13
11:44:42.156250,-54.57
11:44:42.171875,-55.83
11:44:42.187500,-56.37
11:44:42.203125,-56.70
11:44:42.218750,-57.15
11:44:42.234375,-57.80
11:44:42.250000,-58.53
11:44:42.265625,-59.14
11:44:42.281250,-59.47
11:44:42.296875,-59.45
11:44:42.312500,-59.11
11:44:42.328125,-58.64
11:44:42.343750,-58.27
11:44:42.359375,-58.28
11:44:42.375000,-58.76
11:44:42.390625,-59.62
11:44:42.406250,-60.57
11:44:42.421875,-61.46
11:44:42.437500,-62.38
11:44:42.453125,-63.81
11:44:42.468750,-66.32
11:44:42.484375,-70.24
11:44:42.500000,-75.39
11:44:42.515625,-80.97
11:44:42.531250,-85.86
11:44:42.546875,-89.07
11:44:42.562500,-89.95
11:44:42.578125,-88.36
11:44:42.593750,-84.45
11:44:42.609375,-78.49
11:44:42.625000,-70.83
11:44:42.640625,-61.98
11:44:42.656250,-52.74
11:44:42.671875,-44.10
11:44:42.687500,-37.00
11:44:42.703125,-31.89
11:44:42.718750,-28.54
11:44:42.734375,-26.20
11:44:42.750000,-23.97
11:44:42.765625,-21.37
11:44:42.781250,-18.48
11:44:42.796875,-15.79
11:44:42.812500,-13.81
11:44:42.828125,-12.63
11:44:42.843750,-11.88
11:44:42.859375,-10.90
11:44:42.875000,-9.10
11:44:42.890625,-6.29
11:44:42.906250,-2.71
11:44:42.921875,1.17
11:44:42.937500,4.81
11:44:42.953125,7.79
11:44:42.968750,9.83
11:44:42.984375,10.79
11:44:43,10.64
11:44:43.015625,9.51
11:44:43.031250,7.72
11:44:43.046875,5.73
11:44:43.062500,4.02
11:44:43.078125,2.95
11:44:43.093750,2.60
11:44:43.109375,2.79
11:44:43.125000,3.06
11:44:43.140625,2.85
11:44:43.156250,1.60
11:44:43.171875,-1.02
11:44:43.187500,-5.00
11:44:43.203125,-10.07
11:44:43.218750,-15.71
11:44:43.234375,-21.50
11:44:43.250000,-27.20
11:44:43.265625,-32.80
11:44:43.281250,-38.24
11:44:43.296875,-43.22
11:44:43.312500,-46.92
11:44:43.328125,-48.19
11:44:43.343750,-45.90
11:44:43.359375,-39.56
11:44:43.375000,-29.68
11:44:43.390625,-17.75
11:44:43.406250,-5.81
11:44:43.421875,4.24
11:44:43.437500,11.36
11:44:43.453125,15.47
11:44:43.468750,17.35
11:44:43.484375,18.05
11:44:43.500000,18.43
11:44:43.515625,18.89
11:44:43.531250,19.43
11:44:43.546875,19.93
11:44:43.562500,20.41
11:44:43.578125,21.11
11:44:43.593750,22.47
11:44:43.609375,24.81
11:44:43.625000,28.26
11:44:43.640625,32.63
11:44:43.656250,37.47
11:44:43.671875,42.16
11:44:43.687500,46.10
11:44:43.703125,48.94
11:44:43.718750,50.60
11:44:43.734375,51.31
11:44:43.750000,51.65
11:44:43.765625,52.51
11:44:43.781250,55.08
11:44:43.796875,60.58
11:44:43.812500,69.90
11:44:43.828125,83.09
11:44:43.843750,99.15
11:44:43.859375,116.05
11:44:43.875000,131.38
11:44:43.890625,143.00
11:44:43.906250,149.61
11:44:43.921875,150.90
11:44:43.937500,147.21
11:44:43.953125,139.06
11:44:43.968750,126.88
11:44:43.984375,111.08
11:44:44,92.26
11:44:44.015625,71.53
11:44:44.031250,50.56
11:44:44.046875,31.28
11:44:44.062500,15.51
11:44:44.078125,4.51
11:44:44.093750,-1.20
11:44:44.109375,-2.02
11:44:44.125000,0.84
11:44:44.140625,5.76
11:44:44.156250,11.10
11:44:44.171875,15.74
11:44:44.187500,19.16
11:44:44.203125,21.46
11:44:44.218750,22.99
11:44:44.234375,23.98
11:44:44.250000,24.46
11:44:44.265625,24.30
11:44:44.281250,23.38
11:44:44.296875,21.77
11:44:44.312500,19.66
11:44:44.328125,17.16
11:44:44.343750,14.33
11:44:44.359375,11.08
11:44:44.375000,7.41
11:44:44.390625,3.38
11:44:44.406250,-0.86
11:44:44.421875,-5.26
11:44:44.437500,-9.92
11:44:44.453125,-15.10
11:44:44.468750,-21.04
11:44:44.484375,-27.64
11:44:44.500000,-34.48
11:44:44.515625,-40.86
11:44:44.531250,-46.08
11:44:44.546875,-49.76
11:44:44.562500,-51.93
11:44:44.578125,-53.02
11:44:44.593750,-53.57
11:44:44.609375,-54.06
11:44:44.625000,-54.76
11:44:44.640625,-55.75
11:44:44.656250,-57.05
11:44:44.671875,-58.74
11:44:44.687500,-61.02
11:44:44.703125,-64.10
11:44:44.718750,-68.09
11:44:44.734375,-72.92
11:44:44.750000,-78.37
11:44:44.765625,-84.07
11:44:44.781250,-89.57
11:44:44.796875,-94.33
11:44:44.812500,-97.68
11:44:44.828125,-98.93
11:44:44.843750,-97.37
11:44:44.859375,-92.56
11:44:44.875000,-84.48
11:44:44.890625,-73.75
11:44:44.906250,-61.61
11:44:44.921875,-49.72
11:44:44.937500,-39.80
11:44:44.953125,-33.18
11:44:44.968750,-30.38
11:44:44.984375,-30.95
11:44:45,-33.57
11:44:45.015625,-36.45
11:44:45.031250,-37.93
11:44:45.046875,-36.93
11:44:45.062500,-33.24
11:44:45.078125,-27.45
11:44:45.093750,-20.51
11:44:45.109375,-13.31
11:44:45.125000,-6.33
11:44:45.140625,0.44
11:44:45.156250,7.38
11:44:45.171875,14.84
11:44:45.187500,22.87
11:44:45.203125,31.01
11:44:45.218750,38.38
11:44:45.234375,44.03
11:44:45.250000,47.37
11:44:45.265625,48.55
11:44:45.281250,48.52
11:44:45.296875,48.66
11:44:45.312500,50.29
11:44:45.328125,54.09
11:44:45.343750,60.03
11:44:45.359375,67.44
11:44:45.375000,75.43
11:44:45.390625,83.15
11:44:45.406250,89.77
11:44:45.421875,94.27
11:44:45.437500,95.41
11:44:45.453125,92.03
11:44:45.468750,83.71
11:44:45.484375,71.40
11:44:45.500000,57.49
11:44:45.515625,45.15
11:44:45.531250,37.18
11:44:45.546875,34.96
11:44:45.562500,38.01
11:44:45.578125,44.53
11:44:45.593750,52.21
11:44:45.609375,59.29
11:44:45.625000,64.92
11:44:45.640625,69.10
11:44:45.656250,72.15
11:44:45.671875,74.27
11:44:45.687500,75.28
11:44:45.703125,74.66
11:44:45.718750,71.99
11:44:45.734375,67.08
11:44:45.750000,60.18
11:44:45.765625,51.88
11:44:45.781250,42.86
11:44:45.796875,33.55
11:44:45.812500,24.04
11:44:45.828125,14.11
11:44:45.843750,3.57
11:44:45.859375,-7.28
11:44:45.875000,-17.65
11:44:45.890625,-26.39
11:44:45.906250,-32.62
11:44:45.921875,-36.31
11:44:45.937500,-38.49
11:44:45.953125,-40.81
11:44:45.968750,-44.84
11:44:45.984375,-51.22
11:44:46,-59.46
11:44:46.015625,-68.22
11:44:46.031250,-76.16
11:44:46.046875,-82.71
11:44:46.062500,-88.48
11:44:46.078125,-94.83
11:44:46.093750,-103.12
11:44:46.109375,-113.85
11:44:46.125000,-126.29
11:44:46.140625,-138.73
11:44:46.156250,-149.19
11:44:46.171875,-156.09
11:44:46.187500,-158.54
11:44:46.203125,-156.29
11:44:46.218750,-149.33
11:44:46.234375,-137.80
11:44:46.250000,-122.08
11:44:46.265625,-103.13
11:44:46.281250,-82.70
11:44:46.296875,-63.11
11:44:46.312500,-46.55
11:44:46.328125,-34.41
11:44:46.343750,-26.75
11:44:46.359375,-22.48
11:44:46.375000,-19.98
11:44:46.390625,-17.91
11:44:46.406250,-15.65
11:44:46.421875,-13.36
11:44:46.437500,-11.50
11:44:46.453125,-10.36
11:44:46.468750,-9.89
11:44:46.484375,-9.75
11:44:46.500000,-9.76
11:44:46.515625,-10.05
11:44:46.531250,-11.06
11:44:46.546875,-13.12
11:44:46.562500,-16.10
11:44:46.578125,-19.31
11:44:46.593750,-21.79
11:44:46.609375,-22.85
11:44:46.625000,-22.42
11:44:46.640625,-21.09
11:44:46.656250,-19.73
11:44:46.671875,-19.09
11:44:46.687500,-19.44
11:44:46.703125,-20.75
11:44:46.718750,-22.91
11:44:46.734375,-25.93
11:44:46.750000,-30.01
11:44:46.765625,-35.20
11:44:46.781250,-41.34
11:44:46.796875,-47.99
11:44:46.812500,-54.74
11:44:46.828125,-61.41
11:44:46.843750,-68.15
11:44:46.859375,-75.15
11:44:46.875000,-82.24
11:44:46.890625,-88.64
11:44:46.906250,-93.05
11:44:46.921875,-94.11
11:44:46.937500,-90.99
11:44:46.953125,-83.83
11:44:46.968750,-73.69
11:44:46.984375,-62.01
11:44:47,-50.11
11:44:47.015625,-38.65
11:44:47.031250,-27.76
11:44:47.046875,-17.24
11:44:47.062500,-7.07
11:44:47.078125,2.47
11:44:47.093750,10.78
11:44:47.109375,17.36
11:44:47.125000,22.07
11:44:47.140625,25.25
11:44:47.156250,27.59
11:44:47.171875,29.75
11:44:47.187500,32.10
11:44:47.203125,34.58
11:44:47.218750,36.88
11:44:47.234375,38.62
11:44:47.250000,39.70
11:44:47.265625,40.42
11:44:47.281250,41.46
11:44:47.296875,43.71
11:44:47.312500,47.98
11:44:47.328125,54.81
11:44:47.343750,64.19
11:44:47.359375,75.63
11:44:47.375000,88.21
11:44:47.390625,100.87
11:44:47.406250,112.74
11:44:47.421875,123.39
11:44:47.437500,132.99
11:44:47.453125,142.19
11:44:47.468750,151.90
11:44:47.484375,162.89
11:44:47.500000,175.47
11:44:47.515625,189.35
11:44:47.531250,203.56
11:44:47.546875,216.65
11:44:47.562500,226.97
11:44:47.578125,233.09
11:44:47.593750,234.32
11:44:47.609375,230.94
11:44:47.625000,224.22
11:44:47.640625,216.07
11:44:47.656250,208.35
11:44:47.671875,202.19
11:44:47.687500,197.68
11:44:47.703125,194.00
11:44:47.718750,189.98
11:44:47.734375,184.59
11:44:47.750000,177.37
11:44:47.765625,168.25
11:44:47.781250,157.30
11:44:47.796875,144.41
11:44:47.812500,129.33
11:44:47.828125,111.92
11:44:47.843750,92.50
11:44:47.859375,72.05
11:44:47.875000,52.03
11:44:47.890625,33.93
11:44:47.906250,18.88
11:44:47.921875,7.29
11:44:47.937500,-1.13
11:44:47.953125,-7.28
11:44:47.968750,-12.24
11:44:47.984375,-17.00
11:44:48,-22.25
11:44:48.015625,-28.19
11:44:48.031250,-34.58
11:44:48.046875,-40.90
11:44:48.062500,-46.63
11:44:48.078125,-51.46
11:44:48.093750,-55.44
11:44:48.109375,-58.94
11:44:48.125000,-62.54
11:44:48.140625,-66.72
11:44:48.156250,-71.77
11:44:48.171875,-77.60
11:44:48.187500,-83.87
11:44:48.203125,-90.15
11:44:48.218750,-96.12
11:44:48.234375,-101.78
11:44:48.250000,-107.48
11:44:48.265625,-113.76
11:44:48.281250,-121.10
11:44:48.296875,-129.78
11:44:48.312500,-139.72
11:44:48.328125,-150.43
11:44:48.343750,-161.01
11:44:48.359375,-170.24
11:44:48.375000,-176.64
11:44:48.390625,-178.74
11:44:48.406250,-175.50
11:44:48.421875,-166.89
11:44:48.437500,-154.09
11:44:48.453125,-139.37
11:44:48.468750,-125.21
11:44:48.484375,-113.41
11:44:48.500000,-104.42
11:44:48.515625,-97.33
11:44:48.531250,-90.64
11:44:48.546875,-83.30
11:44:48.562500,-75.31
11:44:48.578125,-67.74
11:44:48.593750,-61.99
11:44:48.609375,-58.97
11:44:48.625000,-58.69
11:44:48.640625,-60.48
11:44:48.656250,-63.55
11:44:48.671875,-67.61
11:44:48.687500,-72.87
11:44:48.703125,-79.43
11:44:48.718750,-86.68
11:44:48.734375,-93.01
11:44:48.750000,-96.29
11:44:48.765625,-94.68
11:44:48.781250,-87.52
11:44:48.796875,-75.50
11:44:48.812500,-60.23
11:44:48.828125,-43.37
11:44:48.843750,-25.94
11:44:48.859375,-8.28
11:44:48.875000,9.66
11:44:48.890625,27.75
11:44:48.906250,45.49
11:44:48.921875,62.17
11:44:48.937500,77.40
11:44:48.953125,91.46
11:44:48.968750,105.37
11:44:48.984375,120.30
11:44:49,136.85
11:44:49.015625,154.38
11:44:49.031250,170.93
11:44:49.046875,183.62
11:44:49.062500,189.69
11:44:49.078125,187.55
11:44:49.093750,177.65
11:44:49.109375,162.42
11:44:49.125000,145.53
11:44:49.140625,130.54
11:44:49.156250,119.80
11:44:49.171875,113.83
11:44:49.187500,111.62
11:44:49.203125,111.32
11:44:49.218750,111.24
11:44:49.234375,110.37
11:44:49.250000,108.41
11:44:49.265625,105.55
11:44:49.281250,102.09
11:44:49.296875,98.28
11:44:49.312500,94.19
11:44:49.328125,89.87
11:44:49.343750,85.33
11:44:49.359375,80.62
11:44:49.375000,75.89
11:44:49.390625,71.34
11:44:49.406250,67.26
11:44:49.421875,63.96
11:44:49.437500,61.74
11:44:49.453125,60.68
11:44:49.468750,60.77
11:44:49.484375,61.83
11:44:49.500000,63.61
11:44:49.515625,65.78
11:44:49.531250,67.93
11:44:49.546875,69.67
11:44:49.562500,70.72
11:44:49.578125,71.00
11:44:49.593750,70.65
11:44:49.609375,69.87
11:44:49.625000,68.72
11:44:49.640625,66.92
11:44:49.656250,64.02
11:44:49.671875,59.69
11:44:49.687500,54.13
11:44:49.703125,48.10
11:44:49.718750,42.71
11:44:49.734375,38.75
11:44:49.750000,36.26
11:44:49.765625,34.43
11:44:49.781250,31.90
11:44:49.796875,27.46
11:44:49.812500,20.47
11:44:49.828125,11.11
11:44:49.843750,0.13
11:44:49.859375,-11.53
11:44:49.875000,-23.01
11:44:49.890625,-33.65
11:44:49.906250,-42.94
11:44:49.921875,-50.44
11:44:49.937500,-55.85
11:44:49.953125,-59.11
11:44:49.968750,-60.51
11:44:49.984375,-60.71
11:44:50,-60.52
11:44:50.015625,-60.80
11:44:50.031250,-62.20
11:44:50.046875,-65.15
11:44:50.062500,-69.88
11:44:50.078125,-76.62
11:44:50.093750,-85.69
11:44:50.109375,-97.42
11:44:50.125000,-111.62
11:44:50.140625,-127.17
11:44:50.156250,-141.73
11:44:50.171875,-152.23
11:44:50.187500,-155.86
11:44:50.203125,-151.49
11:44:50.218750,-140.66
11:44:50.234375,-127.47
11:44:50.250000,-117.27
11:44:50.265625,-114.44
11:44:50.281250,-120.47
11:44:50.296875,-133.41
11:44:50.312500,-148.88
11:44:50.328125,-162.30
11:44:50.343750,-170.92
11:44:50.359375,-174.68
11:44:50.375000,-175.51
11:44:50.390625,-175.74
11:44:50.406250,-176.60
11:44:50.421875,-177.83
11:44:50.437500,-178.38
11:44:50.453125,-177.57
11:44:50.468750,-175.73
11:44:50.484375,-173.97
11:44:50.500000,-173.21
11:44:50.515625,-173.40
11:44:50.531250,-173.38
11:44:50.546875,-171.62
11:44:50.562500,-167.14
11:44:50.578125,-160.14
11:44:50.593750,-151.73
11:44:50.609375,-143.38
11:44:50.625000,-136.19
11:44:50.640625,-130.53
11:44:50.656250,-126.09
11:44:50.671875,-122.12
11:44:50.687500,-117.56
11:44:50.703125,-111.14
11:44:50.718750,-101.46
11:44:50.734375,-87.16
11:44:50.750000,-67.28
11:44:50.765625,-41.55
11:44:50.781250,-10.43
11:44:50.796875,25.09
11:44:50.812500,63.75
11:44:50.828125,104.24
11:44:50.843750,145.13
11:44:50.859375,184.78
11:44:50.875000,221.42
11:44:50.890625,253.34
11:44:50.906250,279.28
11:44:50.921875,298.83
11:44:50.937500,312.40
11:44:50.953125,320.94
11:44:50.968750,325.44
11:44:50.984375,326.56
11:44:51,324.55
11:44:51.015625,319.41
11:44:51.031250,311.11
11:44:51.046875,299.85
11:44:51.062500,286.00
11:44:51.078125,270.03
11:44:51.093750,252.37
11:44:51.109375,233.34
11:44:51.125000,213.24
11:44:51.140625,192.43
11:44:51.156250,171.42
11:44:51.171875,150.81
11:44:51.187500,131.22
11:44:51.203125,113.11
11:44:51.218750,96.80
11:44:51.234375,82.40
11:44:51.250000,69.76
11:44:51.265625,58.55
11:44:51.281250,48.24
11:44:51.296875,38.22
11:44:51.312500,27.87
11:44:51.328125,16.77
11:44:51.343750,4.78
11:44:51.359375,-7.87
11:44:51.375000,-20.72
11:44:51.390625,-33.24
11:44:51.406250,-45.04
11:44:51.421875,-56.02
11:44:51.437500,-66.37
11:44:51.453125,-76.46
11:44:51.468750,-86.66
11:44:51.484375,-97.23
11:44:51.500000,-108.15
11:44:51.515625,-118.98
11:44:51.531250,-128.79
11:44:51.546875,-136.20
11:44:51.562500,-139.64
11:44:51.578125,-137.83
11:44:51.593750,-130.24
11:44:51.609375,-117.42
11:44:51.625000,-101.02
11:44:51.640625,-83.28
11:44:51.656250,-66.43
11:44:51.671875,-52.15
11:44:51.687500,-41.30
11:44:51.703125,-34.02
11:44:51.718750,-29.98
11:44:51.734375,-28.62
11:44:51.750000,-29.30
11:44:51.765625,-31.33
11:44:51.781250,-34.07
11:44:51.796875,-36.87
11:44:51.812500,-39.19
11:44:51.828125,-40.55
11:44:51.843750,-40.48
11:44:51.859375,-38.68
11:44:51.875000,-35.16
11:44:51.890625,-30.44
11:44:51.906250,-25.42
11:44:51.921875,-20.97
11:44:51.937500,-17.41
11:44:51.953125,-14.15
11:44:51.968750,-9.88
11:44:51.984375,-3.30
11:44:52,6.12
11:44:52.015625,17.72
11:44:52.031250,29.84
11:44:52.046875,40.60
11:44:52.062500,48.77
11:44:52.078125,53.96
11:44:52.093750,56.53
11:44:52.109375,56.86
11:44:52.125000,54.98
11:44:52.140625,50.58
11:44:52.156250,43.37
11:44:52.171875,33.60
11:44:52.187500,22.16
11:44:52.203125,10.32
11:44:52.218750,-0.81
11:44:52.234375,-10.69
11:44:52.250000,-19.51
11:44:52.265625,-28.07
11:44:52.281250,-37.34
11:44:52.296875,-48.08
11:44:52.312500,-60.59
11:44:52.328125,-74.47
11:44:52.343750,-88.61
11:44:52.359375,-101.31
11:44:52.375000,-110.60
11:44:52.390625,-114.62
11:44:52.406250,-112.21
11:44:52.421875,-103.26
11:44:52.437500,-88.77
11:44:52.453125,-70.62
11:44:52.468750,-51.08
11:44:52.484375,-32.28
11:44:52.500000,-15.88
11:44:52.515625,-2.93
11:44:52.531250,6.04
11:44:52.546875,10.96
11:44:52.562500,12.15
11:44:52.578125,10.24
11:44:52.593750,6.17
11:44:52.609375,1.12
11:44:52.625000,-3.65
11:44:52.640625,-6.96
11:44:52.656250,-7.92
11:44:52.671875,-6.12
11:44:52.687500,-1.73
11:44:52.703125,4.57
11:44:52.718750,11.76
11:44:52.734375,18.82
11:44:52.750000,24.97
11:44:52.765625,29.81
11:44:52.781250,33.23
11:44:52.796875,35.31
11:44:52.812500,36.16
11:44:52.828125,35.93
11:44:52.843750,34.79
11:44:52.859375,32.95
11:44:52.875000,30.65
11:44:52.890625,28.12
11:44:52.906250,25.43
11:44:52.921875,22.50
11:44:52.937500,19.15
11:44:52.953125,15.17
11:44:52.968750,10.49
11:44:52.984375,5.24
11:44:53,-0.21
11:44:53.015625,-5.34
11:44:53.031250,-9.66
11:44:53.046875,-13.03
11:44:53.062500,-15.77
11:44:53.078125,-18.75
11:44:53.093750,-23.05
11:44:53.109375,-29.55
11:44:53.125000,-38.32
11:44:53.140625,-48.48
11:44:53.156250,-58.24
11:44:53.171875,-65.44
11:44:53.187500,-68.16
11:44:53.203125,-65.29
11:44:53.218750,-56.78
11:44:53.234375,-43.58
11:44:53.250000,-27.30
11:44:53.265625,-9.83
11:44:53.281250,7.07
11:44:53.296875,21.95
11:44:53.312500,33.79
11:44:53.328125,42.01
11:44:53.343750,46.45
11:44:53.359375,47.36
11:44:53.375000,45.29
11:44:53.390625,41.06
11:44:53.406250,35.51
11:44:53.421875,29.40
11:44:53.437500,23.19
11:44:53.453125,17.16
11:44:53.468750,11.45
11:44:53.484375,6.31
11:44:53.500000,2.09
11:44:53.515625,-0.80
11:44:53.531250,-2.12
11:44:53.546875,-1.99
11:44:53.562500,-0.89
11:44:53.578125,0.48
11:44:53.593750,1.48
11:44:53.609375,1.74
11:44:53.625000,1.20
11:44:53.640625,-0.01
11:44:53.656250,-1.81
11:44:53.671875,-4.31
11:44:53.687500,-7.80
11:44:53.703125,-12.46
11:44:53.718750,-18.29
11:44:53.734375,-24.89
11:44:53.750000,-31.60
11:44:53.765625,-37.77
11:44:53.781250,-43.08
11:44:53.796875,-47.70
11:44:53.812500,-52.24
11:44:53.828125,-57.45
11:44:53.843750,-63.80
11:44:53.859375,-71.16
11:44:53.875000,-78.68
11:44:53.890625,-85.09
11:44:53.906250,-89.02
11:44:53.921875,-89.47
11:44:53.937500,-85.97
11:44:53.953125,-78.59
11:44:53.968750,-67.78
11:44:53.984375,-54.20
11:44:54,-38.69
11:44:54.015625,-22.20
11:44:54.031250,-5.85
11:44:54.046875,9.28
11:44:54.062500,22.33
11:44:54.078125,32.84
11:44:54.093750,40.87
11:44:54.109375,46.89
11:44:54.125000,51.64
11:44:54.140625,55.89
11:44:54.156250,60.30
11:44:54.171875,65.31
11:44:54.187500,71.09
11:44:54.203125,77.44
11:44:54.218750,83.82
11:44:54.234375,89.47
11:44:54.250000,93.67
11:44:54.265625,96.08
11:44:54.281250,96.76
11:44:54.296875,96.10
11:44:54.312500,94.52
11:44:54.328125,92.26
11:44:54.343750,89.21
11:44:54.359375,85.12
11:44:54.375000,79.82
11:44:54.390625,73.35
11:44:54.406250,65.98
11:44:54.421875,58.07
11:44:54.437500,49.78
11:44:54.453125,41.08
11:44:54.468750,31.79
11:44:54.484375,21.71
11:44:54.500000,10.78
11:44:54.515625,-0.84
11:44:54.531250,-12.84
11:44:54.546875,-24.69
11:44:54.562500,-35.60
11:44:54.578125,-44.52
11:44:54.593750,-50.24
11:44:54.609375,-51.67
11:44:54.625000,-48.21
11:44:54.640625,-40.02
11:44:54.656250,-28.05
11:44:54.671875,-13.87
11:44:54.687500,0.84
11:44:54.703125,14.66
11:44:54.718750,26.72
11:44:54.734375,36.63
11:44:54.750000,44.37
11:44:54.765625,50.01
11:44:54.781250,53.59
11:44:54.796875,55.10
11:44:54.812500,54.59
11:44:54.828125,52.27
11:44:54.843750,48.58
11:44:54.859375,44.16
11:44:54.875000,39.68
11:44:54.890625,35.64
11:44:54.906250,32.30
11:44:54.921875,29.65
11:44:54.937500,27.50
11:44:54.953125,25.64
11:44:54.968750,23.94
11:44:54.984375,22.33
11:44:55,20.74
11:44:55.015625,18.99
11:44:55.031250,16.74
11:44:55.046875,13.66
11:44:55.062500,9.55
11:44:55.078125,4.53
11:44:55.093750,-1.06
11:44:55.109375,-6.76
11:44:55.125000,-12.29
11:44:55.140625,-17.61
11:44:55.156250,-23.00
11:44:55.171875,-28.86
11:44:55.187500,-35.61
11:44:55.203125,-43.49
11:44:55.218750,-52.39
11:44:55.234375,-61.75
11:44:55.250000,-70.50
11:44:55.265625,-77.13
11:44:55.281250,-80.04
11:44:55.296875,-77.94
11:44:55.312500,-70.31
11:44:55.328125,-57.67
11:44:55.343750,-41.37
11:44:55.359375,-23.30
11:44:55.375000,-5.28
11:44:55.390625,11.29
11:44:55.406250,25.46
11:44:55.421875,36.76
11:44:55.437500,45.01
11:44:55.453125,50.31
11:44:55.468750,52.99
11:44:55.484375,53.66
11:44:55.500000,53.13
11:44:55.515625,52.20
11:44:55.531250,51.45
11:44:55.546875,51.10
11:44:55.562500,51.02
11:44:55.578125,50.82
11:44:55.593750,50.08
11:44:55.609375,48.55
11:44:55.625000,46.33
11:44:55.640625,43.83
11:44:55.656250,41.58
11:44:55.671875,40.02
11:44:55.687500,39.13
11:44:55.703125,38.43
11:44:55.718750,37.04
11:44:55.734375,34.09
11:44:55.750000,29.07
11:44:55.765625,22.08
11:44:55.781250,13.68
11:44:55.796875,4.70
11:44:55.812500,-4.13
11:44:55.828125,-12.32
11:44:55.843750,-19.65
11:44:55.859375,-26.15
11:44:55.875000,-32.08
11:44:55.890625,-37.90
11:44:55.906250,-44.16
11:44:55.921875,-51.34
11:44:55.937500,-59.39
11:44:55.953125,-67.49
11:44:55.968750,-74.15
11:44:55.984375,-77.60
11:44:56,-76.44
11:44:56.015625,-70.24
11:44:56.031250,-59.71
11:44:56.046875,-46.44
11:44:56.062500,-32.28
11:44:56.078125,-18.75
11:44:56.093750,-6.72
11:44:56.109375,3.57
11:44:56.125000,12.24
11:44:56.140625,19.38
11:44:56.156250,24.90
11:44:56.171875,28.60
11:44:56.187500,30.35
11:44:56.203125,30.36
11:44:56.218750,29.18
11:44:56.234375,27.60
11:44:56.250000,26.35
11:44:56.265625,25.79
11:44:56.281250,25.81
11:44:56.296875,25.98
11:44:56.312500,25.76
11:44:56.328125,24.81
11:44:56.343750,23.09
11:44:56.359375,20.79
11:44:56.375000,18.24
11:44:56.390625,15.74
11:44:56.406250,13.46
11:44:56.421875,11.41
11:44:56.437500,9.41
11:44:56.453125,7.18
11:44:56.468750,4.44
11:44:56.484375,1.07
11:44:56.500000,-2.86
11:44:56.515625,-7.05
11:44:56.531250,-11.19
11:44:56.546875,-15.08
11:44:56.562500,-18.78
11:44:56.578125,-22.54
11:44:56.593750,-26.72
11:44:56.609375,-31.65
11:44:56.625000,-37.53
11:44:56.640625,-44.48
11:44:56.656250,-52.49
11:44:56.671875,-61.31
11:44:56.687500,-70.23
11:44:56.703125,-78.06
11:44:56.718750,-83.33
11:44:56.734375,-84.65
11:44:56.750000,-81.24
11:44:56.765625,-73.22
11:44:56.781250,-61.53
11:44:56.796875,-47.61
11:44:56.812500,-32.92
11:44:56.828125,-18.59
11:44:56.843750,-5.30
11:44:56.859375,6.57
11:44:56.875000,16.79
11:44:56.890625,25.11
11:44:56.906250,31.28
11:44:56.921875,35.21
11:44:56.937500,36.99
11:44:56.953125,36.98
11:44:56.968750,35.73
11:44:56.984375,33.90
11:44:57,32.11
11:44:57.015625,30.87
11:44:57.031250,30.48
11:44:57.046875,30.95
11:44:57.062500,32.02
11:44:57.078125,33.24
11:44:57.093750,34.10
11:44:57.109375,34.21
11:44:57.125000,33.47
11:44:57.140625,32.02
11:44:57.156250,30.09
11:44:57.171875,27.87
11:44:57.187500,25.34
11:44:57.203125,22.34
11:44:57.218750,18.62
11:44:57.234375,14.00
11:44:57.250000,8.42
11:44:57.265625,1.93
11:44:57.281250,-5.31
11:44:57.296875,-13.02
11:44:57.312500,-20.79
11:44:57.328125,-28.10
11:44:57.343750,-34.47
11:44:57.359375,-39.64
11:44:57.375000,-43.72
11:44:57.390625,-47.28
11:44:57.406250,-51.10
11:44:57.421875,-55.81
11:44:57.437500,-61.62
11:44:57.453125,-68.11
11:44:57.468750,-74.36
11:44:57.484375,-79.20
11:44:57.500000,-81.50
11:44:57.515625,-80.42
11:44:57.531250,-75.57
11:44:57.546875,-67.09
11:44:57.562500,-55.66
11:44:57.578125,-42.27
11:44:57.593750,-28.14
11:44:57.609375,-14.36
11:44:57.625000,-1.74
11:44:57.640625,9.31
11:44:57.656250,18.67
11:44:57.671875,26.36
11:44:57.687500,32.38
11:44:57.703125,36.75
11:44:57.718750,39.51
11:44:57.734375,40.88
11:44:57.750000,41.27
11:44:57.765625,41.17
11:44:57.781250,41.04
11:44:57.796875,41.09
11:44:57.812500,41.37
11:44:57.828125,41.79
11:44:57.843750,42.24
11:44:57.859375,42.69
11:44:57.875000,43.18
11:44:57.890625,43.79
11:44:57.906250,44.58
11:44:57.921875,45.60
11:44:57.937500,46.90
11:44:57.953125,48.52
11:44:57.968750,50.46
11:44:57.984375,52.65
11:44:58,54.88
11:44:58.015625,56.74
11:44:58.031250,57.63
11:44:58.046875,56.83
11:44:58.062500,53.72
11:44:58.078125,47.92
11:44:58.093750,39.47
11:44:58.109375,28.95
11:44:58.125000,17.34
11:44:58.140625,5.69
11:44:58.156250,-5.24
11:44:58.171875,-15.24
11:44:58.187500,-24.65
11:44:58.203125,-33.99
11:44:58.218750,-43.48
11:44:58.234375,-52.65
11:44:58.250000,-60.25
11:44:58.265625,-64.71
11:44:58.281250,-64.68
11:44:58.296875,-59.72
11:44:58.312500,-50.50
11:44:58.328125,-38.54
11:44:58.343750,-25.68
11:44:58.359375,-13.47
11:44:58.375000,-2.85
11:44:58.390625,5.78
11:44:58.406250,12.27
11:44:58.421875,16.52
11:44:58.437500,18.50
11:44:58.453125,18.37
11:44:58.468750,16.70
11:44:58.484375,14.45
11:44:58.500000,12.63
11:44:58.515625,11.91
11:44:58.531250,12.39
11:44:58.546875,13.59
11:44:58.562500,14.81
11:44:58.578125,15.51
11:44:58.593750,15.53
11:44:58.609375,15.04
11:44:58.625000,14.32
11:44:58.640625,13.51
11:44:58.656250,12.56
11:44:58.671875,11.32
11:44:58.687500,9.75
11:44:58.703125,8.02
11:44:58.718750,6.44
11:44:58.734375,5.27
11:44:58.750000,4.59
11:44:58.765625,4.17
11:44:58.781250,3.59
11:44:58.796875,2.39
11:44:58.812500,0.33
11:44:58.828125,-2.52
11:44:58.843750,-5.83
11:44:58.859375,-9.09
11:44:58.875000,-11.86
11:44:58.890625,-13.89
11:44:58.906250,-15.19
11:44:58.921875,-15.92
11:44:58.937500,-16.37
11:44:58.953125,-16.87
11:44:58.968750,-17.81
11:44:58.984375,-19.49
11:44:59,-22.01
11:44:59.015625,-25.00
11:44:59.031250,-27.51
11:44:59.046875,-28.14
11:44:59.062500,-25.48
11:44:59.078125,-18.59
11:44:59.093750,-7.41
11:44:59.109375,7.14
11:44:59.125000,23.57
11:44:59.140625,40.38
11:44:59.156250,56.47
11:44:59.171875,71.41
11:44:59.187500,85.21
11:44:59.203125,98.05
11:44:59.218750,109.87
11:44:59.234375,120.30
11:44:59.250000,128.67
11:44:59.265625,134.35
11:44:59.281250,136.97
11:44:59.296875,136.52
11:44:59.312500,133.34
11:44:59.328125,128.01
11:44:59.343750,121.20
11:44:59.359375,113.58
11:44:59.375000,105.77
11:44:59.390625,98.30
11:44:59.406250,91.47
11:44:59.421875,85.34
11:44:59.437500,79.55
11:44:59.453125,73.42
11:44:59.468750,66.05
11:44:59.484375,56.64
11:44:59.500000,44.76
11:44:59.515625,30.55
11:44:59.531250,14.68
11:44:59.546875,-1.87
11:44:59.562500,-18.06
11:44:59.578125,-33.08
11:44:59.593750,-46.49
11:44:59.609375,-58.21
11:44:59.625000,-68.43
11:44:59.640625,-77.41
11:44:59.656250,-85.32
11:44:59.671875,-92.20
11:44:59.687500,-97.99
11:44:59.703125,-102.69
11:44:59.718750,-106.44
11:44:59.734375,-109.47
11:44:59.750000,-112.00
11:44:59.765625,-114.22
11:44:59.781250,-116.27
11:44:59.796875,-118.26
11:44:59.812500,-120.26
11:44:59.828125,-122.16
11:44:59.843750,-123.43
11:44:59.859375,-123.10
11:44:59.875000,-119.88
11:44:59.890625,-112.54
11:44:59.906250,-100.53
11:44:59.921875,-84.21
11:44:59.937500,-64.95
11:44:59.953125,-44.73
11:44:59.968750,-25.54
11:44:59.984375,-8.88
11:45:00,4.53
11:45:00.015625,14.71
11:45:00.031250,22.15
11:45:00.046875,27.42
11:45:00.062500,30.87
11:45:00.078125,32.42
11:45:00.093750,31.78
11:45:00.109375,28.64
11:45:00.125000,23.12
11:45:00.140625,15.84
11:45:00.156250,7.69
11:45:00.171875,-0.50
11:45:00.187500,-8.43
11:45:00.203125,-16.29
11:45:00.218750,-24.52
11:45:00.234375,-33.32
11:45:00.250000,-42.44
11:45:00.265625,-51.34
11:45:00.281250,-59.78
11:45:00.296875,-68.06
11:45:00.312500,-76.89
11:45:00.328125,-86.57
11:45:00.343750,-96.29
11:45:00.359375,-103.92
11:45:00.375000,-106.79
11:45:00.390625,-103.08
11:45:00.406250,-92.99
11:45:00.421875,-78.95
11:45:00.437500,-64.70
11:45:00.453125,-53.66
11:45:00.468750,-47.62
11:45:00.484375,-46.29
11:45:00.500000,-47.88
11:45:00.515625,-50.19
11:45:00.531250,-51.65
11:45:00.546875,-51.66
11:45:00.562500,-50.46
11:45:00.578125,-48.60
11:45:00.593750,-46.67
11:45:00.609375,-45.15
11:45:00.625000,-44.52
11:45:00.640625,-45.23
11:45:00.656250,-47.59
11:45:00.671875,-51.48
11:45:00.687500,-56.29
11:45:00.703125,-60.76
11:45:00.718750,-63.32
11:45:00.734375,-62.46
11:45:00.750000,-57.18
11:45:00.765625,-47.37
11:45:00.781250,-33.86
11:45:00.796875,-18.23
11:45:00.812500,-2.35
11:45:00.828125,12.14
11:45:00.843750,24.17
11:45:00.859375,33.46
11:45:00.875000,40.29
11:45:00.890625,45.32
11:45:00.906250,49.21
11:45:00.921875,52.38
11:45:00.937500,54.99
11:45:00.953125,57.00
11:45:00.968750,58.31
11:45:00.984375,58.93
11:45:01,58.99
11:45:01.015625,58.83
11:45:01.031250,58.89
11:45:01.046875,59.60
11:45:01.062500,61.29
11:45:01.078125,64.00
11:45:01.093750,67.50
11:45:01.109375,71.23
11:45:01.125000,74.51
11:45:01.140625,76.70
11:45:01.156250,77.41
11:45:01.171875,76.62
11:45:01.187500,74.55
11:45:01.203125,71.52
11:45:01.218750,67.76
11:45:01.234375,63.36
11:45:01.250000,58.35
11:45:01.265625,52.83
11:45:01.281250,47.10
11:45:01.296875,41.52
11:45:01.312500,36.39
11:45:01.328125,31.74
11:45:01.343750,27.35
11:45:01.359375,22.84
11:45:01.375000,17.86
11:45:01.390625,12.31
