12:21:33,-0.00
12:21:33.015625,-0.00
12:21:33.031250,-0.00
12:21:33.046875,-0.00
12:21:33.062500,-0.00
12:21:33.078125,-0.00
12:21:33.093750,-0.00
12:21:33.109375,-0.00
12:21:33.125000,-0.00
12:21:33.140625,-0.01
12:21:33.156250,-0.00
12:21:33.171875,0.00
12:21:33.187500,0.01
12:21:33.203125,0.01
12:21:33.218750,-0.00
12:21:33.234375,-0.03
12:21:33.250000,-0.05
12:21:33.265625,-0.05
12:21:33.281250,-0.00
12:21:33.296875,0.13
12:21:33.312500,0.36
12:21:33.328125,0.66
12:21:33.343750,1.01
12:21:33.359375,1.37
12:21:33.375000,1.72
12:21:33.390625,2.06
12:21:33.406250,2.40
12:21:33.421875,2.77
12:21:33.437500,3.24
12:21:33.453125,3.80
12:21:33.468750,4.42
12:21:33.484375,5.06
12:21:33.500000,5.66
12:21:33.515625,6.20
12:21:33.531250,6.68
12:21:33.546875,7.15
12:21:33.562500,7.64
12:21:33.578125,8.31
12:21:33.593750,9.14
12:21:33.609375,10.09
12:21:33.625000,11.04
12:21:33.640625,11.88
12:21:33.656250,12.56
12:21:33.671875,13.14
12:21:33.687500,13.76
12:21:33.703125,14.58
12:21:33.718750,15.96
12:21:33.734375,17.91
12:21:33.750000,20.32
12:21:33.765625,22.90
12:21:33.781250,25.38
12:21:33.796875,27.58
12:21:33.812500,29.57
12:21:33.828125,31.68
12:21:33.843750,34.20
12:21:33.859375,37.81
12:21:33.875000,42.54
12:21:33.890625,48.15
12:21:33.906250,54.10
12:21:33.921875,59.83
12:21:33.937500,64.97
12:21:33.953125,69.58
12:21:33.968750,74.14
12:21:33.984375,79.19
12:21:34,85.71
12:21:34.015625,93.76
12:21:34.031250,103.00
12:21:34.046875,112.62
12:21:34.062500,121.73
12:21:34.078125,129.77
12:21:34.093750,136.75
12:21:34.109375,144.29
12:21:34.125000,150.58
12:21:34.140625,157.77
12:21:34.156250,166.64
12:21:34.171875,177.95
12:21:34.187500,191.79
12:21:34.203125,206.97
12:21:34.218750,220.57
12:21:34.234375,228.25
12:21:34.250000,225.36
12:21:34.265625,208.37
12:21:34.281250,176.87
12:21:34.296875,132.76
12:21:34.312500,80.05
12:21:34.328125,23.07
12:21:34.343750,-34.94
12:21:34.359375,-92.44
12:21:34.375000,-149.16
12:21:34.390625,-205.23
12:21:34.406250,-260.49
12:21:34.421875,-313.74
12:21:34.437500,-363.87
12:21:34.453125,-409.83
12:21:34.468750,-450.91
12:21:34.484375,-486.50
12:21:34.500000,-515.74
12:21:34.515625,-537.23
12:21:34.531250,-549.22
12:21:34.546875,-550.04
12:21:34.562500,-538.37
12:21:34.578125,-514.20
12:21:34.593750,-478.67
12:21:34.609375,-433.88
12:21:34.625000,-382.45
12:21:34.640625,-327.02
12:21:34.656250,-269.84
12:21:34.671875,-212.63
12:21:34.687500,-156.70
12:21:34.703125,-102.95
12:21:34.718750,-52.37
12:21:34.734375,-5.90
12:21:34.750000,35.58
12:21:34.765625,71.43
12:21:34.781250,101.35
12:21:34.796875,125.50
12:21:34.812500,144.38
12:21:34.828125,158.68
12:21:34.843750,169.15
12:21:34.859375,176.37
12:21:34.875000,180.75
12:21:34.890625,182.57
12:21:34.906250,182.07
12:21:34.921875,179.51
12:21:34.937500,175.23
12:21:34.953125,169.65
12:21:34.968750,163.18
12:21:34.984375,156.15
12:21:35,148.81
12:21:35.015625,141.30
12:21:35.031250,133.69
12:21:35.046875,126.02
12:21:35.062500,118.33
12:21:35.078125,110.69
12:21:35.093750,103.16
12:21:35.109375,95.80
12:21:35.125000,88.68
12:21:35.140625,81.83
12:21:35.156250,75.25
12:21:35.171875,68.95
12:21:35.187500,62.95
12:21:35.203125,57.25
12:21:35.218750,51.86
12:21:35.234375,46.78
12:21:35.250000,42.03
12:21:35.265625,37.59
12:21:35.281250,33.45
12:21:35.296875,29.61
12:21:35.312500,26.07
12:21:35.328125,22.81
12:21:35.343750,19.82
12:21:35.359375,17.11
12:21:35.375000,14.67
12:21:35.390625,12.48
12:21:35.406250,10.54
12:21:35.421875,8.83
12:21:35.437500,7.35
12:21:35.453125,6.07
12:21:35.468750,4.97
12:21:35.484375,4.05
12:21:35.500000,3.27
12:21:35.515625,2.62
12:21:35.531250,2.09
12:21:35.546875,1.65
12:21:35.562500,1.30
12:21:35.578125,1.01
12:21:35.593750,0.79
12:21:35.609375,0.61
12:21:35.625000,0.47
12:21:35.640625,0.37
12:21:35.656250,0.29
12:21:35.671875,0.23
12:21:35.687500,0.19
12:21:35.703125,0.16
12:21:35.718750,0.15
12:21:35.734375,0.15
12:21:35.750000,0.16
12:21:35.765625,0.17
12:21:35.781250,0.19
12:21:35.796875,0.22
12:21:35.812500,0.26
12:21:35.828125,0.30
12:21:35.843750,0.34
12:21:35.859375,0.38
12:21:35.875000,0.42
12:21:35.890625,0.47
12:21:35.906250,0.52
12:21:35.921875,0.56
12:21:35.937500,0.61
12:21:35.953125,0.67
12:21:35.968750,0.72
12:21:35.984375,0.78
12:21:36,0.85
12:21:36.015625,0.92
12:21:36.031250,1.00
12:21:36.046875,1.09
12:21:36.062500,1.19
12:21:36.078125,1.31
12:21:36.093750,1.43
12:21:36.109375,1.57
12:21:36.125000,1.73
12:21:36.140625,1.90
12:21:36.156250,2.09
12:21:36.171875,2.31
12:21:36.187500,2.55
12:21:36.203125,2.81
12:21:36.218750,3.10
12:21:36.234375,3.42
12:21:36.250000,3.77
12:21:36.265625,4.15
12:21:36.281250,4.57
12:21:36.296875,5.02
12:21:36.312500,5.51
12:21:36.328125,6.03
12:21:36.343750,6.60
12:21:36.359375,7.20
12:21:36.375000,7.85
12:21:36.390625,8.54
12:21:36.406250,9.28
12:21:36.421875,10.06
12:21:36.437500,10.88
12:21:36.453125,11.76
12:21:36.468750,12.67
12:21:36.484375,13.64
12:21:36.500000,14.66
12:21:36.515625,15.75
12:21:36.531250,16.90
12:21:36.546875,18.11
12:21:36.562500,19.36
12:21:36.578125,20.64
12:21:36.593750,21.89
12:21:36.609375,23.02
12:21:36.625000,23.93
12:21:36.640625,24.48
12:21:36.656250,24.55
12:21:36.671875,24.00
12:21:36.687500,22.78
12:21:36.703125,20.84
12:21:36.718750,18.20
12:21:36.734375,14.92
12:21:36.750000,11.04
12:21:36.765625,6.72
12:21:36.781250,2.11
12:21:36.796875,-2.60
12:21:36.812500,-7.20
12:21:36.828125,-11.44
12:21:36.843750,-15.12
12:21:36.859375,-18.08
12:21:36.875000,-20.22
12:21:36.890625,-21.56
12:21:36.906250,-22.18
12:21:36.921875,-22.23
12:21:36.937500,-21.88
12:21:36.953125,-21.26
12:21:36.968750,-20.44
12:21:36.984375,-19.45
12:21:37,-18.27
12:21:37.015625,-16.94
12:21:37.031250,-15.56
12:21:37.046875,-14.26
12:21:37.062500,-13.21
12:21:37.078125,-12.54
12:21:37.093750,-12.22
12:21:37.109375,-12.09
12:21:37.125000,-11.91
12:21:37.140625,-11.41
12:21:37.156250,-10.46
12:21:37.171875,-9.13
12:21:37.187500,-7.69
12:21:37.203125,-6.51
12:21:37.218750,-5.88
12:21:37.234375,-5.86
12:21:37.250000,-6.23
12:21:37.265625,-6.56
12:21:37.281250,-6.41
12:21:37.296875,-5.54
12:21:37.312500,-4.09
12:21:37.328125,-2.54
12:21:37.343750,-1.52
12:21:37.359375,-1.54
12:21:37.375000,-2.75
12:21:37.390625,-4.78
12:21:37.406250,-7.01
12:21:37.421875,-8.70
12:21:37.437500,-9.40
12:21:37.453125,-9.10
12:21:37.468750,-8.26
12:21:37.484375,-7.64
12:21:37.500000,-8.13
12:21:37.515625,-10.54
12:21:37.531250,-15.31
12:21:37.546875,-22.15
12:21:37.562500,-29.68
12:21:37.578125,-35.47
12:21:37.593750,-36.63
12:21:37.609375,-30.82
12:21:37.625000,-17.29
12:21:37.640625,2.56
12:21:37.656250,25.52
12:21:37.671875,47.68
12:21:37.687500,65.84
12:21:37.703125,78.45
12:21:37.718750,85.77
12:21:37.734375,89.17
12:21:37.750000,90.52
12:21:37.765625,90.92
12:21:37.781250,90.62
12:21:37.796875,89.03
12:21:37.812500,85.22
12:21:37.828125,78.62
12:21:37.843750,69.37
12:21:37.859375,58.45
12:21:37.875000,47.23
12:21:37.890625,36.82
12:21:37.906250,27.47
12:21:37.921875,18.64
12:21:37.937500,9.39
12:21:37.953125,-0.83
12:21:37.968750,-11.84
12:21:37.984375,-22.84
12:21:38,-32.97
12:21:38.015625,-41.78
12:21:38.031250,-49.30
12:21:38.046875,-55.72
12:21:38.062500,-60.91
12:21:38.078125,-64.48
12:21:38.093750,-66.09
12:21:38.109375,-66.01
12:21:38.125000,-65.12
12:21:38.140625,-64.55
12:21:38.156250,-65.10
12:21:38.171875,-66.80
12:21:38.187500,-69.01
12:21:38.203125,-70.77
12:21:38.218750,-71.20
12:21:38.234375,-69.67
12:21:38.250000,-65.75
12:21:38.265625,-59.41
12:21:38.281250,-51.23
12:21:38.296875,-42.70
12:21:38.312500,-35.99
12:21:38.328125,-33.25
12:21:38.343750,-35.80
12:21:38.359375,-43.71
12:21:38.375000,-55.81
12:21:38.390625,-70.27
12:21:38.406250,-85.10
12:21:38.421875,-98.25
12:21:38.437500,-107.59
12:21:38.453125,-111.06
12:21:38.468750,-107.37
12:21:38.484375,-96.95
12:21:38.500000,-82.31
12:21:38.515625,-67.43
12:21:38.531250,-56.06
12:21:38.546875,-49.88
12:21:38.562500,-47.74
12:21:38.578125,-46.38
12:21:38.593750,-42.40
12:21:38.609375,-34.22
12:21:38.625000,-22.93
12:21:38.640625,-11.41
12:21:38.656250,-2.56
12:21:38.671875,2.49
12:21:38.687500,5.05
12:21:38.703125,8.02
12:21:38.718750,14.27
12:21:38.734375,25.08
12:21:38.750000,39.65
12:21:38.765625,55.64
12:21:38.781250,70.60
12:21:38.796875,83.12
12:21:38.812500,93.36
12:21:38.828125,103.03
12:21:38.843750,114.56
12:21:38.859375,129.95
12:21:38.875000,149.80
12:21:38.890625,172.45
12:21:38.906250,193.73
12:21:38.921875,207.90
12:21:38.937500,209.36
12:21:38.953125,194.96
12:21:38.968750,165.64
12:21:38.984375,126.47
12:21:39,84.86
12:21:39.015625,47.73
12:21:39.031250,18.98
12:21:39.046875,-1.33
12:21:39.062500,-15.95
12:21:39.078125,-28.17
12:21:39.093750,-39.92
12:21:39.109375,-50.99
12:21:39.125000,-59.69
12:21:39.140625,-64.21
12:21:39.156250,-63.84
12:21:39.171875,-59.29
12:21:39.187500,-52.29
12:21:39.203125,-44.65
12:21:39.218750,-37.60
12:21:39.234375,-31.49
12:21:39.250000,-25.94
12:21:39.265625,-20.34
12:21:39.281250,-14.42
12:21:39.296875,-8.55
12:21:39.312500,-4.03
12:21:39.328125,-2.57
12:21:39.343750,-5.60
12:21:39.359375,-13.46
12:21:39.375000,-25.02
12:21:39.390625,-37.80
12:21:39.406250,-49.03
12:21:39.421875,-56.70
12:21:39.437500,-60.13
12:21:39.453125,-59.91
12:21:39.468750,-57.09
12:21:39.484375,-52.24
12:21:39.500000,-45.30
12:21:39.515625,-35.96
12:21:39.531250,-24.41
12:21:39.546875,-11.60
12:21:39.562500,1.15
12:21:39.578125,12.92
12:21:39.593750,23.52
12:21:39.609375,33.24
12:21:39.625000,42.19
12:21:39.640625,49.84
12:21:39.656250,55.23
12:21:39.671875,57.67
12:21:39.687500,57.52
12:21:39.703125,56.18
12:21:39.718750,55.39
12:21:39.734375,56.23
12:21:39.750000,58.68
12:21:39.765625,61.90
12:21:39.781250,64.95
12:21:39.796875,67.53
12:21:39.812500,69.86
12:21:39.828125,72.17
12:21:39.843750,74.32
12:21:39.859375,75.71
12:21:39.875000,75.69
12:21:39.890625,74.09
12:21:39.906250,71.30
12:21:39.921875,67.91
12:21:39.937500,64.58
12:21:39.953125,61.84
12:21:39.968750,60.17
12:21:39.984375,60.11
12:21:40,61.95
12:21:40.015625,65.44
12:21:40.031250,69.58
12:21:40.046875,72.75
12:21:40.062500,73.31
12:21:40.078125,70.35
12:21:40.093750,64.03
12:21:40.109375,55.43
12:21:40.125000,45.80
12:21:40.140625,35.81
12:21:40.156250,25.24
12:21:40.171875,13.35
12:21:40.187500,-0.45
12:21:40.203125,-15.93
12:21:40.218750,-31.83
12:21:40.234375,-46.20
12:21:40.250000,-57.12
12:21:40.265625,-63.31
12:21:40.281250,-64.71
12:21:40.296875,-62.42
12:21:40.312500,-58.48
12:21:40.328125,-55.35
12:21:40.343750,-55.25
12:21:40.359375,-59.56
12:21:40.375000,-68.49
12:21:40.390625,-80.93
12:21:40.406250,-94.80
12:21:40.421875,-107.58
12:21:40.437500,-117.06
12:21:40.453125,-121.82
12:21:40.468750,-121.54
12:21:40.484375,-116.86
12:21:40.500000,-109.10
12:21:40.515625,-99.95
12:21:40.531250,-91.17
12:21:40.546875,-84.28
12:21:40.562500,-80.25
12:21:40.578125,-79.21
12:21:40.593750,-80.43
12:21:40.609375,-82.44
12:21:40.625000,-83.41
12:21:40.640625,-81.82
12:21:40.656250,-76.88
12:21:40.671875,-68.85
12:21:40.687500,-58.77
12:21:40.703125,-48.07
12:21:40.718750,-38.00
12:21:40.734375,-29.22
12:21:40.750000,-21.79
12:21:40.765625,-15.33
12:21:40.781250,-9.38
12:21:40.796875,-3.68
12:21:40.812500,1.72
12:21:40.828125,6.51
12:21:40.843750,10.30
12:21:40.859375,12.72
12:21:40.875000,13.55
12:21:40.890625,12.72
12:21:40.906250,10.22
12:21:40.921875,6.18
12:21:40.937500,0.94
12:21:40.953125,-4.91
12:21:40.968750,-10.46
12:21:40.984375,-14.69
12:21:41,-16.80
12:21:41.015625,-16.52
12:21:41.031250,-14.36
12:21:41.046875,-11.50
12:21:41.062500,-9.37
12:21:41.078125,-9.17
12:21:41.093750,-11.48
12:21:41.109375,-16.06
12:21:41.125000,-22.16
12:21:41.140625,-28.87
12:21:41.156250,-35.46
12:21:41.171875,-41.49
12:21:41.187500,-46.56
12:21:41.203125,-50.16
12:21:41.218750,-51.52
12:21:41.234375,-49.86
12:21:41.250000,-44.80
12:21:41.265625,-36.68
12:21:41.281250,-26.64
12:21:41.296875,-16.18
12:21:41.312500,-6.70
12:21:41.328125,1.07
12:21:41.343750,7.15
12:21:41.359375,12.05
12:21:41.375000,16.39
12:21:41.390625,20.52
12:21:41.406250,24.54
12:21:41.421875,28.51
12:21:41.437500,32.70
12:21:41.453125,37.60
12:21:41.468750,43.69
12:21:41.484375,51.04
12:21:41.500000,59.11
12:21:41.515625,66.87
12:21:41.531250,73.06
12:21:41.546875,76.74
12:21:41.562500,77.54
12:21:41.578125,75.72
12:21:41.593750,72.05
12:21:41.609375,67.45
12:21:41.625000,62.73
12:21:41.640625,58.41
12:21:41.656250,54.58
12:21:41.671875,51.01
12:21:41.687500,47.22
12:21:41.703125,42.70
12:21:41.718750,37.03
12:21:41.734375,30.03
12:21:41.750000,21.68
12:21:41.765625,12.07
12:21:41.781250,1.37
12:21:41.796875,-10.23
12:21:41.812500,-22.38
12:21:41.828125,-34.39
12:21:41.843750,-45.30
12:21:41.859375,-53.92
12:21:41.875000,-59.21
12:21:41.890625,-60.66
12:21:41.906250,-58.50
12:21:41.921875,-53.64
12:21:41.937500,-47.35
12:21:41.953125,-40.74
12:21:41.968750,-34.45
12:21:41.984375,-28.58
12:21:42,-22.91
12:21:42.015625,-17.21
12:21:42.031250,-11.44
12:21:42.046875,-5.79
12:21:42.062500,-0.49
12:21:42.078125,4.31
12:21:42.093750,8.66
12:21:42.109375,12.67
12:21:42.125000,16.43
12:21:42.140625,19.91
12:21:42.156250,22.95
12:21:42.171875,25.36
12:21:42.187500,26.96
12:21:42.203125,27.61
12:21:42.218750,27.21
12:21:42.234375,25.67
12:21:42.250000,23.03
12:21:42.265625,19.56
12:21:42.281250,15.77
12:21:42.296875,12.31
12:21:42.312500,9.69
12:21:42.328125,7.97
12:21:42.343750,6.73
12:21:42.359375,5.19
12:21:42.375000,2.63
12:21:42.390625,-1.37
12:21:42.406250,-6.75
12:21:42.421875,-13.21
12:21:42.437500,-20.33
12:21:42.453125,-27.70
12:21:42.468750,-34.86
12:21:42.484375,-41.05
12:21:42.500000,-45.25
12:21:42.515625,-46.31
12:21:42.531250,-43.40
12:21:42.546875,-36.47
12:21:42.562500,-26.38
12:21:42.578125,-14.71
12:21:42.593750,-3.24
12:21:42.609375,6.62
12:21:42.625000,14.16
12:21:42.640625,19.38
12:21:42.656250,22.72
12:21:42.671875,24.75
12:21:42.687500,25.99
12:21:42.703125,26.78
12:21:42.718750,27.40
12:21:42.734375,28.03
12:21:42.750000,28.68
12:21:42.765625,29.20
12:21:42.781250,29.25
12:21:42.796875,28.48
12:21:42.812500,26.69
12:21:42.828125,24.06
12:21:42.843750,20.99
12:21:42.859375,17.97
12:21:42.875000,15.35
12:21:42.890625,13.17
12:21:42.906250,11.28
12:21:42.921875,9.37
12:21:42.937500,7.16
12:21:42.953125,4.38
12:21:42.968750,0.84
12:21:42.984375,-3.41
12:21:43,-7.89
12:21:43.015625,-11.62
12:21:43.031250,-13.33
12:21:43.046875,-12.01
12:21:43.062500,-7.60
12:21:43.078125,-1.28
12:21:43.093750,4.74
12:21:43.109375,7.95
12:21:43.125000,6.69
12:21:43.140625,0.68
12:21:43.156250,-8.77
12:21:43.171875,-19.37
12:21:43.187500,-28.72
12:21:43.203125,-35.02
12:21:43.218750,-37.42
12:21:43.234375,-35.95
12:21:43.250000,-31.20
12:21:43.265625,-24.05
12:21:43.281250,-15.39
12:21:43.296875,-6.10
12:21:43.312500,3.03
12:21:43.328125,11.32
12:21:43.343750,18.26
12:21:43.359375,23.55
12:21:43.375000,27.18
12:21:43.390625,29.34
12:21:43.406250,30.41
12:21:43.421875,30.79
12:21:43.437500,30.86
12:21:43.453125,30.94
12:21:43.468750,31.26
12:21:43.484375,31.89
12:21:43.500000,32.83
12:21:43.515625,34.01
12:21:43.531250,35.26
12:21:43.546875,36.35
12:21:43.562500,37.03
12:21:43.578125,37.12
12:21:43.593750,36.52
12:21:43.609375,35.26
12:21:43.625000,33.47
12:21:43.640625,31.32
12:21:43.656250,29.00
12:21:43.671875,26.59
12:21:43.687500,24.14
12:21:43.703125,21.67
12:21:43.718750,19.23
12:21:43.734375,16.84
12:21:43.750000,14.49
12:21:43.765625,12.09
12:21:43.781250,9.51
12:21:43.796875,6.68
12:21:43.812500,3.65
12:21:43.828125,0.52
12:21:43.843750,-2.65
12:21:43.859375,-5.99
12:21:43.875000,-9.87
12:21:43.890625,-14.66
12:21:43.906250,-20.42
12:21:43.921875,-26.61
12:21:43.937500,-32.11
12:21:43.953125,-35.48
12:21:43.968750,-35.53
12:21:43.984375,-31.80
12:21:44,-24.66
12:21:44.015625,-15.17
12:21:44.031250,-4.55
12:21:44.046875,6.19
12:21:44.062500,16.43
12:21:44.078125,26.00
12:21:44.093750,34.86
12:21:44.109375,43.06
12:21:44.125000,50.53
12:21:44.140625,57.17
12:21:44.156250,62.87
12:21:44.171875,67.52
12:21:44.187500,70.81
12:21:44.203125,72.31
12:21:44.218750,71.46
12:21:44.234375,67.84
12:21:44.250000,61.49
12:21:44.265625,52.97
12:21:44.281250,43.29
12:21:44.296875,33.64
12:21:44.312500,24.96
12:21:44.328125,17.73
12:21:44.343750,12.02
12:21:44.359375,7.59
12:21:44.375000,4.07
12:21:44.390625,1.12
12:21:44.406250,-1.64
12:21:44.421875,-4.62
12:21:44.437500,-8.19
12:21:44.453125,-12.57
12:21:44.468750,-17.65
12:21:44.484375,-22.98
12:21:44.500000,-27.93
12:21:44.515625,-31.87
12:21:44.531250,-34.40
12:21:44.546875,-35.43
12:21:44.562500,-35.22
12:21:44.578125,-34.27
12:21:44.593750,-33.22
12:21:44.609375,-32.69
12:21:44.625000,-33.13
12:21:44.640625,-34.77
12:21:44.656250,-37.57
12:21:44.671875,-41.48
12:21:44.687500,-46.46
12:21:44.703125,-52.46
12:21:44.718750,-59.15
12:21:44.734375,-65.69
12:21:44.750000,-70.68
12:21:44.765625,-72.46
12:21:44.781250,-69.74
12:21:44.796875,-62.11
12:21:44.812500,-50.25
12:21:44.828125,-35.58
12:21:44.843750,-19.72
12:21:44.859375,-3.94
12:21:44.875000,11.02
12:21:44.890625,24.71
12:21:44.906250,36.70
12:21:44.921875,46.36
12:21:44.937500,53.02
12:21:44.953125,56.27
12:21:44.968750,56.17
12:21:44.984375,53.22
12:21:45,48.29
12:21:45.015625,42.40
12:21:45.031250,36.59
12:21:45.046875,31.94
12:21:45.062500,29.35
12:21:45.078125,29.36
12:21:45.093750,31.86
12:21:45.109375,36.05
12:21:45.125000,40.61
12:21:45.140625,44.20
12:21:45.156250,45.90
12:21:45.171875,45.46
12:21:45.187500,43.18
12:21:45.203125,39.55
12:21:45.218750,34.93
12:21:45.234375,29.39
12:21:45.250000,22.72
12:21:45.265625,14.70
12:21:45.281250,5.22
12:21:45.296875,-5.70
12:21:45.312500,-17.77
12:21:45.328125,-30.36
12:21:45.343750,-42.53
12:21:45.359375,-52.94
12:21:45.375000,-60.18
12:21:45.390625,-63.09
12:21:45.406250,-61.16
12:21:45.421875,-54.75
12:21:45.437500,-45.10
12:21:45.453125,-34.02
12:21:45.468750,-23.50
12:21:45.484375,-15.35
12:21:45.500000,-10.85
12:21:45.515625,-10.57
12:21:45.531250,-14.20
12:21:45.546875,-20.64
12:21:45.562500,-28.21
12:21:45.578125,-35.05
12:21:45.593750,-39.61
12:21:45.609375,-40.93
12:21:45.625000,-38.78
12:21:45.640625,-33.40
12:21:45.656250,-25.20
12:21:45.671875,-14.41
12:21:45.687500,-1.12
12:21:45.703125,14.57
12:21:45.718750,32.16
12:21:45.734375,50.50
12:21:45.750000,67.90
12:21:45.765625,82.52
12:21:45.781250,92.91
12:21:45.796875,98.36
12:21:45.812500,98.80
12:21:45.828125,94.59
12:21:45.843750,86.04
12:21:45.859375,73.42
12:21:45.875000,57.22
12:21:45.890625,38.41
12:21:45.906250,18.55
12:21:45.921875,-0.54
12:21:45.937500,-17.21
12:21:45.953125,-30.22
12:21:45.968750,-38.58
12:21:45.984375,-41.34
12:21:46,-37.51
12:21:46.015625,-26.61
12:21:46.031250,-9.55
12:21:46.046875,10.79
12:21:46.062500,29.78
12:21:46.078125,42.56
12:21:46.093750,46.10
12:21:46.109375,40.84
12:21:46.125000,30.68
12:21:46.140625,21.36
12:21:46.156250,17.84
12:21:46.171875,22.14
12:21:46.187500,32.62
12:21:46.203125,44.98
12:21:46.218750,54.37
12:21:46.234375,57.38
12:21:46.250000,53.09
12:21:46.265625,42.95
12:21:46.281250,29.77
12:21:46.296875,16.53
12:21:46.312500,5.45
12:21:46.328125,-2.38
12:21:46.343750,-7.08
12:21:46.359375,-9.59
12:21:46.375000,-11.20
12:21:46.390625,-12.83
12:21:46.406250,-14.41
12:21:46.421875,-14.82
12:21:46.437500,-12.30
12:21:46.453125,-5.57
12:21:46.468750,5.36
12:21:46.484375,18.96
12:21:46.500000,32.92
12:21:46.515625,45.34
12:21:46.531250,55.67
12:21:46.546875,64.68
12:21:46.562500,73.55
12:21:46.578125,82.63
12:21:46.593750,90.83
12:21:46.609375,96.03
12:21:46.625000,96.29
12:21:46.640625,91.27
12:21:46.656250,82.58
12:21:46.671875,73.21
12:21:46.687500,66.16
12:21:46.703125,63.15
12:21:46.718750,64.08
12:21:46.734375,67.36
12:21:46.750000,70.84
12:21:46.765625,72.54
12:21:46.781250,71.04
12:21:46.796875,65.30
12:21:46.812500,54.39
12:21:46.828125,37.60
12:21:46.843750,14.81
12:21:46.859375,-12.93
12:21:46.875000,-43.33
12:21:46.890625,-73.29
12:21:46.906250,-99.80
12:21:46.921875,-120.92
12:21:46.937500,-136.30
12:21:46.953125,-147.19
12:21:46.968750,-155.84
12:21:46.984375,-164.58
12:21:47,-174.84
12:21:47.015625,-186.70
12:21:47.031250,-198.82
12:21:47.046875,-209.06
12:21:47.062500,-215.26
12:21:47.078125,-215.94
12:21:47.093750,-210.61
12:21:47.109375,-199.81
12:21:47.125000,-184.85
12:21:47.140625,-167.48
12:21:47.156250,-149.75
12:21:47.171875,-133.73
12:21:47.187500,-121.21
12:21:47.203125,-113.25
12:21:47.218750,-109.73
12:21:47.234375,-109.11
12:21:47.250000,-108.77
12:21:47.265625,-105.86
12:21:47.281250,-98.30
12:21:47.296875,-85.56
12:21:47.312500,-68.69
12:21:47.328125,-49.85
12:21:47.343750,-31.41
12:21:47.359375,-15.30
12:21:47.375000,-2.58
12:21:47.390625,6.48
12:21:47.406250,12.11
12:21:47.421875,14.73
12:21:47.437500,14.73
12:21:47.453125,12.44
12:21:47.468750,8.22
12:21:47.484375,2.49
12:21:47.500000,-4.22
12:21:47.515625,-11.31
12:21:47.531250,-18.22
12:21:47.546875,-24.48
12:21:47.562500,-29.86
12:21:47.578125,-34.40
12:21:47.593750,-38.46
12:21:47.609375,-42.70
12:21:47.625000,-47.84
12:21:47.640625,-54.40
12:21:47.656250,-62.45
12:21:47.671875,-71.59
12:21:47.687500,-81.23
12:21:47.703125,-91.01
12:21:47.718750,-101.00
12:21:47.734375,-111.66
12:21:47.750000,-123.29
12:21:47.765625,-135.42
12:21:47.781250,-146.46
12:21:47.796875,-153.90
12:21:47.812500,-155.05
12:21:47.828125,-147.85
12:21:47.843750,-131.32
12:21:47.859375,-105.68
12:21:47.875000,-72.17
12:21:47.890625,-32.83
12:21:47.906250,9.37
12:21:47.921875,50.61
12:21:47.937500,86.42
12:21:47.953125,112.65
12:21:47.968750,126.78
12:21:47.984375,128.79
12:21:48,121.36
12:21:48.015625,108.78
12:21:48.031250,95.42
12:21:48.046875,84.29
12:21:48.062500,76.53
12:21:48.078125,71.91
12:21:48.093750,69.69
12:21:48.109375,69.36
12:21:48.125000,70.77
12:21:48.140625,73.58
12:21:48.156250,76.85
12:21:48.171875,78.96
12:21:48.187500,78.23
12:21:48.203125,73.70
12:21:48.218750,65.70
12:21:48.234375,55.70
12:21:48.250000,45.59
12:21:48.265625,36.82
12:21:48.281250,29.87
12:21:48.296875,24.40
12:21:48.312500,19.76
12:21:48.328125,15.57
12:21:48.343750,12.02
12:21:48.359375,9.70
12:21:48.375000,9.07
12:21:48.390625,9.89
12:21:48.406250,11.10
12:21:48.421875,11.08
12:21:48.437500,8.42
12:21:48.453125,2.77
12:21:48.468750,-4.48
12:21:48.484375,-10.33
12:21:48.500000,-11.11
12:21:48.515625,-4.04
12:21:48.531250,11.29
12:21:48.546875,32.20
12:21:48.562500,53.71
12:21:48.578125,70.46
12:21:48.593750,78.88
12:21:48.609375,78.72
12:21:48.625000,72.88
12:21:48.640625,65.95
12:21:48.656250,62.03
12:21:48.671875,63.17
12:21:48.687500,68.83
12:21:48.703125,76.65
12:21:48.718750,83.82
12:21:48.734375,88.25
12:21:48.750000,89.22
12:21:48.765625,87.09
12:21:48.781250,82.75
12:21:48.796875,77.13
12:21:48.812500,71.02
12:21:48.828125,65.17
12:21:48.843750,60.50
12:21:48.859375,58.19
12:21:48.875000,59.52
12:21:48.890625,65.44
12:21:48.906250,76.16
12:21:48.921875,90.80
12:21:48.937500,107.42
12:21:48.953125,123.30
12:21:48.968750,135.72
12:21:48.984375,142.73
12:21:49,143.93
12:21:49.015625,140.62
12:21:49.031250,135.45
12:21:49.046875,131.43
12:21:49.062500,130.75
12:21:49.078125,134.05
12:21:49.093750,140.15
12:21:49.109375,146.83
12:21:49.125000,151.93
12:21:49.140625,154.24
12:21:49.156250,153.80
12:21:49.171875,151.43
12:21:49.187500,147.87
12:21:49.203125,143.05
12:21:49.218750,136.15
12:21:49.234375,126.13
12:21:49.250000,112.70
12:21:49.265625,96.56
12:21:49.281250,79.14
12:21:49.296875,61.65
12:21:49.312500,44.17
12:21:49.328125,25.51
12:21:49.343750,3.83
12:21:49.359375,-22.15
12:21:49.375000,-52.25
12:21:49.390625,-84.74
12:21:49.406250,-117.09
12:21:49.421875,-147.23
12:21:49.437500,-174.52
12:21:49.453125,-199.95
12:21:49.468750,-225.77
12:21:49.484375,-254.84
12:21:49.500000,-289.88
12:21:49.515625,-332.67
12:21:49.531250,-382.97
12:21:49.546875,-437.66
12:21:49.562500,-490.62
12:21:49.578125,-533.81
12:21:49.593750,-559.69
12:21:49.609375,-563.76
12:21:49.625000,-546.13
12:21:49.640625,-511.15
12:21:49.656250,-465.37
12:21:49.671875,-414.79
12:21:49.687500,-363.11
12:21:49.703125,-311.73
12:21:49.718750,-261.09
12:21:49.734375,-212.30
12:21:49.750000,-167.56
12:21:49.765625,-129.23
12:21:49.781250,-98.34
12:21:49.796875,-73.55
12:21:49.812500,-51.52
12:21:49.828125,-28.36
12:21:49.843750,-1.24
12:21:49.859375,30.75
12:21:49.875000,67.02
12:21:49.890625,106.17
12:21:49.906250,146.74
12:21:49.921875,187.06
12:21:49.937500,224.64
12:21:49.953125,255.87
12:21:49.968750,276.58
12:21:49.984375,283.39
12:21:50,275.19
12:21:50.015625,253.73
12:21:50.031250,222.94
12:21:50.046875,187.60
12:21:50.062500,151.99
12:21:50.078125,119.30
12:21:50.093750,91.87
12:21:50.109375,71.65
12:21:50.125000,60.14
12:21:50.140625,57.77
12:21:50.156250,63.06
12:21:50.171875,72.61
12:21:50.187500,81.94
12:21:50.203125,87.07
12:21:50.218750,85.68
12:21:50.234375,77.28
12:21:50.250000,62.61
12:21:50.265625,42.86
12:21:50.281250,19.31
12:21:50.296875,-6.46
12:21:50.312500,-32.06
12:21:50.328125,-54.33
12:21:50.343750,-70.02
12:21:50.359375,-76.84
12:21:50.375000,-74.25
12:21:50.390625,-63.36
12:21:50.406250,-46.24
12:21:50.421875,-25.02
12:21:50.437500,-1.31
12:21:50.453125,23.66
12:21:50.468750,48.70
12:21:50.484375,72.45
12:21:50.500000,93.62
12:21:50.515625,111.43
12:21:50.531250,125.98
12:21:50.546875,137.98
12:21:50.562500,148.09
12:21:50.578125,156.35
12:21:50.593750,161.83
12:21:50.609375,163.09
12:21:50.625000,158.95
12:21:50.640625,149.38
12:21:50.656250,135.81
12:21:50.671875,120.84
12:21:50.687500,107.27
12:21:50.703125,97.02
12:21:50.718750,90.44
12:21:50.734375,86.30
12:21:50.750000,82.36
12:21:50.765625,76.35
12:21:50.781250,66.87
12:21:50.796875,53.82
12:21:50.812500,38.46
12:21:50.828125,22.89
12:21:50.843750,9.30
12:21:50.859375,-0.65
12:21:50.875000,-6.43
12:21:50.890625,-8.57
12:21:50.906250,-8.39
12:21:50.921875,-7.34
12:21:50.937500,-6.60
12:21:50.953125,-6.79
12:21:50.968750,-8.18
12:21:50.984375,-10.94
12:21:51,-15.24
12:21:51.015625,-21.31
12:21:51.031250,-29.14
12:21:51.046875,-38.35
12:21:51.062500,-48.18
12:21:51.078125,-57.76
12:21:51.093750,-66.35
12:21:51.109375,-73.47
12:21:51.125000,-78.86
12:21:51.140625,-82.29
12:21:51.156250,-83.83
12:21:51.171875,-83.96
12:21:51.187500,-84.02
12:21:51.203125,-86.02
12:21:51.218750,-92.06
12:21:51.234375,-103.20
12:21:51.250000,-118.53
12:21:51.265625,-134.83
12:21:51.281250,-147.40
12:21:51.296875,-151.56
12:21:51.312500,-144.44
12:21:51.328125,-126.13
12:21:51.343750,-99.58
12:21:51.359375,-69.58
12:21:51.375000,-41.31
12:21:51.390625,-19.01
12:21:51.406250,-5.24
12:21:51.421875,-0.38
12:21:51.437500,-2.55
12:21:51.453125,-7.61
12:21:51.468750,-10.00
12:21:51.484375,-4.22
12:21:51.500000,13.20
12:21:51.515625,42.17
12:21:51.531250,78.77
12:21:51.546875,116.57
12:21:51.562500,148.81
12:21:51.578125,170.52
12:21:51.593750,179.56
12:21:51.609375,176.32
12:21:51.625000,162.71
12:21:51.640625,141.22
12:21:51.656250,114.56
12:21:51.671875,85.53
12:21:51.687500,57.02
12:21:51.703125,31.55
12:21:51.718750,10.85
12:21:51.734375,-4.33
12:21:51.750000,-13.83
12:21:51.765625,-17.37
12:21:51.781250,-14.18
12:21:51.796875,-2.92
12:21:51.812500,17.85
12:21:51.828125,48.96
12:21:51.843750,90.04
12:21:51.859375,139.10
12:21:51.875000,192.29
12:21:51.890625,244.13
12:21:51.906250,288.39
12:21:51.921875,319.33
12:21:51.937500,333.24
12:21:51.953125,329.28
12:21:51.968750,309.52
12:21:51.984375,277.98
12:21:52,239.27
12:21:52.015625,197.43
12:21:52.031250,155.52
12:21:52.046875,115.64
12:21:52.062500,79.24
12:21:52.078125,47.34
12:21:52.093750,20.49
12:21:52.109375,-1.18
12:21:52.125000,-17.88
12:21:52.140625,-30.03
12:21:52.156250,-38.16
12:21:52.171875,-42.99
12:21:52.187500,-45.65
12:21:52.203125,-47.66
12:21:52.218750,-50.51
12:21:52.234375,-55.13
12:21:52.250000,-61.49
12:21:52.265625,-68.61
12:21:52.281250,-75.19
12:21:52.296875,-80.50
12:21:52.312500,-84.91
12:21:52.328125,-89.95
12:21:52.343750,-97.51
12:21:52.359375,-108.85
12:21:52.375000,-123.62
12:21:52.390625,-139.72
12:21:52.406250,-153.85
12:21:52.421875,-162.82
12:21:52.437500,-164.81
12:21:52.453125,-160.01
12:21:52.468750,-150.42
12:21:52.484375,-138.80
12:21:52.500000,-127.50
12:21:52.515625,-117.59
12:21:52.531250,-108.71
12:21:52.546875,-99.72
12:21:52.562500,-89.62
12:21:52.578125,-78.21
12:21:52.593750,-66.27
12:21:52.609375,-55.13
12:21:52.625000,-45.96
12:21:52.640625,-39.14
12:21:52.656250,-34.21
12:21:52.671875,-30.27
12:21:52.687500,-26.56
12:21:52.703125,-22.96
12:21:52.718750,-19.86
12:21:52.734375,-17.73
12:21:52.750000,-16.57
12:21:52.765625,-15.72
12:21:52.781250,-14.19
12:21:52.796875,-11.36
12:21:52.812500,-7.50
12:21:52.828125,-3.77
12:21:52.843750,-1.67
12:21:52.859375,-2.10
12:21:52.875000,-4.85
12:21:52.890625,-8.69
12:21:52.906250,-12.18
12:21:52.921875,-14.52
12:21:52.937500,-15.96
12:21:52.953125,-17.52
12:21:52.968750,-20.12
12:21:52.984375,-23.76
12:21:53,-27.33
12:21:53.015625,-29.18
12:21:53.031250,-28.02
12:21:53.046875,-23.66
12:21:53.062500,-17.10
12:21:53.078125,-9.91
12:21:53.093750,-3.52
12:21:53.109375,1.47
12:21:53.125000,5.21
12:21:53.140625,8.25
12:21:53.156250,11.13
12:21:53.171875,14.33
12:21:53.187500,18.37
12:21:53.203125,23.88
12:21:53.218750,31.44
12:21:53.234375,41.13
12:21:53.250000,52.13
12:21:53.265625,62.64
12:21:53.281250,70.37
12:21:53.296875,73.30
12:21:53.312500,70.67
12:21:53.328125,63.44
12:21:53.343750,54.03
12:21:53.359375,45.51
12:21:53.375000,40.39
12:21:53.390625,39.64
12:21:53.406250,42.51
12:21:53.421875,46.96
12:21:53.437500,50.88
12:21:53.453125,53.03
12:21:53.468750,53.47
12:21:53.484375,53.19
12:21:53.500000,53.23
12:21:53.515625,53.85
12:21:53.531250,54.41
12:21:53.546875,53.89
12:21:53.562500,51.69
12:21:53.578125,48.20
12:21:53.593750,44.46
12:21:53.609375,41.48
12:21:53.625000,39.35
12:21:53.640625,37.13
12:21:53.656250,33.20
12:21:53.671875,26.12
12:21:53.687500,15.46
12:21:53.703125,1.93
12:21:53.718750,-12.89
12:21:53.734375,-27.32
12:21:53.750000,-40.18
12:21:53.765625,-51.14
12:21:53.781250,-60.71
12:21:53.796875,-69.92
12:21:53.812500,-79.94
12:21:53.828125,-91.53
12:21:53.843750,-104.82
12:21:53.859375,-119.23
12:21:53.875000,-133.53
12:21:53.890625,-146.17
12:21:53.906250,-155.67
12:21:53.921875,-160.95
12:21:53.937500,-161.63
12:21:53.953125,-158.04
12:21:53.968750,-151.04
12:21:53.984375,-141.85
12:21:54,-131.78
12:21:54.015625,-122.00
12:21:54.031250,-113.35
12:21:54.046875,-106.23
12:21:54.062500,-100.58
12:21:54.078125,-95.95
12:21:54.093750,-91.64
12:21:54.109375,-86.94
12:21:54.125000,-81.27
12:21:54.140625,-74.35
12:21:54.156250,-66.32
12:21:54.171875,-57.70
12:21:54.187500,-49.26
12:21:54.203125,-41.66
12:21:54.218750,-35.17
12:21:54.234375,-29.50
12:21:54.250000,-23.84
12:21:54.265625,-17.20
12:21:54.281250,-8.76
12:21:54.296875,1.86
12:21:54.312500,14.46
12:21:54.328125,28.36
12:21:54.343750,42.55
12:21:54.359375,55.91
12:21:54.375000,67.30
12:21:54.390625,75.74
12:21:54.406250,80.58
12:21:54.421875,81.66
12:21:54.437500,79.37
12:21:54.453125,74.53
12:21:54.468750,68.13
12:21:54.484375,60.96
12:21:54.500000,53.43
12:21:54.515625,45.53
12:21:54.531250,37.03
12:21:54.546875,27.76
12:21:54.562500,17.83
12:21:54.578125,7.93
12:21:54.593750,-0.76
12:21:54.609375,-6.77
12:21:54.625000,-8.85
12:21:54.640625,-6.60
12:21:54.656250,-0.96
12:21:54.671875,6.04
12:21:54.687500,11.84
12:21:54.703125,14.36
12:21:54.718750,12.93
12:21:54.734375,8.50
12:21:54.750000,3.31
12:21:54.765625,-0.00
12:21:54.781250,0.65
12:21:54.796875,6.31
12:21:54.812500,16.92
12:21:54.828125,31.66
12:21:54.843750,49.29
12:21:54.859375,68.36
12:21:54.875000,87.28
12:21:54.890625,104.45
12:21:54.906250,118.53
12:21:54.921875,128.82
12:21:54.937500,135.60
12:21:54.953125,140.00
12:21:54.968750,143.53
12:21:54.984375,147.36
12:21:55,151.85
12:21:55.015625,156.55
12:21:55.031250,160.60
12:21:55.046875,163.22
12:21:55.062500,164.02
12:21:55.078125,162.82
12:21:55.093750,159.40
12:21:55.109375,153.28
12:21:55.125000,144.07
12:21:55.140625,131.81
12:21:55.156250,117.34
12:21:55.171875,102.22
12:21:55.187500,88.05
12:21:55.203125,75.80
12:21:55.218750,65.45
12:21:55.234375,56.01
12:21:55.250000,46.17
12:21:55.265625,34.89
12:21:55.281250,21.79
12:21:55.296875,7.16
12:21:55.312500,-8.16
12:21:55.328125,-23.09
12:21:55.343750,-36.43
12:21:55.359375,-47.16
12:21:55.375000,-54.70
12:21:55.390625,-59.17
12:21:55.406250,-61.45
12:21:55.421875,-62.86
12:21:55.437500,-64.69
12:21:55.453125,-67.67
12:21:55.468750,-71.57
12:21:55.484375,-75.23
12:21:55.500000,-77.07
12:21:55.515625,-75.69
12:21:55.531250,-70.48
12:21:55.546875,-62.11
12:21:55.562500,-52.55
12:21:55.578125,-44.75
12:21:55.593750,-41.87
12:21:55.609375,-46.16
12:21:55.625000,-58.03
12:21:55.640625,-75.58
12:21:55.656250,-94.97
12:21:55.671875,-111.69
12:21:55.687500,-122.01
12:21:55.703125,-124.23
12:21:55.718750,-119.00
12:21:55.734375,-108.65
12:21:55.750000,-95.98
12:21:55.765625,-83.15
12:21:55.781250,-71.19
12:21:55.796875,-60.22
12:21:55.812500,-49.98
12:21:55.828125,-40.27
12:21:55.843750,-30.98
12:21:55.859375,-21.91
12:21:55.875000,-12.66
12:21:55.890625,-2.83
12:21:55.906250,7.42
12:21:55.921875,16.91
12:21:55.937500,23.58
12:21:55.953125,24.98
12:21:55.968750,19.25
12:21:55.984375,5.88
12:21:56,-13.91
12:21:56.015625,-37.40
12:21:56.031250,-61.08
12:21:56.046875,-81.76
12:21:56.062500,-97.44
12:21:56.078125,-108.08
12:21:56.093750,-115.60
12:21:56.109375,-123.07
12:21:56.125000,-133.40
12:21:56.140625,-147.91
12:21:56.156250,-165.54
12:21:56.171875,-183.16
12:21:56.187500,-196.88
12:21:56.203125,-203.69
12:21:56.218750,-202.81
12:21:56.234375,-195.88
12:21:56.250000,-186.05
12:21:56.265625,-176.59
12:21:56.281250,-169.49
12:21:56.296875,-164.96
12:21:56.312500,-161.90
12:21:56.328125,-159.16
12:21:56.343750,-156.68
12:21:56.359375,-155.91
12:21:56.375000,-159.13
12:21:56.390625,-168.02
12:21:56.406250,-182.37
12:21:56.421875,-199.80
12:21:56.437500,-216.47
12:21:56.453125,-228.51
12:21:56.468750,-233.33
12:21:56.484375,-229.94
12:21:56.500000,-218.58
12:21:56.515625,-199.92
12:21:56.531250,-174.62
12:21:56.546875,-143.52
12:21:56.562500,-108.17
12:21:56.578125,-70.94
12:21:56.593750,-34.62
12:21:56.609375,-1.36
12:21:56.625000,28.25
12:21:56.640625,55.65
12:21:56.656250,83.78
12:21:56.671875,115.99
12:21:56.687500,154.57
12:21:56.703125,199.46
12:21:56.718750,247.58
12:21:56.734375,292.84
12:21:56.750000,327.57
12:21:56.765625,344.74
12:21:56.781250,340.66
12:21:56.796875,316.62
12:21:56.812500,278.91
12:21:56.828125,236.68
12:21:56.843750,198.73
12:21:56.859375,170.60
12:21:56.875000,153.35
12:21:56.890625,144.41
12:21:56.906250,139.83
12:21:56.921875,136.54
12:21:56.937500,133.50
12:21:56.953125,131.38
12:21:56.968750,131.32
12:21:56.984375,133.72
12:21:57,137.77
12:21:57.015625,141.90
12:21:57.031250,144.48
12:21:57.046875,144.60
12:21:57.062500,142.09
12:21:57.078125,137.40
12:21:57.093750,131.43
12:21:57.109375,125.51
12:21:57.125000,121.19
12:21:57.140625,119.89
12:21:57.156250,122.26
12:21:57.171875,127.68
12:21:57.187500,134.16
12:21:57.203125,139.01
12:21:57.218750,139.92
12:21:57.234375,135.96
12:21:57.250000,127.86
12:21:57.265625,117.55
12:21:57.281250,107.27
12:21:57.296875,98.80
12:21:57.312500,93.19
12:21:57.328125,90.95
12:21:57.343750,92.21
12:21:57.359375,97.00
12:21:57.375000,105.07
12:21:57.390625,115.91
12:21:57.406250,128.82
12:21:57.421875,143.12
12:21:57.437500,158.37
12:21:57.453125,174.34
12:21:57.468750,190.92
12:21:57.484375,207.96
12:21:57.500000,225.07
12:21:57.515625,241.54
12:21:57.531250,256.31
12:21:57.546875,268.05
12:21:57.562500,275.30
12:21:57.578125,276.68
12:21:57.593750,270.98
12:21:57.609375,257.63
12:21:57.625000,236.92
12:21:57.640625,209.82
12:21:57.656250,177.71
12:21:57.671875,141.91
12:21:57.687500,103.38
12:21:57.703125,62.73
12:21:57.718750,20.22
12:21:57.734375,-24.31
12:21:57.750000,-70.93
12:21:57.765625,-119.53
12:21:57.781250,-170.19
12:21:57.796875,-223.71
12:21:57.812500,-281.44
12:21:57.828125,-344.12
12:21:57.843750,-410.14
12:21:57.859375,-474.25
12:21:57.875000,-528.37
12:21:57.890625,-563.15
12:21:57.906250,-571.20
12:21:57.921875,-550.21
12:21:57.937500,-504.22
12:21:57.953125,-442.12
12:21:57.968750,-373.63
12:21:57.984375,-305.95
12:21:58,-242.33
12:21:58.015625,-184.34
12:21:58.031250,-132.27
12:21:58.046875,-85.83
12:21:58.062500,-43.88
12:21:58.078125,-4.29
12:21:58.093750,35.82
12:21:58.109375,79.09
12:21:58.125000,125.78
12:21:58.140625,172.04
12:21:58.156250,208.72
12:21:58.171875,226.78
12:21:58.187500,221.66
12:21:58.203125,195.68
12:21:58.218750,156.33
12:21:58.234375,112.27
12:21:58.250000,70.57
12:21:58.265625,34.32
12:21:58.281250,2.82
12:21:58.296875,-28.70
12:21:58.312500,-63.64
12:21:58.328125,-101.55
12:21:58.343750,-138.57
12:21:58.359375,-170.20
12:21:58.375000,-194.10
12:21:58.390625,-209.82
12:21:58.406250,-219.10
12:21:58.421875,-206.77
12:21:58.437500,-164.36
12:21:58.453125,-96.48
12:21:58.468750,-19.33
12:21:58.484375,51.36
12:21:58.500000,108.17
12:21:58.515625,149.87
12:21:58.531250,176.21
12:21:58.546875,189.86
12:21:58.562500,191.41
12:21:58.578125,178.46
12:21:58.593750,149.92
12:21:58.609375,107.36
12:21:58.625000,53.46
12:21:58.640625,-5.74
12:21:58.656250,-67.04
12:21:58.671875,-118.99
12:21:58.687500,-152.77
12:21:58.703125,-165.02
12:21:58.718750,-161.04
12:21:58.734375,-149.33
12:21:58.750000,-135.89
12:21:58.765625,-122.32
12:21:58.781250,-107.48
12:21:58.796875,-90.01
12:21:58.812500,-69.27
12:21:58.828125,-47.36
12:21:58.843750,-26.77
12:21:58.859375,-10.31
12:21:58.875000,0.67
12:21:58.890625,7.36
12:21:58.906250,13.01
12:21:58.921875,21.46
12:21:58.937500,32.53
12:21:58.953125,49.57
12:21:58.968750,72.10
12:21:58.984375,98.40
12:21:59,125.63
12:21:59.015625,151.01
12:21:59.031250,173.23
12:21:59.046875,192.57
12:21:59.062500,210.24
12:21:59.078125,228.99
12:21:59.093750,248.73
12:21:59.109375,266.44
12:21:59.125000,279.10
12:21:59.140625,283.30
12:21:59.156250,275.72
12:21:59.171875,254.52
12:21:59.187500,219.05
12:21:59.203125,172.46
12:21:59.218750,120.37
12:21:59.234375,64.84
12:21:59.250000,5.24
12:21:59.265625,-58.78
12:21:59.281250,-114.40
12:21:59.296875,-149.10
12:21:59.312500,-156.41
12:21:59.328125,-139.03
12:21:59.343750,-125.34
12:21:59.359375,-120.56
12:21:59.375000,-126.33
12:21:59.390625,-146.55
12:21:59.406250,-173.97
12:21:59.421875,-208.34
12:21:59.437500,-252.09
12:21:59.453125,-306.51
12:21:59.468750,-369.42
12:21:59.484375,-434.06
12:21:59.500000,-487.73
12:21:59.515625,-521.00
12:21:59.531250,-529.00
12:21:59.546875,-511.99
12:21:59.562500,-476.91
12:21:59.578125,-434.27
12:21:59.593750,-393.68
12:21:59.609375,-360.75
12:21:59.625000,-336.03
12:21:59.640625,-314.64
12:21:59.656250,-293.68
12:21:59.671875,-272.14
12:21:59.687500,-249.92
12:21:59.703125,-228.23
12:21:59.718750,-207.70
12:21:59.734375,-187.62
12:21:59.750000,-166.00
12:21:59.765625,-140.12
12:21:59.781250,-105.62
12:21:59.796875,-60.09
12:21:59.812500,-3.37
12:21:59.828125,62.14
12:21:59.843750,129.88
12:21:59.859375,190.56
12:21:59.875000,234.74
12:21:59.890625,255.85
12:21:59.906250,251.99
12:21:59.921875,226.32
12:21:59.937500,183.70
12:21:59.953125,128.86
12:21:59.968750,66.28
12:21:59.984375,0.62
12:22:00,-61.64
12:22:00.015625,-112.28
12:22:00.031250,-143.72
12:22:00.046875,-152.26
12:22:00.062500,-139.95
12:22:00.078125,-114.18
12:22:00.093750,-84.85
12:22:00.109375,-60.08
12:22:00.125000,-43.59
12:22:00.140625,-34.20
12:22:00.156250,-28.13
12:22:00.171875,-21.57
12:22:00.187500,-12.75
12:22:00.203125,-2.08
12:22:00.218750,9.96
12:22:00.234375,22.00
12:22:00.250000,32.70
12:22:00.265625,41.31
12:22:00.281250,48.40
12:22:00.296875,55.79
12:22:00.312500,65.50
12:22:00.328125,78.94
12:22:00.343750,96.28
12:22:00.359375,118.98
12:22:00.375000,146.18
12:22:00.390625,175.32
12:22:00.406250,203.59
12:22:00.421875,229.96
12:22:00.437500,255.99
12:22:00.453125,285.30
12:22:00.468750,322.51
12:22:00.484375,371.88
12:22:00.500000,439.16
12:22:00.515625,523.52
12:22:00.531250,616.34
12:22:00.546875,703.63
12:22:00.562500,771.65
12:22:00.578125,811.93
12:22:00.593750,823.25
12:22:00.609375,810.66
12:22:00.625000,782.39
12:22:00.640625,750.60
12:22:00.656250,720.12
12:22:00.671875,687.37
12:22:00.687500,643.83
12:22:00.703125,581.95
12:22:00.718750,498.48
12:22:00.734375,394.29
12:22:00.750000,272.85
12:22:00.765625,111.07
12:22:00.781250,-86.29
12:22:00.796875,-290.57
12:22:00.812500,-463.84
12:22:00.828125,-581.80
12:22:00.843750,-642.73
12:22:00.859375,-660.30
12:22:00.875000,-652.68
12:22:00.890625,-634.80
12:22:00.906250,-616.30
12:22:00.921875,-593.93
12:22:00.937500,-565.38
12:22:00.953125,-532.68
12:22:00.968750,-500.87
12:22:00.984375,-474.05
12:22:01,-452.60
12:22:01.015625,-433.56
12:22:01.031250,-412.39
12:22:01.046875,-386.73
12:22:01.062500,-352.49
12:22:01.078125,-310.45
12:22:01.093750,-265.58
12:22:01.109375,-224.40
12:22:01.125000,-191.06
12:22:01.140625,-165.87
12:22:01.156250,-146.26
12:22:01.171875,-128.87
12:22:01.187500,-111.23
12:22:01.203125,-89.97
12:22:01.218750,-65.20
12:22:01.234375,-39.94
12:22:01.250000,-18.31
12:22:01.265625,-3.12
12:22:01.281250,5.16
12:22:01.296875,7.86
12:22:01.312500,6.85
12:22:01.328125,3.59
12:22:01.343750,0.00
12:22:01.359375,-3.68
12:22:01.375000,-8.53
12:22:01.390625,-15.93
12:22:01.406250,-26.38
12:22:01.421875,-39.02
12:22:01.437500,-51.98
12:22:01.453125,-63.19
12:22:01.468750,-70.99
12:22:01.484375,-73.97
12:22:01.500000,-71.91
12:22:01.515625,-65.53
12:22:01.531250,-56.05
12:22:01.546875,-44.51
12:22:01.562500,-31.60
12:22:01.578125,-17.67
12:22:01.593750,-3.14
12:22:01.609375,11.27
12:22:01.625000,24.52
12:22:01.640625,35.32
12:22:01.656250,42.52
12:22:01.671875,45.49
12:22:01.687500,44.42
12:22:01.703125,40.35
12:22:01.718750,34.84
12:22:01.734375,29.50
12:22:01.750000,25.44
12:22:01.765625,23.00
12:22:01.781250,21.81
12:22:01.796875,21.18
12:22:01.812500,20.67
12:22:01.828125,20.58
12:22:01.843750,21.94
12:22:01.859375,26.20
12:22:01.875000,34.59
12:22:01.890625,47.45
12:22:01.906250,63.98
12:22:01.921875,82.67
12:22:01.937500,101.83
12:22:01.953125,120.46
12:22:01.968750,138.68
12:22:01.984375,157.81
12:22:02,180.03
12:22:02.015625,208.11
12:22:02.031250,245.00
12:22:02.046875,293.25
12:22:02.062500,353.70
12:22:02.078125,424.10
12:22:02.093750,498.39
12:22:02.109375,567.38
12:22:02.125000,621.23
12:22:02.140625,652.82
12:22:02.156250,660.28
12:22:02.171875,647.42
12:22:02.187500,621.64
12:22:02.203125,590.50
12:22:02.218750,558.86
12:22:02.234375,527.81
12:22:02.250000,495.91
12:22:02.265625,461.34
12:22:02.281250,423.75
12:22:02.296875,384.46
12:22:02.312500,345.36
12:22:02.328125,307.42
12:22:02.343750,269.93
12:22:02.359375,230.84
12:22:02.375000,188.06
12:22:02.390625,140.67
12:22:02.406250,89.46
12:22:02.421875,37.06
12:22:02.437500,-13.32
12:22:02.453125,-58.95
12:22:02.468750,-98.61
12:22:02.484375,-132.81
12:22:02.500000,-163.23
12:22:02.515625,-191.94
12:22:02.531250,-220.77
12:22:02.546875,-250.98
12:22:02.562500,-283.03
12:22:02.578125,-316.49
12:22:02.593750,-349.83
12:22:02.609375,-379.92
12:22:02.625000,-401.93
12:22:02.640625,-410.14
12:22:02.656250,-399.90
12:22:02.671875,-369.94
12:22:02.687500,-324.16
12:22:02.703125,-270.99
12:22:02.718750,-221.13
12:22:02.734375,-184.17
12:22:02.750000,-165.75
12:22:02.765625,-166.47
12:22:02.781250,-182.98
12:22:02.796875,-210.14
12:22:02.812500,-242.73
12:22:02.828125,-276.29
12:22:02.843750,-306.23
12:22:02.859375,-327.76
12:22:02.875000,-336.66
12:22:02.890625,-330.81
12:22:02.906250,-311.47
12:22:02.921875,-283.35
12:22:02.937500,-253.39
12:22:02.953125,-226.69
12:22:02.968750,-207.52
12:22:02.984375,-197.02
12:22:03,-192.99
12:22:03.015625,-191.57
12:22:03.031250,-189.84
12:22:03.046875,-186.30
12:22:03.062500,-180.91
12:22:03.078125,-174.33
12:22:03.093750,-167.26
12:22:03.109375,-160.40
12:22:03.125000,-154.08
12:22:03.140625,-148.37
12:22:03.156250,-143.48
12:22:03.171875,-139.80
12:22:03.187500,-137.77
12:22:03.203125,-137.78
12:22:03.218750,-140.04
12:22:03.234375,-144.40
12:22:03.250000,-150.59
12:22:03.265625,-157.88
12:22:03.281250,-165.31
12:22:03.296875,-172.01
12:22:03.312500,-177.37
12:22:03.328125,-180.93
12:22:03.343750,-182.48
12:22:03.359375,-181.98
12:22:03.375000,-179.58
12:22:03.390625,-175.68
12:22:03.406250,-170.62
12:22:03.421875,-164.69
12:22:03.437500,-158.14
12:22:03.453125,-151.22
12:22:03.468750,-144.08
12:22:03.484375,-136.91
12:22:03.500000,-129.96
12:22:03.515625,-123.52
12:22:03.531250,-117.99
12:22:03.546875,-113.51
12:22:03.562500,-109.97
12:22:03.578125,-106.92
12:22:03.593750,-103.73
12:22:03.609375,-99.74
12:22:03.625000,-94.48
12:22:03.640625,-87.86
12:22:03.656250,-80.09
12:22:03.671875,-71.49
12:22:03.687500,-62.14
12:22:03.703125,-51.66
12:22:03.718750,-39.17
12:22:03.734375,-23.54
12:22:03.750000,-3.85
12:22:03.765625,20.22
12:22:03.781250,48.16
12:22:03.796875,78.85
12:22:03.812500,110.92
12:22:03.828125,143.23
12:22:03.843750,175.29
12:22:03.859375,207.22
12:22:03.875000,239.62
12:22:03.890625,273.38
12:22:03.906250,309.52
12:22:03.921875,348.85
12:22:03.937500,391.51
12:22:03.953125,436.18
12:22:03.968750,479.67
12:22:03.984375,517.17
12:22:04,543.47
12:22:04.015625,554.76
12:22:04.031250,550.16
12:22:04.046875,532.13
12:22:04.062500,505.40
12:22:04.078125,474.98
12:22:04.093750,444.32
12:22:04.109375,414.41
12:22:04.125000,384.35
12:22:04.140625,352.86
12:22:04.156250,319.63
12:22:04.171875,285.85
12:22:04.187500,253.63
12:22:04.203125,224.86
12:22:04.218750,200.48
12:22:04.234375,180.28
12:22:04.250000,163.38
12:22:04.265625,148.75
12:22:04.281250,135.49
12:22:04.296875,122.87
12:22:04.312500,110.24
12:22:04.328125,97.03
12:22:04.343750,83.12
12:22:04.359375,69.05
12:22:04.375000,56.05
12:22:04.390625,45.66
12:22:04.406250,39.18
12:22:04.421875,37.13
12:22:04.437500,39.04
12:22:04.453125,43.50
12:22:04.468750,48.56
12:22:04.484375,52.13
12:22:04.500000,52.49
12:22:04.515625,48.74
12:22:04.531250,41.24
12:22:04.546875,31.79
12:22:04.562500,23.29
12:22:04.578125,18.87
12:22:04.593750,20.75
12:22:04.609375,29.34
12:22:04.625000,42.99
12:22:04.640625,58.53
12:22:04.656250,72.24
12:22:04.671875,81.08
12:22:04.687500,83.31
12:22:04.703125,78.66
12:22:04.718750,67.97
12:22:04.734375,52.63
12:22:04.750000,34.14
12:22:04.765625,13.97
12:22:04.781250,-6.41
12:22:04.796875,-25.50
12:22:04.812500,-41.93
12:22:04.828125,-54.72
12:22:04.843750,-63.69
12:22:04.859375,-69.38
12:22:04.875000,-72.94
12:22:04.890625,-75.53
12:22:04.906250,-77.92
12:22:04.921875,-80.31
12:22:04.937500,-82.40
12:22:04.953125,-83.69
12:22:04.968750,-83.86
12:22:04.984375,-82.96
12:22:05,-81.35
12:22:05.015625,-79.57
12:22:05.031250,-78.10
12:22:05.046875,-77.19
12:22:05.062500,-76.79
12:22:05.078125,-76.56
12:22:05.093750,-75.94
12:22:05.109375,-74.37
12:22:05.125000,-71.38
12:22:05.140625,-66.79
12:22:05.156250,-60.80
12:22:05.171875,-54.06
12:22:05.187500,-47.57
12:22:05.203125,-42.46
12:22:05.218750,-39.75
12:22:05.234375,-40.00
12:22:05.250000,-43.18
12:22:05.265625,-48.55
12:22:05.281250,-54.81
12:22:05.296875,-60.42
12:22:05.312500,-63.99
12:22:05.328125,-64.67
12:22:05.343750,-62.47
12:22:05.359375,-58.24
12:22:05.375000,-53.48
12:22:05.390625,-49.77
12:22:05.406250,-48.27
12:22:05.421875,-49.37
12:22:05.437500,-52.64
12:22:05.453125,-57.14
12:22:05.468750,-61.94
12:22:05.484375,-66.41
12:22:05.500000,-70.39
12:22:05.515625,-73.88
12:22:05.531250,-76.85
12:22:05.546875,-78.98
12:22:05.562500,-79.85
12:22:05.578125,-79.16
12:22:05.593750,-77.00
12:22:05.609375,-73.78
12:22:05.625000,-70.00
12:22:05.640625,-65.83
12:22:05.656250,-61.06
12:22:05.671875,-55.22
12:22:05.687500,-48.02
12:22:05.703125,-39.78
12:22:05.718750,-31.52
12:22:05.734375,-24.62
12:22:05.750000,-20.39
12:22:05.765625,-19.53
12:22:05.781250,-21.90
12:22:05.796875,-26.64
12:22:05.812500,-32.48
12:22:05.828125,-38.07
12:22:05.843750,-42.36
12:22:05.859375,-44.79
12:22:05.875000,-45.45
12:22:05.890625,-45.05
12:22:05.906250,-44.72
12:22:05.921875,-45.58
12:22:05.937500,-48.19
12:22:05.953125,-52.29
12:22:05.968750,-56.70
12:22:05.984375,-59.87
12:22:06,-60.51
12:22:06.015625,-58.10
12:22:06.031250,-53.07
12:22:06.046875,-46.48
12:22:06.062500,-39.46
12:22:06.078125,-32.66
12:22:06.093750,-26.00
12:22:06.109375,-18.76
12:22:06.125000,-9.61
12:22:06.140625,2.92
12:22:06.156250,19.94
12:22:06.171875,41.34
12:22:06.187500,65.04
12:22:06.203125,86.59
12:22:06.218750,100.08
12:22:06.234375,99.98
12:22:06.250000,83.59
12:22:06.265625,52.61
12:22:06.281250,13.17
12:22:06.296875,-26.02
12:22:06.312500,-56.66
12:22:06.328125,-73.77
12:22:06.343750,-77.28
12:22:06.359375,-71.71
12:22:06.375000,-64.10
12:22:06.390625,-61.15
12:22:06.406250,-66.63
12:22:06.421875,-80.23
12:22:06.437500,-98.02
12:22:06.453125,-114.33
12:22:06.468750,-124.03
12:22:06.484375,-124.20
12:22:06.500000,-114.77
12:22:06.515625,-97.83
12:22:06.531250,-76.45
12:22:06.546875,-53.86
12:22:06.562500,-33.15
12:22:06.578125,-17.18
12:22:06.593750,-8.38
12:22:06.609375,-7.88
12:22:06.625000,-14.58
12:22:06.640625,-24.86
12:22:06.656250,-33.70
12:22:06.671875,-36.55
12:22:06.687500,-31.24
12:22:06.703125,-18.82
12:22:06.718750,-2.73
12:22:06.734375,12.90
12:22:06.750000,25.13
12:22:06.765625,33.17
12:22:06.781250,38.31
12:22:06.796875,43.05
12:22:06.812500,49.92
12:22:06.828125,60.52
12:22:06.843750,74.93
12:22:06.859375,91.55
12:22:06.875000,107.39
12:22:06.890625,118.90
12:22:06.906250,123.14
12:22:06.921875,118.98
12:22:06.937500,107.78
12:22:06.953125,93.07
12:22:06.968750,79.33
12:22:06.984375,70.42
12:22:07,68.30
12:22:07.015625,72.60
12:22:07.031250,81.27
12:22:07.046875,91.78
12:22:07.062500,102.22
12:22:07.078125,111.82
12:22:07.093750,120.77
12:22:07.109375,129.60
12:22:07.125000,138.49
12:22:07.140625,146.98
12:22:07.156250,154.10
12:22:07.171875,158.60
12:22:07.187500,159.24
12:22:07.203125,154.88
12:22:07.218750,144.41
12:22:07.234375,126.95
12:22:07.250000,102.00
12:22:07.265625,69.77
12:22:07.281250,31.35
12:22:07.296875,-11.47
12:22:07.312500,-56.58
12:22:07.328125,-102.14
12:22:07.343750,-147.07
12:22:07.359375,-191.45
12:22:07.375000,-236.38
12:22:07.390625,-283.44
12:22:07.406250,-333.74
12:22:07.421875,-386.81
12:22:07.437500,-440.06
12:22:07.453125,-489.22
12:22:07.468750,-529.76
12:22:07.484375,-558.60
12:22:07.500000,-575.05
12:22:07.515625,-580.66
12:22:07.531250,-577.86
12:22:07.546875,-568.39
12:22:07.562500,-552.55
12:22:07.578125,-529.64
12:22:07.593750,-499.11
12:22:07.609375,-461.70
12:22:07.625000,-419.51
12:22:07.640625,-375.24
12:22:07.656250,-330.91
12:22:07.671875,-287.21
12:22:07.687500,-243.57
12:22:07.703125,-199.00
12:22:07.718750,-152.88
12:22:07.734375,-105.35
12:22:07.750000,-57.10
12:22:07.765625,-9.05
12:22:07.781250,38.08
12:22:07.796875,83.74
12:22:07.812500,127.54
12:22:07.828125,169.16
12:22:07.843750,208.38
12:22:07.859375,245.13
12:22:07.875000,279.55
12:22:07.890625,312.03
12:22:07.906250,343.23
12:22:07.921875,374.16
12:22:07.937500,406.10
12:22:07.953125,440.23
12:22:07.968750,476.93
12:22:07.984375,515.00
12:22:08,551.45
12:22:08.015625,582.12
12:22:08.031250,603.04
12:22:08.046875,611.85
12:22:08.062500,608.75
12:22:08.078125,596.14
12:22:08.093750,577.34
12:22:08.109375,554.94
12:22:08.125000,529.82
12:22:08.140625,501.06
12:22:08.156250,467.04
12:22:08.171875,426.63
12:22:08.187500,380.04
12:22:08.203125,328.90
12:22:08.218750,275.62
12:22:08.234375,222.66
12:22:08.250000,171.94
12:22:08.265625,124.86
12:22:08.281250,82.40
12:22:08.296875,45.21
12:22:08.312500,13.52
12:22:08.328125,-13.09
12:22:08.343750,-36.03
12:22:08.359375,-57.67
12:22:08.375000,-80.81
12:22:08.390625,-107.62
12:22:08.406250,-138.54
12:22:08.421875,-171.47
12:22:08.437500,-201.98
12:22:08.453125,-224.49
12:22:08.468750,-234.26
12:22:08.484375,-229.49
12:22:08.500000,-212.22
12:22:08.515625,-187.85
12:22:08.531250,-163.01
12:22:08.546875,-143.10
12:22:08.562500,-130.38
12:22:08.578125,-123.63
12:22:08.593750,-119.31
12:22:08.609375,-113.71
12:22:08.625000,-104.69
12:22:08.640625,-92.28
12:22:08.656250,-78.15
12:22:08.671875,-64.20
12:22:08.687500,-51.44
12:22:08.703125,-39.62
12:22:08.718750,-27.72
12:22:08.734375,-14.67
12:22:08.750000,0.15
12:22:08.765625,17.10
12:22:08.781250,36.57
12:22:08.796875,58.94
12:22:08.812500,83.92
12:22:08.828125,109.78
12:22:08.843750,132.88
12:22:08.859375,148.32
12:22:08.875000,151.63
12:22:08.890625,140.55
12:22:08.906250,116.04
12:22:08.921875,82.02
12:22:08.937500,43.47
12:22:08.953125,4.54
12:22:08.968750,-32.75
12:22:08.984375,-68.68
12:22:09,-105.13
12:22:09.015625,-144.49
12:22:09.031250,-188.97
12:22:09.046875,-239.93
12:22:09.062500,-297.28
12:22:09.078125,-358.80
12:22:09.093750,-419.79
12:22:09.109375,-473.44
12:22:09.125000,-512.54
12:22:09.140625,-531.49
12:22:09.156250,-528.17
12:22:09.171875,-504.63
12:22:09.187500,-466.19
12:22:09.203125,-419.56
12:22:09.218750,-370.81
12:22:09.234375,-323.99
12:22:09.250000,-280.81
12:22:09.265625,-241.20
12:22:09.281250,-204.13
12:22:09.296875,-168.25
12:22:09.312500,-132.17
12:22:09.328125,-94.46
12:22:09.343750,-53.80
12:22:09.359375,-9.48
12:22:09.375000,37.93
12:22:09.390625,86.10
12:22:09.406250,130.99
12:22:09.421875,168.05
12:22:09.437500,193.58
12:22:09.453125,205.94
12:22:09.468750,206.03
12:22:09.484375,196.51
12:22:09.500000,180.44
12:22:09.515625,159.97
12:22:09.531250,135.76
12:22:09.546875,107.49
12:22:09.562500,75.04
12:22:09.578125,39.52
12:22:09.593750,3.59
12:22:09.609375,-29.09
12:22:09.625000,-54.95
12:22:09.640625,-71.55
12:22:09.656250,-77.98
12:22:09.671875,-74.77
12:22:09.687500,-63.23
12:22:09.703125,-44.85
12:22:09.718750,-20.75
12:22:09.734375,8.31
12:22:09.750000,41.55
12:22:09.765625,77.68
12:22:09.781250,114.44
12:22:09.796875,148.80
12:22:09.812500,177.52
12:22:09.828125,198.12
12:22:09.843750,209.58
12:22:09.859375,212.65
12:22:09.875000,209.29
12:22:09.890625,201.78
12:22:09.906250,191.92
12:22:09.921875,180.53
12:22:09.937500,167.86
12:22:09.953125,154.11
12:22:09.968750,139.88
12:22:09.984375,126.14
12:22:10,113.70
12:22:10.015625,102.74
12:22:10.031250,92.69
12:22:10.046875,82.64
12:22:10.062500,72.08
12:22:10.078125,61.32
12:22:10.093750,51.47
12:22:10.109375,43.92
12:22:10.125000,39.64
12:22:10.140625,38.77
12:22:10.156250,40.64
12:22:10.171875,44.10
12:22:10.187500,47.99
12:22:10.203125,51.40
12:22:10.218750,53.73
12:22:10.234375,54.62
12:22:10.250000,53.87
12:22:10.265625,51.43
12:22:10.281250,47.39
12:22:10.296875,42.04
12:22:10.312500,35.82
12:22:10.328125,29.40
12:22:10.343750,23.58
12:22:10.359375,19.19
12:22:10.375000,16.78
12:22:10.390625,16.30
12:22:10.406250,16.89
12:22:10.421875,17.12
12:22:10.437500,15.46
12:22:10.453125,11.03
12:22:10.468750,3.98
12:22:10.484375,-4.43
12:22:10.500000,-12.43
12:22:10.515625,-18.52
12:22:10.531250,-21.99
12:22:10.546875,-23.20
12:22:10.562500,-23.21
12:22:10.578125,-23.41
12:22:10.593750,-25.06
12:22:10.609375,-29.12
12:22:10.625000,-36.00
12:22:10.640625,-45.41
12:22:10.656250,-56.07
12:22:10.671875,-65.65
12:22:10.687500,-71.18
12:22:10.703125,-69.86
12:22:10.718750,-60.24
12:22:10.734375,-42.95
12:22:10.750000,-20.54
12:22:10.765625,3.46
12:22:10.781250,26.17
12:22:10.796875,46.33
12:22:10.812500,64.46
12:22:10.828125,81.81
12:22:10.843750,98.97
12:22:10.859375,114.95
12:22:10.875000,127.37
12:22:10.890625,133.65
12:22:10.906250,132.48
12:22:10.921875,124.58
12:22:10.937500,112.29
12:22:10.953125,98.39
12:22:10.968750,84.81
12:22:10.984375,71.95
12:22:11,59.10
12:22:11.015625,45.44
12:22:11.031250,31.02
12:22:11.046875,17.17
12:22:11.062500,6.01
12:22:11.078125,-0.42
12:22:11.093750,-1.19
12:22:11.109375,3.13
12:22:11.125000,10.60
12:22:11.140625,18.83
12:22:11.156250,25.76
12:22:11.171875,30.42
12:22:11.187500,32.90
12:22:11.203125,33.89
12:22:11.218750,33.96
12:22:11.234375,33.08
12:22:11.250000,30.66
12:22:11.265625,26.11
12:22:11.281250,19.59
12:22:11.296875,12.37
12:22:11.312500,6.66
12:22:11.328125,4.77
12:22:11.343750,8.15
12:22:11.359375,16.58
12:22:11.375000,28.23
12:22:11.390625,40.16
12:22:11.406250,49.39
12:22:11.421875,54.03
12:22:11.437500,54.00
12:22:11.453125,51.12
12:22:11.468750,48.53
12:22:11.484375,49.55
12:22:11.500000,56.25
12:22:11.515625,68.47
12:22:11.531250,83.49
12:22:11.546875,96.70
12:22:11.562500,103.09
12:22:11.578125,98.97
12:22:11.593750,83.26
12:22:11.609375,57.75
12:22:11.625000,26.30
12:22:11.640625,-6.69
12:22:11.656250,-37.72
12:22:11.671875,-65.00
12:22:11.687500,-88.33
12:22:11.703125,-108.53
12:22:11.718750,-126.65
12:22:11.734375,-143.78
12:22:11.750000,-161.16
12:22:11.765625,-180.32
12:22:11.781250,-202.75
12:22:11.796875,-228.95
12:22:11.812500,-257.50
12:22:11.828125,-284.88
12:22:11.843750,-306.31
12:22:11.859375,-317.44
12:22:11.875000,-316.14
12:22:11.890625,-303.17
12:22:11.906250,-281.65
12:22:11.921875,-255.47
12:22:11.937500,-227.78
12:22:11.953125,-200.17
12:22:11.968750,-173.08
12:22:11.984375,-146.82
12:22:12,-122.39
12:22:12.015625,-101.36
12:22:12.031250,-84.85
12:22:12.046875,-72.21
12:22:12.062500,-60.49
12:22:12.078125,-45.26
12:22:12.093750,-22.31
12:22:12.109375,10.42
12:22:12.125000,52.08
12:22:12.140625,99.75
12:22:12.156250,150.57
12:22:12.171875,203.70
12:22:12.187500,260.33
12:22:12.203125,321.82
12:22:12.218750,386.56
12:22:12.234375,447.95
12:22:12.250000,495.14
12:22:12.265625,516.48
12:22:12.281250,503.64
12:22:12.296875,454.73
12:22:12.312500,374.65
12:22:12.328125,273.18
12:22:12.343750,162.44
12:22:12.359375,54.95
12:22:12.375000,-37.46
12:22:12.390625,-104.71
12:22:12.406250,-140.21
12:22:12.421875,-143.00
12:22:12.437500,-119.15
12:22:12.453125,-80.85
12:22:12.468750,-42.91
12:22:12.484375,-18.19
12:22:12.500000,-13.94
12:22:12.515625,-30.87
12:22:12.531250,-64.73
12:22:12.546875,-108.95
12:22:12.562500,-156.77
12:22:12.578125,-202.15
12:22:12.593750,-239.79
12:22:12.609375,-265.25
12:22:12.625000,-275.70
12:22:12.640625,-271.05
12:22:12.656250,-254.43
12:22:12.671875,-231.19
12:22:12.687500,-207.22
12:22:12.703125,-186.49
12:22:12.718750,-169.89
12:22:12.734375,-155.54
12:22:12.750000,-139.97
12:22:12.765625,-119.64
12:22:12.781250,-92.14
12:22:12.796875,-56.91
12:22:12.812500,-15.66
12:22:12.828125,27.60
12:22:12.843750,67.29
12:22:12.859375,97.87
12:22:12.875000,115.99
12:22:12.890625,122.62
12:22:12.906250,123.33
12:22:12.921875,126.47
12:22:12.937500,139.60
12:22:12.953125,166.10
12:22:12.968750,203.50
12:22:12.984375,244.75
12:22:13,281.19
12:22:13.015625,305.51
12:22:13.031250,314.08
12:22:13.046875,307.02
12:22:13.062500,287.00
12:22:13.078125,257.60
12:22:13.093750,222.16
12:22:13.109375,183.40
12:22:13.125000,143.56
12:22:13.140625,104.46
12:22:13.156250,66.71
12:22:13.171875,30.41
12:22:13.187500,-4.51
12:22:13.203125,-37.75
12:22:13.218750,-68.61
12:22:13.234375,-96.48
12:22:13.250000,-121.14
12:22:13.265625,-142.48
12:22:13.281250,-159.71
12:22:13.296875,-172.04
12:22:13.312500,-177.72
12:22:13.328125,-175.32
12:22:13.343750,-165.13
12:22:13.359375,-150.46
12:22:13.375000,-137.28
12:22:13.390625,-131.95
12:22:13.406250,-137.94
12:22:13.421875,-153.84
12:22:13.437500,-175.85
12:22:13.453125,-198.94
12:22:13.468750,-220.02
12:22:13.484375,-238.71
12:22:13.500000,-256.59
12:22:13.515625,-275.37
12:22:13.531250,-295.11
12:22:13.546875,-313.60
12:22:13.562500,-316.97
12:22:13.578125,-294.52
12:22:13.593750,-242.55
12:22:13.609375,-167.90
12:22:13.625000,-84.33
12:22:13.640625,-5.27
12:22:13.656250,61.37
12:22:13.671875,113.53
12:22:13.687500,152.74
12:22:13.703125,181.65
12:22:13.718750,200.24
12:22:13.734375,209.44
12:22:13.750000,209.80
12:22:13.765625,202.98
12:22:13.781250,191.89
12:22:13.796875,179.57
12:22:13.812500,168.19
12:22:13.828125,158.47
12:22:13.843750,149.87
12:22:13.859375,139.75
12:22:13.875000,126.46
12:22:13.890625,108.73
12:22:13.906250,86.77
12:22:13.921875,62.03
12:22:13.937500,36.26
12:22:13.953125,10.65
12:22:13.968750,-14.44
12:22:13.984375,-39.37
12:22:14,-65.89
12:22:14.015625,-95.96
12:22:14.031250,-131.13
12:22:14.046875,-171.10
12:22:14.062500,-213.03
12:22:14.078125,-251.93
12:22:14.093750,-282.06
12:22:14.109375,-298.75
12:22:14.125000,-300.06
12:22:14.140625,-287.77
12:22:14.156250,-266.03
12:22:14.171875,-239.66
12:22:14.187500,-211.94
12:22:14.203125,-183.91
12:22:14.218750,-155.24
12:22:14.234375,-125.82
12:22:14.250000,-96.85
12:22:14.265625,-70.57
12:22:14.281250,-49.20
12:22:14.296875,-33.33
12:22:14.312500,-21.56
12:22:14.328125,-11.05
12:22:14.343750,0.75
12:22:14.359375,14.74
12:22:14.375000,29.83
12:22:14.390625,43.91
12:22:14.406250,55.02
12:22:14.421875,62.90
12:22:14.437500,68.87
12:22:14.453125,74.89
12:22:14.468750,82.30
12:22:14.484375,91.00
12:22:14.500000,99.48
12:22:14.515625,105.68
12:22:14.531250,108.18
12:22:14.546875,106.50
12:22:14.562500,101.38
12:22:14.578125,94.10
12:22:14.593750,85.89
12:22:14.609375,77.62
12:22:14.625000,69.80
12:22:14.640625,62.76
12:22:14.656250,56.68
12:22:14.671875,51.78
12:22:14.687500,47.42
12:22:14.703125,42.99
12:22:14.718750,37.98
12:22:14.734375,32.34
12:22:14.750000,26.60
12:22:14.765625,21.59
12:22:14.781250,17.78
12:22:14.796875,14.85
12:22:14.812500,12.27
12:22:14.828125,7.70
12:22:14.843750,0.11
12:22:14.859375,-10.38
12:22:14.875000,-22.31
12:22:14.890625,-33.49
12:22:14.906250,-41.82
12:22:14.921875,-46.19
12:22:14.937500,-46.68
12:22:14.953125,-42.77
12:22:14.968750,-37.00
12:22:14.984375,-29.64
12:22:15,-20.15
12:22:15.015625,-7.77
12:22:15.031250,7.68
12:22:15.046875,25.05
12:22:15.062500,41.96
12:22:15.078125,55.59
12:22:15.093750,66.18
12:22:15.109375,70.87
12:22:15.125000,71.15
12:22:15.140625,69.63
12:22:15.156250,69.21
12:22:15.171875,72.77
12:22:15.187500,83.21
12:22:15.203125,103.33
12:22:15.218750,135.03
12:22:15.234375,180.76
12:22:15.250000,233.12
12:22:15.265625,284.77
12:22:15.281250,327.16
12:22:15.296875,353.68
12:22:15.312500,362.14
12:22:15.328125,355.12
12:22:15.343750,338.18
12:22:15.359375,298.12
12:22:15.375000,262.38
12:22:15.390625,228.04
12:22:15.406250,194.33
12:22:15.421875,160.77
12:22:15.437500,127.77
12:22:15.453125,95.94
12:22:15.468750,64.85
12:22:15.484375,32.35
12:22:15.500000,-5.24
12:22:15.515625,-49.08
12:22:15.531250,-105.21
12:22:15.546875,-173.34
12:22:15.562500,-249.11
12:22:15.578125,-324.17
12:22:15.593750,-387.97
12:22:15.609375,-430.72
12:22:15.625000,-446.59
12:22:15.640625,-435.72
12:22:15.656250,-401.61
12:22:15.671875,-355.70
12:22:15.687500,-306.25
12:22:15.703125,-257.94
12:22:15.718750,-211.09
12:22:15.734375,-163.20
12:22:15.750000,-111.87
12:22:15.765625,-57.42
12:22:15.781250,-3.68
12:22:15.796875,44.59
12:22:15.812500,79.80
12:22:15.828125,98.55
12:22:15.843750,101.23
12:22:15.859375,91.60
12:22:15.875000,75.07
12:22:15.890625,56.89
12:22:15.906250,40.59
12:22:15.921875,27.80
12:22:15.937500,19.42
12:22:15.953125,14.42
12:22:15.968750,12.63
12:22:15.984375,13.99
12:22:16,18.05
12:22:16.015625,23.67
12:22:16.031250,29.23
12:22:16.046875,33.41
12:22:16.062500,35.98
12:22:16.078125,38.38
12:22:16.093750,42.44
12:22:16.109375,50.03
12:22:16.125000,61.44
12:22:16.140625,74.85
12:22:16.156250,86.76
12:22:16.171875,93.34
12:22:16.187500,92.18
12:22:16.203125,83.52
12:22:16.218750,70.34
12:22:16.234375,57.20
12:22:16.250000,48.40
12:22:16.265625,46.25
12:22:16.281250,50.48
12:22:16.296875,58.68
12:22:16.312500,67.89
12:22:16.328125,75.81
12:22:16.343750,81.83
12:22:16.359375,86.69
12:22:16.375000,91.36
12:22:16.390625,95.97
12:22:16.406250,99.78
12:22:16.421875,102.40
12:22:16.437500,105.11
12:22:16.453125,111.15
12:22:16.468750,124.22
12:22:16.484375,146.56
12:22:16.500000,177.36
12:22:16.515625,213.09
12:22:16.531250,249.39
12:22:16.546875,283.23
12:22:16.562500,313.89
12:22:16.578125,341.92
12:22:16.593750,366.70
12:22:16.609375,384.43
12:22:16.625000,389.68
12:22:16.640625,378.53
12:22:16.656250,351.80
12:22:16.671875,315.77
12:22:16.687500,279.61
12:22:16.703125,251.05
12:22:16.718750,233.02
12:22:16.734375,222.53
12:22:16.750000,211.63
12:22:16.765625,193.13
12:22:16.781250,164.37
12:22:16.796875,128.14
12:22:16.812500,90.23
12:22:16.828125,55.75
12:22:16.843750,26.68
12:22:16.859375,2.14
12:22:16.875000,-20.98
12:22:16.890625,-48.53
12:22:16.906250,-83.97
12:22:16.921875,-126.57
12:22:16.937500,-171.71
12:22:16.953125,-213.52
12:22:16.968750,-247.81
12:22:16.984375,-273.51
12:22:17,-291.42
12:22:17.015625,-304.79
12:22:17.031250,-321.72
12:22:17.046875,-348.19
12:22:17.062500,-385.29
12:22:17.078125,-428.59
12:22:17.093750,-471.32
12:22:17.109375,-508.36
12:22:17.125000,-538.39
12:22:17.140625,-562.27
12:22:17.156250,-584.66
12:22:17.171875,-616.93
12:22:17.187500,-668.40
12:22:17.203125,-743.01
12:22:17.218750,-837.83
12:22:17.234375,-945.47
12:22:17.250000,-1057.25
12:22:17.265625,-1164.72
12:22:17.281250,-1258.09
12:22:17.296875,-1288.27
12:22:17.312500,-1222.32
12:22:17.328125,-1058.42
12:22:17.343750,-831.98
12:22:17.359375,-594.14
12:22:17.375000,-383.88
12:22:17.390625,-216.58
12:22:17.406250,-99.39
12:22:17.421875,-12.40
12:22:17.437500,58.95
12:22:17.453125,115.35
12:22:17.468750,153.94
12:22:17.484375,175.16
12:22:17.500000,186.93
12:22:17.515625,200.65
12:22:17.531250,225.81
12:22:17.546875,266.53
12:22:17.562500,322.59
12:22:17.578125,386.73
12:22:17.593750,445.12
12:22:17.609375,486.38
12:22:17.625000,505.98
12:22:17.640625,507.70
12:22:17.656250,500.44
12:22:17.671875,493.23
12:22:17.687500,492.13
12:22:17.703125,500.92
12:22:17.718750,518.47
12:22:17.734375,538.58
12:22:17.750000,553.93
12:22:17.765625,557.21
12:22:17.781250,542.21
12:22:17.796875,504.55
12:22:17.812500,443.08
12:22:17.828125,361.65
12:22:17.843750,270.18
12:22:17.859375,180.00
12:22:17.875000,99.31
12:22:17.890625,31.33
12:22:17.906250,-25.72
12:22:17.921875,-75.57
12:22:17.937500,-120.19
12:22:17.953125,-157.73
12:22:17.968750,-183.31
12:22:17.984375,-191.77
12:22:18,-182.12
12:22:18.015625,-158.88
12:22:18.031250,-129.85
12:22:18.046875,-102.45
12:22:18.062500,-80.46
12:22:18.078125,-63.07
12:22:18.093750,-46.26
12:22:18.109375,-25.69
12:22:18.125000,1.14
12:22:18.140625,33.67
12:22:18.156250,69.27
12:22:18.171875,104.50
12:22:18.187500,137.02
12:22:18.203125,166.23
12:22:18.218750,193.31
12:22:18.234375,220.29
12:22:18.250000,249.05
12:22:18.265625,280.53
12:22:18.281250,314.91
12:22:18.296875,352.29
12:22:18.312500,392.98
12:22:18.328125,437.30
12:22:18.343750,484.25
12:22:18.359375,530.33
12:22:18.375000,569.35
12:22:18.390625,594.02
12:22:18.406250,598.77
12:22:18.421875,582.16
12:22:18.437500,547.57
12:22:18.453125,501.54
12:22:18.468750,451.28
12:22:18.484375,402.21
12:22:18.500000,357.00
12:22:18.515625,316.09
12:22:18.531250,279.09
12:22:18.546875,245.83
12:22:18.562500,216.52
12:22:18.578125,191.15
12:22:18.593750,168.58
12:22:18.609375,147.06
12:22:18.625000,125.03
12:22:18.640625,101.94
12:22:18.656250,78.28
12:22:18.671875,55.24
12:22:18.687500,34.20
12:22:18.703125,16.18
12:22:18.718750,1.61
12:22:18.734375,-10.85
12:22:18.750000,-22.41
12:22:18.765625,-33.54
12:22:18.781250,-43.73
12:22:18.796875,-52.20
12:22:18.812500,-58.51
12:22:18.828125,-62.81
12:22:18.843750,-65.73
12:22:18.859375,-68.05
12:22:18.875000,-72.83
12:22:18.890625,-82.06
12:22:18.906250,-95.80
12:22:18.921875,-112.48
12:22:18.937500,-130.35
12:22:18.953125,-148.74
12:22:18.968750,-168.09
12:22:18.984375,-189.23
12:22:19,-212.46
12:22:19.015625,-240.96
12:22:19.031250,-276.01
12:22:19.046875,-315.85
12:22:19.062500,-356.51
12:22:19.078125,-394.22
12:22:19.093750,-427.23
12:22:19.109375,-456.18
12:22:19.125000,-483.33
12:22:19.140625,-511.75
12:22:19.156250,-549.46
12:22:19.171875,-601.60
12:22:19.187500,-667.14
12:22:19.203125,-738.19
12:22:19.218750,-803.05
12:22:19.234375,-850.83
12:22:19.250000,-875.22
12:22:19.265625,-876.09
12:22:19.281250,-827.94
12:22:19.296875,-724.38
12:22:19.312500,-579.79
12:22:19.328125,-423.33
12:22:19.343750,-281.66
12:22:19.359375,-167.40
12:22:19.375000,-80.94
12:22:19.390625,-17.79
12:22:19.406250,26.91
12:22:19.421875,57.31
12:22:19.437500,72.48
12:22:19.453125,73.52
12:22:19.468750,64.75
12:22:19.484375,52.56
12:22:19.500000,41.46
12:22:19.515625,34.23
12:22:19.531250,30.21
12:22:19.546875,27.41
12:22:19.562500,24.21
12:22:19.578125,16.26
12:22:19.593750,1.87
12:22:19.609375,-17.47
12:22:19.625000,-37.88
12:22:19.640625,-55.54
12:22:19.656250,-68.39
12:22:19.671875,-76.47
12:22:19.687500,-80.35
12:22:19.703125,-79.99
12:22:19.718750,-78.75
12:22:19.734375,-77.88
12:22:19.750000,-76.62
12:22:19.765625,-72.77
12:22:19.781250,-64.36
12:22:19.796875,-50.69
12:22:19.812500,-32.69
12:22:19.828125,-11.89
12:22:19.843750,10.25
12:22:19.859375,31.61
12:22:19.875000,51.26
12:22:19.890625,69.46
12:22:19.906250,87.23
12:22:19.921875,105.51
12:22:19.937500,124.51
12:22:19.953125,143.52
12:22:19.968750,161.46
12:22:19.984375,177.45
12:22:20,190.73
12:22:20.015625,201.57
12:22:20.031250,210.91
12:22:20.046875,220.03
12:22:20.062500,229.79
12:22:20.078125,240.17
12:22:20.093750,250.16
12:22:20.109375,258.19
12:22:20.125000,262.79
12:22:20.140625,263.15
12:22:20.156250,259.63
12:22:20.171875,253.36
12:22:20.187500,245.77
12:22:20.203125,238.02
12:22:20.218750,230.51
12:22:20.234375,222.91
12:22:20.250000,214.64
12:22:20.265625,205.49
12:22:20.281250,196.04
12:22:20.296875,187.87
12:22:20.312500,183.06
12:22:20.328125,183.81
12:22:20.343750,192.24
12:22:20.359375,210.13
12:22:20.375000,238.51
12:22:20.390625,276.70
12:22:20.406250,321.31
12:22:20.421875,365.97
12:22:20.437500,402.33
12:22:20.453125,422.49
12:22:20.468750,421.72
12:22:20.484375,400.27
12:22:20.500000,363.16
12:22:20.515625,317.96
12:22:20.531250,271.87
12:22:20.546875,229.48
12:22:20.562500,192.13
12:22:20.578125,159.07
12:22:20.593750,128.96
12:22:20.609375,100.99
12:22:20.625000,74.84
12:22:20.640625,49.82
12:22:20.656250,23.98
12:22:20.671875,-5.90
12:22:20.687500,-43.08
12:22:20.703125,-89.03
12:22:20.718750,-141.80
12:22:20.734375,-195.75
12:22:20.750000,-242.84
12:22:20.765625,-275.32
12:22:20.781250,-288.34
12:22:20.796875,-281.56
12:22:20.812500,-258.77
12:22:20.828125,-226.09
12:22:20.843750,-189.54
12:22:20.859375,-153.24
12:22:20.875000,-118.92
12:22:20.890625,-86.76
12:22:20.906250,-56.56
12:22:20.921875,-28.68
12:22:20.937500,-4.11
12:22:20.953125,15.94
12:22:20.968750,30.55
12:22:20.984375,39.30
12:22:21,42.02
12:22:21.015625,38.52
12:22:21.031250,28.52
12:22:21.046875,11.89
12:22:21.062500,-10.77
12:22:21.078125,-37.48
12:22:21.093750,-64.79
12:22:21.109375,-88.35
12:22:21.125000,-104.34
12:22:21.140625,-110.90
12:22:21.156250,-108.84
12:22:21.171875,-101.22
12:22:21.187500,-91.95
12:22:21.203125,-84.32
12:22:21.218750,-80.18
12:22:21.234375,-80.35
12:22:21.250000,-85.62
12:22:21.265625,-97.50
12:22:21.281250,-118.12
12:22:21.296875,-149.17
12:22:21.312500,-190.63
12:22:21.328125,-240.07
12:22:21.343750,-293.12
12:22:21.359375,-344.72
12:22:21.375000,-390.33
12:22:21.390625,-426.46
12:22:21.406250,-450.51
12:22:21.421875,-460.42
12:22:21.437500,-454.73
12:22:21.453125,-433.02
12:22:21.468750,-396.70
12:22:21.484375,-349.16
12:22:21.500000,-295.18
12:22:21.515625,-239.65
12:22:21.531250,-186.33
12:22:21.546875,-136.92
12:22:21.562500,-91.03
12:22:21.578125,-46.75
12:22:21.593750,-1.57
12:22:21.609375,46.87
12:22:21.625000,100.25
12:22:21.640625,159.02
12:22:21.656250,221.92
12:22:21.671875,285.62
12:22:21.687500,344.93
12:22:21.703125,393.87
12:22:21.718750,427.48
12:22:21.734375,443.64
12:22:21.750000,444.09
12:22:21.765625,434.09
12:22:21.781250,420.52
12:22:21.796875,409.46
12:22:21.812500,403.95
12:22:21.828125,403.48
12:22:21.843750,405.00
12:22:21.859375,405.11
12:22:21.875000,402.11
12:22:21.890625,396.93
12:22:21.906250,392.40
12:22:21.921875,391.62
12:22:21.937500,396.06
12:22:21.953125,404.62
12:22:21.968750,413.88
12:22:21.984375,419.24
12:22:22,416.50
12:22:22.015625,403.07
12:22:22.031250,378.38
12:22:22.046875,343.51
12:22:22.062500,300.53
12:22:22.078125,251.86
12:22:22.093750,199.65
12:22:22.109375,145.63
12:22:22.125000,91.19
12:22:22.140625,37.79
12:22:22.156250,-12.75
12:22:22.171875,-58.29
12:22:22.187500,-96.97
12:22:22.203125,-128.01
12:22:22.218750,-152.11
12:22:22.234375,-171.19
12:22:22.250000,-187.24
12:22:22.265625,-201.24
12:22:22.281250,-212.61
12:22:22.296875,-219.87
12:22:22.312500,-222.18
12:22:22.328125,-220.60
12:22:22.343750,-218.37
12:22:22.359375,-219.49
12:22:22.375000,-226.68
12:22:22.390625,-239.51
12:22:22.406250,-254.10
12:22:22.421875,-264.66
12:22:22.437500,-265.92
12:22:22.453125,-255.52
12:22:22.468750,-234.95
12:22:22.484375,-208.92
12:22:22.500000,-183.42
12:22:22.515625,-163.51
12:22:22.531250,-151.65
12:22:22.546875,-147.43
12:22:22.562500,-148.34
12:22:22.578125,-151.21
12:22:22.593750,-153.55
12:22:22.609375,-154.17
12:22:22.625000,-153.04
12:22:22.640625,-150.52
12:22:22.656250,-146.59
12:22:22.671875,-140.66
12:22:22.687500,-131.89
12:22:22.703125,-119.80
12:22:22.718750,-104.89
12:22:22.734375,-88.69
12:22:22.750000,-73.23
12:22:22.765625,-60.30
12:22:22.781250,-50.70
12:22:22.796875,-43.98
12:22:22.812500,-38.68
12:22:22.828125,-33.07
12:22:22.843750,-25.80
12:22:22.859375,-16.43
12:22:22.875000,-5.56
12:22:22.890625,5.57
12:22:22.906250,15.56
12:22:22.921875,23.47
12:22:22.937500,28.95
12:22:22.953125,32.21
12:22:22.968750,33.58
12:22:22.984375,33.24
12:22:23,31.13
12:22:23.015625,27.18
12:22:23.031250,21.66
12:22:23.046875,15.32
12:22:23.062500,9.12
12:22:23.078125,3.72
12:22:23.093750,-0.77
12:22:23.109375,-4.77
12:22:23.125000,-8.72
12:22:23.140625,-12.52
12:22:23.156250,-15.38
12:22:23.171875,-16.21
12:22:23.187500,-14.40
12:22:23.203125,-10.43
12:22:23.218750,-5.91
12:22:23.234375,-2.94
12:22:23.250000,-3.17
12:22:23.265625,-7.04
12:22:23.281250,-13.58
12:22:23.296875,-20.83
12:22:23.312500,-26.65
12:22:23.328125,-29.43
12:22:23.343750,-28.58
12:22:23.359375,-24.75
12:22:23.375000,-19.83
12:22:23.390625,-16.59
12:22:23.406250,-17.88
12:22:23.421875,-25.51
12:22:23.437500,-39.43
12:22:23.453125,-57.67
12:22:23.468750,-77.36
12:22:23.484375,-96.16
12:22:23.500000,-113.36
12:22:23.515625,-129.73
12:22:23.531250,-146.47
12:22:23.546875,-163.68
12:22:23.562500,-179.92
12:22:23.578125,-192.92
12:22:23.593750,-201.08
12:22:23.609375,-204.61
12:22:23.625000,-205.39
12:22:23.640625,-205.50
12:22:23.656250,-205.65
12:22:23.671875,-204.61
12:22:23.687500,-200.21
12:22:23.703125,-191.17
12:22:23.718750,-178.35
12:22:23.734375,-164.60
12:22:23.750000,-153.21
12:22:23.765625,-146.16
12:22:23.781250,-143.13
12:22:23.796875,-142.00
12:22:23.812500,-140.23
12:22:23.828125,-136.27
12:22:23.843750,-130.23
12:22:23.859375,-123.68
12:22:23.875000,-118.72
12:22:23.890625,-117.04
12:22:23.906250,-119.22
12:22:23.921875,-124.43
12:22:23.937500,-130.67
12:22:23.953125,-135.25
12:22:23.968750,-135.78
12:22:23.984375,-130.93
12:22:24,-120.98
12:22:24.015625,-107.54
12:22:24.031250,-92.63
12:22:24.046875,-77.50
12:22:24.062500,-61.86
12:22:24.078125,-44.14
12:22:24.093750,-22.43
12:22:24.109375,4.13
12:22:24.125000,34.64
12:22:24.140625,66.64
12:22:24.156250,97.26
12:22:24.171875,124.57
12:22:24.187500,148.41
12:22:24.203125,170.47
12:22:24.218750,193.36
12:22:24.234375,219.43
12:22:24.250000,249.99
12:22:24.265625,285.17
12:22:24.281250,324.04
12:22:24.296875,364.97
12:22:24.312500,405.64
12:22:24.328125,443.22
12:22:24.343750,474.83
12:22:24.359375,498.50
12:22:24.375000,514.19
12:22:24.390625,524.07
12:22:24.406250,531.57
12:22:24.421875,539.44
12:22:24.437500,547.58
12:22:24.453125,552.26
12:22:24.468750,547.23
12:22:24.484375,526.50
12:22:24.500000,487.42
12:22:24.515625,432.45
12:22:24.531250,368.70
12:22:24.546875,305.41
12:22:24.562500,250.78
12:22:24.578125,209.35
12:22:24.593750,181.19
12:22:24.609375,162.68
12:22:24.625000,148.28
12:22:24.640625,132.43
12:22:24.656250,111.19
12:22:24.671875,82.82
12:22:24.687500,47.87
12:22:24.703125,8.70
12:22:24.718750,-31.33
12:22:24.734375,-68.74
12:22:24.750000,-100.78
12:22:24.765625,-125.89
12:22:24.781250,-143.90
12:22:24.796875,-155.76
12:22:24.812500,-163.19
12:22:24.828125,-168.15
12:22:24.843750,-172.43
12:22:24.859375,-177.34
12:22:24.875000,-183.47
12:22:24.890625,-190.50
12:22:24.906250,-197.20
12:22:24.921875,-201.70
12:22:24.937500,-202.01
12:22:24.953125,-196.81
12:22:24.968750,-186.03
12:22:24.984375,-171.04
12:22:25,-154.26
12:22:25.015625,-138.37
12:22:25.031250,-125.31
12:22:25.046875,-115.64
12:22:25.062500,-108.52
12:22:25.078125,-102.29
12:22:25.093750,-95.35
12:22:25.109375,-86.98
12:22:25.125000,-77.48
12:22:25.140625,-67.84
12:22:25.156250,-59.00
12:22:25.171875,-51.30
12:22:25.187500,-44.30
12:22:25.203125,-37.23
12:22:25.218750,-29.54
12:22:25.234375,-21.30
12:22:25.250000,-13.16
12:22:25.265625,-5.90
12:22:25.281250,0.08
12:22:25.296875,5.10
12:22:25.312500,9.98
12:22:25.328125,15.57
12:22:25.343750,22.17
12:22:25.359375,29.27
12:22:25.375000,35.66
12:22:25.390625,39.96
12:22:25.406250,41.20
12:22:25.421875,39.26
12:22:25.437500,34.89
12:22:25.453125,29.36
12:22:25.468750,23.85
12:22:25.484375,18.99
12:22:25.500000,14.70
12:22:25.515625,10.45
12:22:25.531250,5.82
12:22:25.546875,0.92
12:22:25.562500,-3.57
12:22:25.578125,-6.81
12:22:25.593750,-8.40
12:22:25.609375,-8.83
12:22:25.625000,-9.23
12:22:25.640625,-10.78
12:22:25.656250,-13.98
12:22:25.671875,-18.21
12:22:25.687500,-22.11
12:22:25.703125,-24.27
12:22:25.718750,-24.05
12:22:25.734375,-21.89
12:22:25.750000,-19.00
12:22:25.765625,-16.78
12:22:25.781250,-16.15
12:22:25.796875,-17.28
12:22:25.812500,-19.80
12:22:25.828125,-23.15
12:22:25.843750,-27.00
12:22:25.859375,-31.19
12:22:25.875000,-35.56
12:22:25.890625,-39.65
12:22:25.906250,-42.65
12:22:25.921875,-43.70
12:22:25.937500,-42.40
12:22:25.953125,-39.19
12:22:25.968750,-35.35
12:22:25.984375,-32.52
12:22:26,-31.87
12:22:26.015625,-33.45
12:22:26.031250,-36.04
12:22:26.046875,-37.74
12:22:26.062500,-36.98
12:22:26.078125,-33.33
12:22:26.093750,-27.72
12:22:26.109375,-21.91
12:22:26.125000,-17.62
12:22:26.140625,-15.67
12:22:26.156250,-15.73
12:22:26.171875,-16.64
12:22:26.187500,-17.03
12:22:26.203125,-15.87
12:22:26.218750,-12.87
12:22:26.234375,-8.55
12:22:26.250000,-4.17
12:22:26.265625,-1.50
12:22:26.281250,-2.34
12:22:26.296875,-8.01
12:22:26.312500,-18.69
12:22:26.328125,-33.19
12:22:26.343750,-49.20
12:22:26.359375,-64.06
12:22:26.375000,-75.71
12:22:26.390625,-83.48
12:22:26.406250,-88.24
12:22:26.421875,-91.83
12:22:26.437500,-96.09
12:22:26.453125,-101.83
12:22:26.468750,-108.40
12:22:26.484375,-113.88
12:22:26.500000,-116.06
12:22:26.515625,-113.47
12:22:26.531250,-106.23
12:22:26.546875,-96.11
12:22:26.562500,-86.01
12:22:26.578125,-78.66
12:22:26.593750,-75.74
12:22:26.609375,-77.16
12:22:26.625000,-81.40
12:22:26.640625,-86.32
12:22:26.656250,-90.27
12:22:26.671875,-93.02
12:22:26.687500,-96.03
12:22:26.703125,-102.09
12:22:26.718750,-114.13
12:22:26.734375,-133.67
12:22:26.750000,-159.40
12:22:26.765625,-186.66
12:22:26.781250,-208.47
12:22:26.796875,-217.69
12:22:26.812500,-209.58
12:22:26.828125,-183.63
12:22:26.843750,-143.63
12:22:26.859375,-95.89
12:22:26.875000,-46.71
12:22:26.890625,-0.14
12:22:26.906250,42.83
12:22:26.921875,83.48
12:22:26.937500,123.90
12:22:26.953125,165.73
12:22:26.968750,209.99
12:22:26.984375,257.41
12:22:27,308.48
12:22:27.015625,362.65
12:22:27.031250,416.97
12:22:27.046875,465.39
12:22:27.062500,499.74
12:22:27.078125,512.52
12:22:27.093750,500.02
12:22:27.109375,464.25
12:22:27.125000,412.22
12:22:27.140625,352.84
12:22:27.156250,293.11
12:22:27.171875,235.89
12:22:27.187500,180.22
12:22:27.203125,123.88
12:22:27.218750,66.29
12:22:27.234375,10.01
12:22:27.250000,-40.05
12:22:27.265625,-79.03
12:22:27.281250,-104.48
12:22:27.296875,-117.30
12:22:27.312500,-121.09
12:22:27.328125,-120.33
12:22:27.343750,-118.65
12:22:27.359375,-117.74
12:22:27.375000,-117.37
12:22:27.390625,-116.12
12:22:27.406250,-112.34
12:22:27.421875,-104.93
12:22:27.437500,-93.88
12:22:27.453125,-80.14
12:22:27.468750,-65.17
12:22:27.484375,-50.28
12:22:27.500000,-36.13
12:22:27.515625,-22.60
12:22:27.531250,-9.21
12:22:27.546875,4.25
12:22:27.562500,17.26
12:22:27.578125,28.66
12:22:27.593750,37.25
12:22:27.609375,42.45
12:22:27.625000,44.78
12:22:27.640625,45.68
12:22:27.656250,46.87
12:22:27.671875,49.59
12:22:27.687500,54.23
12:22:27.703125,60.24
12:22:27.718750,66.48
12:22:27.734375,71.73
12:22:27.750000,75.13
12:22:27.765625,76.36
12:22:27.781250,75.66
12:22:27.796875,73.51
12:22:27.812500,70.41
12:22:27.828125,66.61
12:22:27.843750,62.31
12:22:27.859375,58.04
12:22:27.875000,54.96
12:22:27.890625,54.53
12:22:27.906250,57.56
12:22:27.921875,63.00
12:22:27.937500,67.40
12:22:27.953125,65.77
12:22:27.968750,53.56
12:22:27.984375,28.70
12:22:28,-7.56
12:22:28.015625,-51.38
12:22:28.031250,-98.33
12:22:28.046875,-145.20
12:22:28.062500,-190.63
12:22:28.078125,-234.41
12:22:28.093750,-276.57
12:22:28.109375,-316.88
12:22:28.125000,-355.02
12:22:28.140625,-390.83
12:22:28.156250,-424.09
12:22:28.171875,-453.56
12:22:28.187500,-476.28
12:22:28.203125,-487.86
12:22:28.218750,-484.16
12:22:28.234375,-463.42
12:22:28.250000,-427.63
12:22:28.265625,-381.99
12:22:28.281250,-332.89
12:22:28.296875,-285.49
12:22:28.312500,-242.18
12:22:28.328125,-202.79
12:22:28.343750,-165.91
12:22:28.359375,-130.31
12:22:28.375000,-95.77
12:22:28.390625,-62.92
12:22:28.406250,-32.51
12:22:28.421875,-4.82
12:22:28.437500,20.52
12:22:28.453125,44.33
12:22:28.468750,67.60
12:22:28.484375,91.18
12:22:28.500000,115.85
12:22:28.515625,142.83
12:22:28.531250,173.70
12:22:28.546875,209.87
12:22:28.562500,251.34
12:22:28.578125,295.49
12:22:28.593750,336.84
12:22:28.609375,368.20
12:22:28.625000,383.10
12:22:28.640625,378.22
12:22:28.656250,354.71
12:22:28.671875,317.49
12:22:28.687500,273.28
12:22:28.703125,228.11
12:22:28.718750,185.92
12:22:28.734375,148.37
12:22:28.750000,115.77
12:22:28.765625,87.98
12:22:28.781250,64.88
12:22:28.796875,46.23
12:22:28.812500,31.53
12:22:28.828125,20.08
12:22:28.843750,11.42
12:22:28.859375,5.67
12:22:28.875000,3.47
12:22:28.890625,5.54
12:22:28.906250,12.25
12:22:28.921875,23.32
12:22:28.937500,37.87
12:22:28.953125,54.57
12:22:28.968750,71.88
12:22:28.984375,88.14
12:22:29,101.92
12:22:29.015625,112.30
12:22:29.031250,119.16
12:22:29.046875,123.10
12:22:29.062500,125.00
12:22:29.078125,125.29
12:22:29.093750,123.52
12:22:29.109375,118.59
12:22:29.125000,109.52
12:22:29.140625,96.30
12:22:29.156250,80.31
12:22:29.171875,63.87
12:22:29.187500,49.16
12:22:29.203125,37.21
12:22:29.218750,27.51
12:22:29.234375,18.48
12:22:29.250000,8.61
12:22:29.265625,-2.49
12:22:29.281250,-13.73
12:22:29.296875,-22.96
12:22:29.312500,-28.04
12:22:29.328125,-27.79
12:22:29.343750,-22.59
12:22:29.359375,-14.17
12:22:29.375000,-4.95
12:22:29.390625,2.95
12:22:29.406250,8.12
12:22:29.421875,10.29
12:22:29.437500,10.19
12:22:29.453125,9.19
12:22:29.468750,8.66
12:22:29.484375,8.83
12:22:29.500000,7.72
12:22:29.515625,0.62
12:22:29.531250,-18.94
12:22:29.546875,-56.51
12:22:29.562500,-113.25
12:22:29.578125,-183.58
12:22:29.593750,-255.60
12:22:29.609375,-314.84
12:22:29.625000,-349.70
12:22:29.640625,-355.93
12:22:29.656250,-337.92
12:22:29.671875,-305.95
12:22:29.687500,-270.87
12:22:29.703125,-239.58
12:22:29.718750,-212.91
12:22:29.734375,-187.10
12:22:29.750000,-157.27
12:22:29.765625,-120.41
12:22:29.781250,-76.35
12:22:29.796875,-26.57
12:22:29.812500,27.54
12:22:29.828125,85.16
12:22:29.843750,144.77
12:22:29.859375,202.26
12:22:29.875000,250.70
12:22:29.890625,282.68
12:22:29.906250,294.06
12:22:29.921875,287.01
12:22:29.937500,269.54
12:22:29.953125,251.42
12:22:29.968750,238.52
12:22:29.984375,229.42
12:22:30,216.68
12:22:30.015625,192.13
12:22:30.031250,152.93
12:22:30.046875,104.47
12:22:30.062500,58.28
12:22:30.078125,26.10
12:22:30.093750,13.77
12:22:30.109375,18.67
12:22:30.125000,31.65
12:22:30.140625,42.15
12:22:30.156250,42.97
12:22:30.171875,32.43
12:22:30.187500,13.68
12:22:30.203125,-8.05
12:22:30.218750,-27.97
12:22:30.234375,-43.08
12:22:30.250000,-52.31
12:22:30.265625,-55.85
12:22:30.281250,-54.80
12:22:30.296875,-50.97
12:22:30.312500,-46.93
12:22:30.328125,-45.80
12:22:30.343750,-50.64
12:22:30.359375,-63.58
12:22:30.375000,-84.83
12:22:30.390625,-112.31
12:22:30.406250,-142.17
12:22:30.421875,-169.89
12:22:30.437500,-191.77
12:22:30.453125,-205.67
12:22:30.468750,-210.96
12:22:30.484375,-207.56
12:22:30.500000,-194.98
12:22:30.515625,-172.19
12:22:30.531250,-138.68
12:22:30.546875,-95.72
12:22:30.562500,-47.23
12:22:30.578125,0.94
12:22:30.593750,42.83
12:22:30.609375,74.42
12:22:30.625000,94.70
12:22:30.640625,105.27
12:22:30.656250,108.84
12:22:30.671875,107.72
12:22:30.687500,103.38
12:22:30.703125,96.81
12:22:30.718750,89.18
12:22:30.734375,82.11
12:22:30.750000,77.09
12:22:30.765625,74.75
12:22:30.781250,74.29
12:22:30.796875,73.92
12:22:30.812500,71.59
12:22:30.828125,66.12
12:22:30.843750,57.59
12:22:30.859375,47.23
12:22:30.875000,36.89
12:22:30.890625,28.27
12:22:30.906250,22.35
12:22:30.921875,19.27
12:22:30.937500,18.37
12:22:30.953125,18.65
12:22:30.968750,19.04
12:22:30.984375,18.60
12:22:31,16.77
12:22:31.015625,13.48
12:22:31.031250,9.27
12:22:31.046875,5.14
12:22:31.062500,2.27
12:22:31.078125,1.52
12:22:31.093750,2.99
12:22:31.109375,5.82
12:22:31.125000,8.55
12:22:31.140625,9.66
12:22:31.156250,8.23
12:22:31.171875,4.27
12:22:31.187500,-1.44
12:22:31.203125,-7.81
12:22:31.218750,-13.90
12:22:31.234375,-19.22
12:22:31.250000,-23.69
12:22:31.265625,-27.34
12:22:31.281250,-30.09
12:22:31.296875,-31.65
12:22:31.312500,-31.72
12:22:31.328125,-30.24
12:22:31.343750,-27.54
12:22:31.359375,-24.28
12:22:31.375000,-21.24
12:22:31.390625,-18.96
12:22:31.406250,-17.63
12:22:31.421875,-17.13
12:22:31.437500,-17.29
12:22:31.453125,-18.06
12:22:31.468750,-19.52
12:22:31.484375,-21.68
12:22:31.500000,-24.21
12:22:31.515625,-26.37
12:22:31.531250,-27.23
12:22:31.546875,-26.06
12:22:31.562500,-22.77
12:22:31.578125,-17.93
12:22:31.593750,-12.58
12:22:31.609375,-7.78
12:22:31.625000,-4.22
12:22:31.640625,-2.01
12:22:31.656250,-0.80
12:22:31.671875,-0.03
12:22:31.687500,0.82
12:22:31.703125,2.03
12:22:31.718750,3.54
12:22:31.734375,5.01
12:22:31.750000,5.94
12:22:31.765625,5.91
12:22:31.781250,4.73
12:22:31.796875,2.59
12:22:31.812500,0.06
12:22:31.828125,-2.06
12:22:31.843750,-3.03
12:22:31.859375,-2.36
12:22:31.875000,-0.05
12:22:31.890625,3.43
12:22:31.906250,7.28
12:22:31.921875,10.64
12:22:31.937500,12.83
12:22:31.953125,13.53
12:22:31.968750,12.81
12:22:31.984375,11.05
12:22:32,8.75
12:22:32.015625,6.44
12:22:32.031250,4.52
12:22:32.046875,3.30
12:22:32.062500,2.98
12:22:32.078125,3.70
12:22:32.093750,5.50
12:22:32.109375,8.31
12:22:32.125000,11.91
12:22:32.140625,16.01
12:22:32.156250,20.25
12:22:32.171875,24.39
12:22:32.187500,28.34
12:22:32.203125,32.19
12:22:32.218750,36.10
12:22:32.234375,40.09
12:22:32.250000,43.92
12:22:32.265625,47.01
12:22:32.281250,48.73
12:22:32.296875,48.66
12:22:32.312500,46.91
12:22:32.328125,44.14
12:22:32.343750,41.29
12:22:32.359375,39.15
12:22:32.375000,37.91
12:22:32.390625,37.06
12:22:32.406250,35.62
12:22:32.421875,32.66
12:22:32.437500,27.67
12:22:32.453125,20.82
12:22:32.468750,12.77
12:22:32.484375,4.37
12:22:32.500000,-3.76
12:22:32.515625,-11.50
12:22:32.531250,-19.14
12:22:32.546875,-27.05
12:22:32.562500,-35.33
12:22:32.578125,-43.42
12:22:32.593750,-50.17
12:22:32.609375,-54.28
12:22:32.625000,-54.87
12:22:32.640625,-52.06
12:22:32.656250,-46.96
12:22:32.671875,-41.28
12:22:32.687500,-36.70
12:22:32.703125,-34.30
12:22:32.718750,-34.50
12:22:32.734375,-37.04
12:22:32.750000,-40.96
12:22:32.765625,-44.31
12:22:32.781250,-43.79
12:22:32.796875,-35.03
12:22:32.812500,-13.92
12:22:32.828125,21.29
12:22:32.843750,68.36
12:22:32.859375,120.89
12:22:32.875000,170.23
12:22:32.890625,208.52
12:22:32.906250,231.27
12:22:32.921875,238.10
12:22:32.937500,231.51
12:22:32.953125,214.59
12:22:32.968750,189.44
12:22:32.984375,156.88
12:22:33,117.65
12:22:33.015625,73.83
12:22:33.031250,29.36
12:22:33.046875,-10.83
12:22:33.062500,-42.63
12:22:33.078125,-64.29
12:22:33.093750,-77.07
12:22:33.109375,-84.53
12:22:33.125000,-91.27
12:22:33.140625,-101.59
12:22:33.156250,-118.64
12:22:33.171875,-143.76
12:22:33.187500,-176.08
12:22:33.203125,-211.89
12:22:33.218750,-244.79
12:22:33.234375,-266.97
12:22:33.250000,-271.61
12:22:33.265625,-255.62
12:22:33.281250,-221.18
12:22:33.296875,-175.15
12:22:33.312500,-126.31
12:22:33.328125,-82.39
12:22:33.343750,-47.40
12:22:33.359375,-20.98
12:22:33.375000,0.19
12:22:33.390625,20.34
12:22:33.406250,42.66
12:22:33.421875,68.39
12:22:33.437500,96.56
12:22:33.453125,124.13
12:22:33.468750,145.54
12:22:33.484375,153.71
12:22:33.500000,142.17
12:22:33.515625,107.97
12:22:33.531250,53.94
12:22:33.546875,-10.96
12:22:33.562500,-73.91
12:22:33.578125,-122.03
12:22:33.593750,-146.39
12:22:33.609375,-145.60
12:22:33.625000,-125.44
12:22:33.640625,-96.09
12:22:33.656250,-68.30
12:22:33.671875,-49.96
12:22:33.687500,-44.37
12:22:33.703125,-50.44
12:22:33.718750,-64.14
12:22:33.734375,-75.15
12:22:33.750000,-74.17
12:22:33.765625,-55.75
12:22:33.781250,-21.01
12:22:33.796875,23.43
12:22:33.812500,69.75
12:22:33.828125,112.71
12:22:33.843750,150.20
12:22:33.859375,181.91
12:22:33.875000,207.66
12:22:33.890625,226.04
12:22:33.906250,235.23
12:22:33.921875,234.86
12:22:33.937500,226.33
12:22:33.953125,212.65
12:22:33.968750,197.77
12:22:33.984375,184.87
12:22:34,175.22
12:22:34.015625,167.79
12:22:34.031250,159.19
12:22:34.046875,145.11
12:22:34.062500,121.80
12:22:34.078125,90.05
12:22:34.093750,51.93
12:22:34.109375,10.10
12:22:34.125000,-33.55
12:22:34.140625,-77.93
12:22:34.156250,-121.56
12:22:34.171875,-161.71
12:22:34.187500,-193.89
12:22:34.203125,-213.35
12:22:34.218750,-217.70
12:22:34.234375,-209.51
12:22:34.250000,-195.97
12:22:34.265625,-186.37
12:22:34.281250,-187.98
12:22:34.296875,-203.00
12:22:34.312500,-228.69
12:22:34.328125,-260.08
12:22:34.343750,-293.51
12:22:34.359375,-328.38
12:22:34.375000,-366.02
12:22:34.390625,-406.12
12:22:34.406250,-444.08
12:22:34.421875,-471.28
12:22:34.437500,-478.43
12:22:34.453125,-460.33
12:22:34.468750,-418.79
12:22:34.484375,-362.06
12:22:34.500000,-301.38
12:22:34.515625,-246.53
12:22:34.531250,-202.49
12:22:34.546875,-169.15
12:22:34.562500,-143.29
12:22:34.578125,-121.44
12:22:34.593750,-101.69
12:22:34.609375,-83.91
12:22:34.625000,-68.62
12:22:34.640625,-55.85
12:22:34.656250,-44.44
12:22:34.671875,-32.39
12:22:34.687500,-17.71
12:22:34.703125,0.82
12:22:34.718750,23.22
12:22:34.734375,48.70
12:22:34.750000,76.74
12:22:34.765625,108.11
12:22:34.781250,144.79
12:22:34.796875,188.96
12:22:34.812500,240.67
12:22:34.828125,295.96
12:22:34.843750,346.53
12:22:34.859375,381.62
12:22:34.875000,391.46
12:22:34.890625,370.71
12:22:34.906250,320.31
12:22:34.921875,247.04
12:22:34.937500,161.44
12:22:34.953125,74.88
12:22:34.968750,-2.74
12:22:34.984375,-64.54
12:22:35,-107.16
12:22:35.015625,-130.81
12:22:35.031250,-138.84
12:22:35.046875,-136.85
12:22:35.062500,-131.35
12:22:35.078125,-128.07
12:22:35.093750,-130.60
12:22:35.109375,-139.69
12:22:35.125000,-153.41
12:22:35.140625,-168.11
12:22:35.156250,-179.47
12:22:35.171875,-183.74
12:22:35.187500,-178.78
12:22:35.203125,-164.66
12:22:35.218750,-143.67
12:22:35.234375,-119.59
12:22:35.250000,-96.60
12:22:35.265625,-77.88
12:22:35.281250,-65.12
12:22:35.296875,-58.31
12:22:35.312500,-56.37
12:22:35.328125,-57.95
12:22:35.343750,-61.91
12:22:35.359375,-67.62
12:22:35.375000,-74.75
12:22:35.390625,-83.04
12:22:35.406250,-91.95
12:22:35.421875,-100.54
12:22:35.437500,-107.46
12:22:35.453125,-111.24
12:22:35.468750,-110.63
12:22:35.484375,-105.01
12:22:35.500000,-94.52
12:22:35.515625,-79.98
12:22:35.531250,-62.50
12:22:35.546875,-42.96
12:22:35.562500,-21.65
12:22:35.578125,1.82
12:22:35.593750,28.21
12:22:35.609375,58.08
12:22:35.625000,91.37
12:22:35.640625,127.17
12:22:35.656250,164.02
12:22:35.671875,200.37
12:22:35.687500,235.18
12:22:35.703125,268.21
12:22:35.718750,300.00
12:22:35.734375,331.68
12:22:35.750000,364.76
12:22:35.765625,400.87
12:22:35.781250,441.21
12:22:35.796875,485.55
12:22:35.812500,531.15
12:22:35.828125,572.12
12:22:35.843750,600.10
12:22:35.859375,606.54
12:22:35.875000,585.69
12:22:35.890625,537.14
12:22:35.906250,466.53
12:22:35.921875,383.87
12:22:35.937500,300.26
12:22:35.953125,224.53
12:22:35.968750,161.25
12:22:35.984375,110.79
12:22:36,70.93
12:22:36.015625,38.80
12:22:36.031250,12.13
12:22:36.046875,-10.51
12:22:36.062500,-30.25
12:22:36.078125,-48.32
12:22:36.093750,-65.86
12:22:36.109375,-83.18
12:22:36.125000,-99.03
12:22:36.140625,-110.53
12:22:36.156250,-114.22
12:22:36.171875,-107.77
12:22:36.187500,-91.59
12:22:36.203125,-69.21
12:22:36.218750,-46.14
12:22:36.234375,-27.60
12:22:36.250000,-16.27
12:22:36.265625,-11.49
12:22:36.281250,-10.03
12:22:36.296875,-8.18
12:22:36.312500,-3.87
12:22:36.328125,2.53
12:22:36.343750,8.66
12:22:36.359375,11.84
12:22:36.375000,10.54
12:22:36.390625,5.03
12:22:36.406250,-3.04
12:22:36.421875,-11.60
12:22:36.437500,-19.09
12:22:36.453125,-24.79
12:22:36.468750,-28.79
12:22:36.484375,-31.58
12:22:36.500000,-33.77
12:22:36.515625,-35.86
12:22:36.531250,-38.25
12:22:36.546875,-41.10
12:22:36.562500,-44.13
12:22:36.578125,-46.58
12:22:36.593750,-47.31
12:22:36.609375,-45.01
12:22:36.625000,-38.76
12:22:36.640625,-28.42
12:22:36.656250,-14.82
12:22:36.671875,0.30
12:22:36.687500,14.70
12:22:36.703125,26.18
12:22:36.718750,33.06
12:22:36.734375,34.53
12:22:36.750000,30.71
12:22:36.765625,22.53
12:22:36.781250,11.40
12:22:36.796875,-1.09
12:22:36.812500,-13.46
12:22:36.828125,-24.51
12:22:36.843750,-33.42
12:22:36.859375,-39.87
12:22:36.875000,-43.96
12:22:36.890625,-46.17
12:22:36.906250,-47.23
12:22:36.921875,-47.81
12:22:36.937500,-48.32
12:22:36.953125,-48.80
12:22:36.968750,-48.90
12:22:36.984375,-48.18
12:22:37,-46.25
12:22:37.015625,-43.06
12:22:37.031250,-38.78
12:22:37.046875,-33.77
12:22:37.062500,-28.35
12:22:37.078125,-22.79
12:22:37.093750,-17.24
12:22:37.109375,-11.87
12:22:37.125000,-6.93
12:22:37.140625,-2.72
12:22:37.156250,0.51
12:22:37.171875,2.65
12:22:37.187500,3.70
12:22:37.203125,3.82
12:22:37.218750,3.16
12:22:37.234375,1.85
12:22:37.250000,-0.01
12:22:37.265625,-2.35
12:22:37.281250,-5.06
12:22:37.296875,-8.02
12:22:37.312500,-11.16
12:22:37.328125,-14.48
12:22:37.343750,-18.08
12:22:37.359375,-22.10
12:22:37.375000,-26.65
12:22:37.390625,-31.70
12:22:37.406250,-37.15
12:22:37.421875,-42.76
12:22:37.437500,-48.36
12:22:37.453125,-53.79
12:22:37.468750,-58.97
12:22:37.484375,-63.74
12:22:37.500000,-67.94
12:22:37.515625,-71.39
12:22:37.531250,-74.15
12:22:37.546875,-76.68
12:22:37.562500,-79.69
12:22:37.578125,-83.66
12:22:37.593750,-88.16
12:22:37.609375,-91.63
12:22:37.625000,-91.57
12:22:37.640625,-85.50
12:22:37.656250,-71.83
12:22:37.671875,-50.44
12:22:37.687500,-22.59
12:22:37.703125,9.69
12:22:37.718750,44.33
12:22:37.734375,79.65
12:22:37.750000,114.32
12:22:37.765625,147.22
12:22:37.781250,177.35
12:22:37.796875,204.00
12:22:37.812500,226.99
12:22:37.828125,246.64
12:22:37.843750,263.43
12:22:37.859375,277.41
12:22:37.875000,287.91
12:22:37.890625,293.75
12:22:37.906250,293.90
12:22:37.921875,288.18
12:22:37.937500,277.52
12:22:37.953125,263.62
12:22:37.968750,248.35
12:22:37.984375,233.07
12:22:38,218.38
12:22:38.015625,204.21
12:22:38.031250,190.25
12:22:38.046875,176.32
12:22:38.062500,162.50
12:22:38.078125,149.04
12:22:38.093750,136.29
12:22:38.109375,124.62
12:22:38.125000,114.44
12:22:38.140625,106.12
12:22:38.156250,99.77
12:22:38.171875,95.01
12:22:38.187500,90.85
12:22:38.203125,85.94
12:22:38.218750,79.07
12:22:38.234375,69.75
12:22:38.250000,58.55
12:22:38.265625,47.00
12:22:38.281250,36.97
12:22:38.296875,30.07
12:22:38.312500,26.93
12:22:38.328125,26.99
12:22:38.343750,28.65
12:22:38.359375,29.72
12:22:38.375000,27.97
12:22:38.390625,21.78
12:22:38.406250,10.39
12:22:38.421875,-5.86
12:22:38.437500,-25.80
12:22:38.453125,-47.85
12:22:38.468750,-70.52
12:22:38.484375,-92.85
12:22:38.500000,-114.59
12:22:38.515625,-136.15
12:22:38.531250,-158.58
12:22:38.546875,-183.27
12:22:38.562500,-211.72
12:22:38.578125,-244.83
12:22:38.593750,-282.17
12:22:38.609375,-321.29
12:22:38.625000,-357.77
12:22:38.640625,-386.21
12:22:38.656250,-401.88
12:22:38.671875,-402.57
12:22:38.687500,-389.49
12:22:38.703125,-366.84
12:22:38.718750,-340.13
12:22:38.734375,-314.07
12:22:38.750000,-291.18
12:22:38.765625,-271.57
12:22:38.781250,-253.94
12:22:38.796875,-236.91
12:22:38.812500,-219.93
12:22:38.828125,-203.38
12:22:38.843750,-187.95
12:22:38.859375,-174.08
12:22:38.875000,-161.66
12:22:38.890625,-150.28
12:22:38.906250,-139.76
12:22:38.921875,-130.39
12:22:38.937500,-122.88
12:22:38.953125,-117.84
12:22:38.968750,-115.33
12:22:38.984375,-114.55
12:22:39,-114.10
12:22:39.015625,-112.50
12:22:39.031250,-108.78
12:22:39.046875,-102.93
12:22:39.062500,-95.75
12:22:39.078125,-88.35
12:22:39.093750,-81.39
12:22:39.109375,-74.60
12:22:39.125000,-66.71
12:22:39.140625,-56.06
12:22:39.156250,-41.32
12:22:39.171875,-22.15
12:22:39.187500,0.74
12:22:39.203125,25.84
12:22:39.218750,51.46
12:22:39.234375,76.02
12:22:39.250000,98.23
12:22:39.265625,116.98
12:22:39.281250,131.46
12:22:39.296875,141.35
12:22:39.312500,147.16
12:22:39.328125,150.23
12:22:39.343750,152.38
12:22:39.359375,155.18
12:22:39.375000,159.31
12:22:39.390625,164.42
12:22:39.406250,169.44
12:22:39.421875,173.39
12:22:39.437500,176.04
12:22:39.453125,178.02
12:22:39.468750,180.52
12:22:39.484375,184.51
12:22:39.500000,190.06
12:22:39.515625,196.18
12:22:39.531250,201.10
12:22:39.546875,203.05
12:22:39.562500,200.94
12:22:39.578125,194.79
12:22:39.593750,185.40
12:22:39.609375,173.71
12:22:39.625000,160.03
12:22:39.640625,143.51
12:22:39.656250,122.34
12:22:39.671875,94.39
12:22:39.687500,58.17
12:22:39.703125,13.53
12:22:39.718750,-37.84
12:22:39.734375,-92.56
12:22:39.750000,-146.08
12:22:39.765625,-193.18
12:22:39.781250,-228.80
12:22:39.796875,-248.71
12:22:39.812500,-250.43
12:22:39.828125,-234.29
12:22:39.843750,-204.25
12:22:39.859375,-167.96
12:22:39.875000,-135.06
12:22:39.890625,-114.06
12:22:39.906250,-108.78
12:22:39.921875,-116.14
12:22:39.937500,-126.88
12:22:39.953125,-129.08
12:22:39.968750,-113.00
12:22:39.984375,-74.79
12:22:40,-17.16
12:22:40.015625,53.04
12:22:40.031250,128.53
12:22:40.046875,204.29
12:22:40.062500,277.63
12:22:40.078125,346.28
12:22:40.093750,406.06
12:22:40.109375,450.40
12:22:40.125000,472.27
12:22:40.140625,467.39
12:22:40.156250,436.69
12:22:40.171875,386.62
12:22:40.187500,326.86
12:22:40.203125,266.64
12:22:40.218750,212.00
12:22:40.234375,164.47
12:22:40.250000,121.90
12:22:40.265625,80.64
12:22:40.281250,37.46
12:22:40.296875,-9.62
12:22:40.312500,-61.52
12:22:40.328125,-118.51
12:22:40.343750,-180.03
12:22:40.359375,-243.64
12:22:40.375000,-304.03
12:22:40.390625,-353.03
12:22:40.406250,-381.55
12:22:40.421875,-382.82
12:22:40.437500,-355.53
12:22:40.453125,-305.07
12:22:40.468750,-242.17
12:22:40.484375,-179.42
12:22:40.500000,-127.43
12:22:40.515625,-92.30
12:22:40.531250,-75.10
12:22:40.546875,-73.11
12:22:40.562500,-81.66
12:22:40.578125,-95.62
12:22:40.593750,-110.25
12:22:40.609375,-121.54
12:22:40.625000,-126.56
12:22:40.640625,-123.87
12:22:40.656250,-113.90
12:22:40.671875,-98.89
12:22:40.687500,-82.27
12:22:40.703125,-67.93
12:22:40.718750,-58.92
12:22:40.734375,-56.50
12:22:40.750000,-59.50
12:22:40.765625,-64.39
12:22:40.781250,-66.17
12:22:40.796875,-60.02
12:22:40.812500,-43.15
12:22:40.828125,-15.87
12:22:40.843750,18.45
12:22:40.859375,54.76
12:22:40.875000,88.21
12:22:40.890625,115.66
12:22:40.906250,136.09
12:22:40.921875,149.88
12:22:40.937500,157.55
12:22:40.953125,158.86
12:22:40.968750,152.85
12:22:40.984375,138.67
12:22:41,116.68
12:22:41.015625,89.03
12:22:41.031250,59.41
12:22:41.046875,32.06
12:22:41.062500,10.57
12:22:41.078125,-3.17
12:22:41.093750,-9.28
12:22:41.109375,-9.74
12:22:41.125000,-7.61
12:22:41.140625,-5.96
12:22:41.156250,-7.09
12:22:41.171875,-11.82
12:22:41.187500,-19.56
12:22:41.203125,-28.72
12:22:41.218750,-37.59
12:22:41.234375,-45.02
12:22:41.250000,-50.69
12:22:41.265625,-54.91
12:22:41.281250,-58.10
12:22:41.296875,-60.39
12:22:41.312500,-61.53
12:22:41.328125,-61.23
12:22:41.343750,-59.56
12:22:41.359375,-57.08
12:22:41.375000,-54.53
12:22:41.390625,-52.34
12:22:41.406250,-50.27
12:22:41.421875,-47.47
12:22:41.437500,-43.08
12:22:41.453125,-36.94
12:22:41.468750,-29.82
12:22:41.484375,-23.14
12:22:41.500000,-18.27
12:22:41.515625,-15.74
12:22:41.531250,-14.97
12:22:41.546875,-14.52
12:22:41.562500,-12.63
12:22:41.578125,-7.89
12:22:41.593750,0.51
12:22:41.609375,12.60
12:22:41.625000,27.72
12:22:41.640625,44.51
12:22:41.656250,61.02
12:22:41.671875,75.10
12:22:41.687500,84.97
12:22:41.703125,89.89
12:22:41.718750,90.49
12:22:41.734375,88.43
12:22:41.750000,85.63
12:22:41.765625,83.28
12:22:41.781250,81.50
12:22:41.796875,79.56
12:22:41.812500,76.61
12:22:41.828125,72.33
12:22:41.843750,67.12
12:22:41.859375,61.71
12:22:41.875000,56.63
12:22:41.890625,51.85
12:22:41.906250,46.94
12:22:41.921875,41.47
12:22:41.937500,35.40
12:22:41.953125,29.14
12:22:41.968750,23.22
12:22:41.984375,17.95
12:22:42,13.13
12:22:42.015625,8.03
12:22:42.031250,1.71
12:22:42.046875,-6.67
12:22:42.062500,-17.49
12:22:42.078125,-30.54
12:22:42.093750,-44.99
12:22:42.109375,-59.70
12:22:42.125000,-73.53
12:22:42.140625,-85.68
12:22:42.156250,-95.74
12:22:42.171875,-103.77
12:22:42.187500,-110.14
12:22:42.203125,-115.47
12:22:42.218750,-120.57
12:22:42.234375,-126.22
12:22:42.250000,-132.66
12:22:42.265625,-139.05
12:22:42.281250,-143.22
12:22:42.296875,-142.09
12:22:42.312500,-132.82
12:22:42.328125,-114.26
12:22:42.343750,-87.83
12:22:42.359375,-57.26
12:22:42.375000,-27.19
12:22:42.390625,-1.43
12:22:42.406250,18.34
12:22:42.421875,32.58
12:22:42.437500,42.97
12:22:42.453125,51.02
12:22:42.468750,57.17
12:22:42.484375,60.87
12:22:42.500000,61.31
12:22:42.515625,58.35
12:22:42.531250,52.91
12:22:42.546875,46.68
12:22:42.562500,41.46
12:22:42.578125,38.56
12:22:42.593750,38.56
12:22:42.609375,41.54
12:22:42.625000,47.32
12:22:42.640625,55.56
12:22:42.656250,65.71
12:22:42.671875,76.72
12:22:42.687500,87.19
12:22:42.703125,95.59
12:22:42.718750,100.78
12:22:42.734375,102.34
12:22:42.750000,100.52
12:22:42.765625,96.03
12:22:42.781250,89.51
12:22:42.796875,81.35
12:22:42.812500,71.66
12:22:42.828125,60.50
12:22:42.843750,48.13
12:22:42.859375,35.04
12:22:42.875000,21.85
12:22:42.890625,9.12
12:22:42.906250,-2.77
12:22:42.921875,-13.62
12:22:42.937500,-23.18
12:22:42.953125,-31.14
12:22:42.968750,-36.98
12:22:42.984375,-40.16
12:22:43,-40.32
12:22:43.015625,-37.49
12:22:43.031250,-32.14
12:22:43.046875,-25.11
12:22:43.062500,-17.43
12:22:43.078125,-10.09
12:22:43.093750,-3.91
12:22:43.109375,0.53
12:22:43.125000,2.92
12:22:43.140625,3.28
12:22:43.156250,2.00
12:22:43.171875,-0.18
12:22:43.187500,-2.33
12:22:43.203125,-3.55
12:22:43.218750,-3.25
12:22:43.234375,-1.35
12:22:43.250000,1.78
12:22:43.265625,5.43
12:22:43.281250,8.94
12:22:43.296875,11.80
12:22:43.312500,13.76
12:22:43.328125,14.78
12:22:43.343750,14.91
12:22:43.359375,14.15
12:22:43.375000,12.45
12:22:43.390625,9.72
12:22:43.406250,5.86
12:22:43.421875,0.85
12:22:43.437500,-5.15
12:22:43.453125,-11.81
12:22:43.468750,-18.58
12:22:43.484375,-24.81
12:22:43.500000,-29.87
12:22:43.515625,-33.38
12:22:43.531250,-35.34
12:22:43.546875,-36.12
12:22:43.562500,-36.25
12:22:43.578125,-36.16
12:22:43.593750,-35.93
12:22:43.609375,-35.40
12:22:43.625000,-34.26
12:22:43.640625,-32.45
12:22:43.656250,-30.23
12:22:43.671875,-28.17
12:22:43.687500,-26.89
12:22:43.703125,-26.80
12:22:43.718750,-27.95
12:22:43.734375,-29.94
12:22:43.750000,-32.03
12:22:43.765625,-33.30
12:22:43.781250,-32.84
12:22:43.796875,-30.12
12:22:43.812500,-25.17
12:22:43.828125,-18.72
12:22:43.843750,-11.95
12:22:43.859375,-5.96
12:22:43.875000,-1.25
12:22:43.890625,2.48
12:22:43.906250,6.11
12:22:43.921875,10.49
12:22:43.937500,15.89
12:22:43.953125,21.85
12:22:43.968750,27.51
12:22:43.984375,32.04
12:22:44,34.95
12:22:44.015625,35.98
12:22:44.031250,34.85
12:22:44.046875,30.96
12:22:44.062500,23.63
12:22:44.078125,12.53
12:22:44.093750,-1.78
12:22:44.109375,-17.54
12:22:44.125000,-32.01
12:22:44.140625,-42.10
12:22:44.156250,-45.00
12:22:44.171875,-38.94
12:22:44.187500,-23.51
12:22:44.203125,0.18
12:22:44.218750,29.59
12:22:44.234375,61.12
12:22:44.250000,90.74
12:22:44.265625,114.86
12:22:44.281250,131.04
12:22:44.296875,138.52
12:22:44.312500,138.15
12:22:44.328125,131.90
12:22:44.343750,122.02
12:22:44.359375,110.23
12:22:44.375000,97.36
12:22:44.390625,83.36
12:22:44.406250,67.85
12:22:44.421875,50.63
12:22:44.437500,32.13
12:22:44.453125,13.34
12:22:44.468750,-4.54
12:22:44.484375,-20.58
12:22:44.500000,-34.52
12:22:44.515625,-46.81
12:22:44.531250,-58.27
12:22:44.546875,-69.68
12:22:44.562500,-81.44
12:22:44.578125,-93.23
12:22:44.593750,-104.11
12:22:44.609375,-112.66
12:22:44.625000,-117.55
12:22:44.640625,-118.02
12:22:44.656250,-114.37
12:22:44.671875,-108.20
12:22:44.687500,-102.18
12:22:44.703125,-99.20
12:22:44.718750,-101.31
12:22:44.734375,-108.72
12:22:44.750000,-119.45
12:22:44.765625,-130.00
12:22:44.781250,-136.45
12:22:44.796875,-135.93
12:22:44.812500,-127.56
12:22:44.828125,-112.65
12:22:44.843750,-94.29
12:22:44.859375,-76.28
12:22:44.875000,-61.93
12:22:44.890625,-52.90
12:22:44.906250,-48.51
12:22:44.921875,-45.80
12:22:44.937500,-40.46
12:22:44.953125,-28.34
12:22:44.968750,-7.10
12:22:44.984375,22.69
12:22:45,57.51
12:22:45.015625,91.87
12:22:45.031250,119.96
12:22:45.046875,137.29
12:22:45.062500,141.77
12:22:45.078125,134.03
12:22:45.093750,117.25
12:22:45.109375,96.56
12:22:45.125000,78.02
12:22:45.140625,67.15
12:22:45.156250,67.32
12:22:45.171875,78.80
12:22:45.187500,98.82
12:22:45.203125,122.90
12:22:45.218750,146.76
12:22:45.234375,167.95
12:22:45.250000,186.31
12:22:45.265625,203.16
12:22:45.281250,219.92
12:22:45.296875,236.88
12:22:45.312500,252.93
12:22:45.328125,266.30
12:22:45.343750,275.49
12:22:45.359375,279.92
12:22:45.375000,279.87
12:22:45.390625,275.82
12:22:45.406250,267.72
12:22:45.421875,254.77
12:22:45.437500,235.80
12:22:45.453125,210.25
12:22:45.468750,178.94
12:22:45.484375,144.21
12:22:45.500000,109.15
12:22:45.515625,76.12
12:22:45.531250,45.55
12:22:45.546875,15.91
12:22:45.562500,-14.93
12:22:45.578125,-47.60
12:22:45.593750,-79.60
12:22:45.609375,-105.45
12:22:45.625000,-118.70
12:22:45.640625,-114.96
12:22:45.656250,-94.19
12:22:45.671875,-60.99
12:22:45.687500,-22.80
12:22:45.703125,13.05
12:22:45.718750,41.60
12:22:45.734375,61.03
12:22:45.750000,71.77
12:22:45.765625,74.95
12:22:45.781250,71.33
12:22:45.796875,61.25
12:22:45.812500,45.16
12:22:45.828125,24.26
12:22:45.843750,0.56
12:22:45.859375,-23.69
12:22:45.875000,-46.77
12:22:45.890625,-67.99
12:22:45.906250,-87.61
12:22:45.921875,-106.35
12:22:45.937500,-124.79
12:22:45.953125,-143.03
12:22:45.968750,-160.68
12:22:45.984375,-177.02
12:22:46,-191.26
12:22:46.015625,-202.74
12:22:46.031250,-210.92
12:22:46.046875,-215.49
12:22:46.062500,-216.52
12:22:46.078125,-214.53
12:22:46.093750,-210.58
12:22:46.109375,-206.09
12:22:46.125000,-202.48
12:22:46.140625,-200.70
12:22:46.156250,-200.88
12:22:46.171875,-202.17
12:22:46.187500,-202.91
12:22:46.203125,-201.21
12:22:46.218750,-195.62
12:22:46.234375,-185.69
12:22:46.250000,-172.09
12:22:46.265625,-156.36
12:22:46.281250,-140.25
12:22:46.296875,-125.07
12:22:46.312500,-111.35
12:22:46.328125,-98.90
12:22:46.343750,-87.21
12:22:46.359375,-75.95
12:22:46.375000,-65.27
12:22:46.390625,-55.66
12:22:46.406250,-47.68
12:22:46.421875,-41.47
12:22:46.437500,-36.61
12:22:46.453125,-32.25
12:22:46.468750,-27.55
12:22:46.484375,-22.02
12:22:46.500000,-15.71
12:22:46.515625,-9.02
12:22:46.531250,-2.35
12:22:46.546875,4.18
12:22:46.562500,10.65
12:22:46.578125,17.18
12:22:46.593750,23.59
12:22:46.609375,29.37
12:22:46.625000,33.87
12:22:46.640625,36.67
12:22:46.656250,37.84
12:22:46.671875,37.89
12:22:46.687500,37.47
12:22:46.703125,37.07
12:22:46.718750,36.76
12:22:46.734375,36.39
12:22:46.750000,35.70
12:22:46.765625,34.60
12:22:46.781250,33.16
12:22:46.796875,31.57
12:22:46.812500,30.04
12:22:46.828125,28.72
12:22:46.843750,27.73
12:22:46.859375,27.04
12:22:46.875000,26.62
12:22:46.890625,26.27
12:22:46.906250,25.74
12:22:46.921875,24.73
12:22:46.937500,22.94
12:22:46.953125,20.17
12:22:46.968750,16.29
12:22:46.984375,11.36
12:22:47,5.68
12:22:47.015625,-0.21
12:22:47.031250,-5.57
12:22:47.046875,-9.65
12:22:47.062500,-11.97
12:22:47.078125,-12.47
12:22:47.093750,-11.61
12:22:47.109375,-10.10
12:22:47.125000,-8.71
12:22:47.140625,-7.92
12:22:47.156250,-7.74
12:22:47.171875,-7.85
12:22:47.187500,-7.65
12:22:47.203125,-6.61
12:22:47.218750,-4.37
12:22:47.234375,-0.88
12:22:47.250000,3.59
12:22:47.265625,8.56
12:22:47.281250,13.43
12:22:47.296875,17.60
12:22:47.312500,20.70
12:22:47.328125,22.62
12:22:47.343750,23.53
12:22:47.359375,23.85
12:22:47.375000,24.08
12:22:47.390625,24.68
12:22:47.406250,25.93
12:22:47.421875,27.89
12:22:47.437500,30.41
12:22:47.453125,33.17
12:22:47.468750,35.79
12:22:47.484375,37.90
12:22:47.500000,39.26
12:22:47.515625,39.81
12:22:47.531250,39.76
12:22:47.546875,39.52
12:22:47.562500,39.60
12:22:47.578125,40.46
12:22:47.593750,42.27
12:22:47.609375,44.84
12:22:47.625000,47.65
12:22:47.640625,50.01
12:22:47.656250,51.37
12:22:47.671875,51.50
12:22:47.687500,50.70
12:22:47.703125,49.60
12:22:47.718750,49.05
12:22:47.734375,49.73
12:22:47.750000,51.98
12:22:47.765625,55.74
12:22:47.781250,60.65
12:22:47.796875,66.26
12:22:47.812500,72.08
12:22:47.828125,77.62
12:22:47.843750,82.33
12:22:47.859375,85.67
12:22:47.875000,87.23
12:22:47.890625,86.95
12:22:47.906250,85.26
12:22:47.921875,83.06
12:22:47.937500,81.33
12:22:47.953125,80.77
12:22:47.968750,81.37
12:22:47.984375,82.30
12:22:48,82.00
12:22:48.015625,78.57
12:22:48.031250,70.16
12:22:48.046875,55.35
12:22:48.062500,33.55
12:22:48.078125,5.20
12:22:48.093750,-28.05
12:22:48.109375,-63.47
12:22:48.125000,-97.72
12:22:48.140625,-127.58
12:22:48.156250,-150.76
12:22:48.171875,-166.44
12:22:48.187500,-175.37
12:22:48.203125,-179.41
12:22:48.218750,-180.82
12:22:48.234375,-181.52
12:22:48.250000,-182.61
12:22:48.265625,-184.32
12:22:48.281250,-186.13
12:22:48.296875,-187.14
12:22:48.312500,-186.32
12:22:48.328125,-182.85
12:22:48.343750,-176.19
12:22:48.359375,-166.22
12:22:48.375000,-153.29
12:22:48.390625,-138.01
12:22:48.406250,-121.18
12:22:48.421875,-103.54
12:22:48.437500,-85.67
12:22:48.453125,-67.96
12:22:48.468750,-50.65
12:22:48.484375,-33.86
12:22:48.500000,-17.71
12:22:48.515625,-2.33
12:22:48.531250,12.00
12:22:48.546875,24.80
12:22:48.562500,35.44
12:22:48.578125,43.35
12:22:48.593750,48.20
12:22:48.609375,50.16
12:22:48.625000,49.93
12:22:48.640625,48.54
12:22:48.656250,47.00
12:22:48.671875,45.99
12:22:48.687500,45.72
12:22:48.703125,45.93
12:22:48.718750,46.18
12:22:48.734375,46.02
12:22:48.750000,45.14
12:22:48.765625,43.46
12:22:48.781250,40.95
12:22:48.796875,37.60
12:22:48.812500,33.40
12:22:48.828125,28.38
12:22:48.843750,22.72
12:22:48.859375,16.83
12:22:48.875000,11.30
12:22:48.890625,6.76
12:22:48.906250,3.63
12:22:48.921875,1.96
12:22:48.937500,1.35
12:22:48.953125,1.13
12:22:48.968750,0.62
12:22:48.984375,-0.58
12:22:49,-2.56
12:22:49.015625,-5.10
12:22:49.031250,-7.97
12:22:49.046875,-11.05
12:22:49.062500,-14.29
12:22:49.078125,-17.59
12:22:49.093750,-20.58
12:22:49.109375,-22.59
12:22:49.125000,-22.91
12:22:49.140625,-21.06
12:22:49.156250,-17.18
12:22:49.171875,-11.95
12:22:49.187500,-6.44
12:22:49.203125,-1.54
12:22:49.218750,2.26
12:22:49.234375,4.97
12:22:49.250000,6.90
12:22:49.265625,8.40
12:22:49.281250,9.65
12:22:49.296875,10.69
12:22:49.312500,11.55
12:22:49.328125,12.34
12:22:49.343750,13.27
12:22:49.359375,14.51
12:22:49.375000,16.09
12:22:49.390625,17.83
12:22:49.406250,19.45
12:22:49.421875,20.72
12:22:49.437500,21.57
12:22:49.453125,22.16
12:22:49.468750,22.72
12:22:49.484375,23.50
12:22:49.500000,24.63
12:22:49.515625,26.07
12:22:49.531250,27.71
12:22:49.546875,29.40
12:22:49.562500,30.91
12:22:49.578125,32.03
12:22:49.593750,32.54
12:22:49.609375,32.31
12:22:49.625000,31.35
12:22:49.640625,29.83
12:22:49.656250,27.99
12:22:49.671875,25.98
12:22:49.687500,23.74
12:22:49.703125,21.06
12:22:49.718750,17.72
12:22:49.734375,13.67
12:22:49.750000,9.11
12:22:49.765625,4.22
12:22:49.781250,-0.99
12:22:49.796875,-6.96
12:22:49.812500,-14.39
12:22:49.828125,-24.00
12:22:49.843750,-36.05
12:22:49.859375,-50.22
12:22:49.875000,-65.57
12:22:49.890625,-80.94
12:22:49.906250,-95.21
12:22:49.921875,-107.57
12:22:49.937500,-117.49
12:22:49.953125,-124.63
12:22:49.968750,-128.85
12:22:49.984375,-130.07
12:22:50,-128.23
12:22:50.015625,-123.09
12:22:50.031250,-114.05
12:22:50.046875,-100.12
12:22:50.062500,-80.13
12:22:50.078125,-53.23
12:22:50.093750,-19.46
12:22:50.109375,19.88
12:22:50.125000,62.30
12:22:50.140625,104.56
12:22:50.156250,143.33
12:22:50.171875,175.73
12:22:50.187500,199.82
12:22:50.203125,214.79
12:22:50.218750,221.02
12:22:50.234375,219.86
12:22:50.250000,213.30
12:22:50.265625,203.31
12:22:50.281250,191.27
12:22:50.296875,177.62
12:22:50.312500,161.99
12:22:50.328125,143.79
12:22:50.343750,122.87
12:22:50.359375,99.85
12:22:50.375000,75.92
12:22:50.390625,52.28
12:22:50.406250,29.52
12:22:50.421875,7.50
12:22:50.437500,-14.32
12:22:50.453125,-36.20
12:22:50.468750,-57.64
12:22:50.484375,-77.44
12:22:50.500000,-94.20
12:22:50.515625,-106.98
12:22:50.531250,-115.69
12:22:50.546875,-121.10
12:22:50.562500,-124.33
12:22:50.578125,-126.33
12:22:50.593750,-127.64
12:22:50.609375,-128.39
12:22:50.625000,-128.56
12:22:50.640625,-128.27
12:22:50.656250,-127.75
12:22:50.671875,-127.12
12:22:50.687500,-125.93
12:22:50.703125,-122.94
12:22:50.718750,-116.19
12:22:50.734375,-103.55
12:22:50.750000,-83.43
12:22:50.765625,-55.42
12:22:50.781250,-20.54
12:22:50.796875,19.09
12:22:50.812500,60.99
12:22:50.828125,103.14
12:22:50.843750,144.83
12:22:50.859375,186.82
12:22:50.875000,230.73
12:22:50.890625,277.70
12:22:50.906250,326.81
12:22:50.921875,374.24
12:22:50.937500,413.81
12:22:50.953125,438.69
12:22:50.968750,443.93
12:22:50.984375,428.32
12:22:51,394.83
12:22:51.015625,349.35
12:22:51.031250,298.61
12:22:51.046875,248.29
12:22:51.062500,202.20
12:22:51.078125,162.59
12:22:51.093750,130.84
12:22:51.109375,107.89
12:22:51.125000,94.00
12:22:51.140625,88.11
12:22:51.156250,87.61
12:22:51.171875,88.84
12:22:51.187500,88.00
12:22:51.203125,82.25
12:22:51.218750,70.17
12:22:51.234375,51.84
12:22:51.250000,28.24
12:22:51.265625,0.60
12:22:51.281250,-30.17
12:22:51.296875,-63.98
12:22:51.312500,-101.29
12:22:51.328125,-142.10
12:22:51.343750,-184.36
12:22:51.359375,-222.96
12:22:51.375000,-250.44
12:22:51.390625,-259.81
12:22:51.406250,-248.09
12:22:51.421875,-218.90
12:22:51.437500,-181.88
12:22:51.453125,-149.16
12:22:51.468750,-130.46
12:22:51.484375,-129.60
12:22:51.500000,-144.36
12:22:51.515625,-169.32
12:22:51.531250,-199.45
12:22:51.546875,-232.18
12:22:51.562500,-266.54
12:22:51.578125,-300.64
12:22:51.593750,-329.60
12:22:51.609375,-345.94
12:22:51.625000,-342.14
12:22:51.640625,-314.25
12:22:51.656250,-264.00
12:22:51.671875,-198.65
12:22:51.687500,-128.64
12:22:51.703125,-64.48
12:22:51.718750,-14.07
12:22:51.734375,18.86
12:22:51.750000,34.48
12:22:51.765625,35.61
12:22:51.781250,26.22
12:22:51.796875,10.28
12:22:51.812500,-8.37
12:22:51.828125,-25.59
12:22:51.843750,-36.96
12:22:51.859375,-38.70
12:22:51.875000,-29.39
12:22:51.890625,-11.56
12:22:51.906250,8.72
12:22:51.921875,23.89
12:22:51.937500,27.94
12:22:51.953125,18.69
12:22:51.968750,-2.22
12:22:51.984375,-30.97
12:22:52,-63.67
12:22:52.015625,-97.35
12:22:52.031250,-129.19
12:22:52.046875,-155.31
12:22:52.062500,-170.46
12:22:52.078125,-169.62
12:22:52.093750,-150.19
12:22:52.109375,-113.59
12:22:52.125000,-64.79
12:22:52.140625,-10.07
12:22:52.156250,45.31
12:22:52.171875,98.14
12:22:52.187500,146.56
12:22:52.203125,188.35
12:22:52.218750,219.98
12:22:52.234375,237.98
12:22:52.250000,241.16
12:22:52.265625,232.14
12:22:52.281250,216.91
12:22:52.296875,202.08
12:22:52.312500,191.50
12:22:52.328125,184.83
12:22:52.343750,178.06
12:22:52.359375,165.90
12:22:52.375000,145.63
12:22:52.390625,118.63
12:22:52.406250,89.48
12:22:52.421875,63.54
12:22:52.437500,44.36
12:22:52.453125,32.82
12:22:52.468750,27.99
12:22:52.484375,27.67
12:22:52.500000,28.00
12:22:52.515625,24.17
12:22:52.531250,10.62
12:22:52.546875,-17.32
12:22:52.562500,-60.83
12:22:52.578125,-115.73
12:22:52.593750,-172.28
12:22:52.609375,-217.18
12:22:52.625000,-239.51
12:22:52.640625,-235.98
12:22:52.656250,-211.55
12:22:52.671875,-177.52
12:22:52.687500,-146.57
12:22:52.703125,-127.75
12:22:52.718750,-124.19
12:22:52.734375,-133.19
12:22:52.750000,-148.16
12:22:52.765625,-154.10
12:22:52.781250,-139.77
12:22:52.796875,-100.20
12:22:52.812500,-39.31
12:22:52.828125,32.57
12:22:52.843750,104.85
12:22:52.859375,170.75
12:22:52.875000,223.75
12:22:52.890625,266.41
12:22:52.906250,300.22
12:22:52.921875,323.39
12:22:52.937500,333.58
12:22:52.953125,329.84
12:22:52.968750,313.80
12:22:52.984375,291.16
12:22:53,267.35
12:22:53.015625,246.27
12:22:53.031250,230.04
12:22:53.046875,217.38
12:22:53.062500,204.37
12:22:53.078125,187.01
12:22:53.093750,162.85
12:22:53.109375,132.14
12:22:53.125000,97.86
12:22:53.140625,63.34
12:22:53.156250,31.69
12:22:53.171875,5.26
12:22:53.187500,-16.03
12:22:53.203125,-34.50
12:22:53.218750,-53.31
12:22:53.234375,-75.13
12:22:53.250000,-100.80
12:22:53.265625,-128.79
12:22:53.281250,-157.45
12:22:53.296875,-184.49
12:22:53.312500,-207.29
12:22:53.328125,-224.62
12:22:53.343750,-237.13
12:22:53.359375,-246.89
12:22:53.375000,-256.75
12:22:53.390625,-269.36
12:22:53.406250,-286.55
12:22:53.421875,-311.53
12:22:53.437500,-345.07
12:22:53.453125,-383.56
12:22:53.468750,-419.08
12:22:53.484375,-441.46
12:22:53.500000,-442.26
12:22:53.515625,-418.84
12:22:53.531250,-376.15
12:22:53.546875,-325.28
12:22:53.562500,-282.46
12:22:53.578125,-260.05
12:22:53.593750,-261.68
12:22:53.609375,-282.27
12:22:53.625000,-311.94
12:22:53.640625,-341.31
12:22:53.656250,-365.08
12:22:53.671875,-382.19
12:22:53.687500,-373.79
12:22:53.703125,-328.47
12:22:53.718750,-244.45
12:22:53.734375,-131.67
12:22:53.750000,-7.74
12:22:53.765625,110.34
12:22:53.781250,211.07
12:22:53.796875,288.68
12:22:53.812500,341.69
12:22:53.828125,371.61
12:22:53.843750,378.58
12:22:53.859375,364.97
12:22:53.875000,337.59
12:22:53.890625,305.80
12:22:53.906250,278.46
12:22:53.921875,262.35
12:22:53.937500,260.81
12:22:53.953125,272.90
12:22:53.968750,294.51
12:22:53.984375,317.98
12:22:54,338.18
12:22:54.015625,355.47
12:22:54.031250,371.00
12:22:54.046875,384.38
12:22:54.062500,391.80
12:22:54.078125,387.52
12:22:54.093750,361.68
12:22:54.109375,309.63
12:22:54.125000,231.38
12:22:54.140625,133.69
12:22:54.156250,29.72
12:22:54.171875,-69.10
12:22:54.187500,-154.76
12:22:54.203125,-222.87
12:22:54.218750,-270.96
12:22:54.234375,-289.27
12:22:54.250000,-271.79
12:22:54.265625,-223.65
12:22:54.281250,-170.75
12:22:54.296875,-122.70
12:22:54.312500,-80.33
12:22:54.328125,-36.94
12:22:54.343750,11.09
12:22:54.359375,65.95
12:22:54.375000,120.46
12:22:54.390625,166.75
12:22:54.406250,194.98
12:22:54.421875,198.76
12:22:54.437500,179.89
12:22:54.453125,143.48
12:22:54.468750,96.53
12:22:54.484375,45.48
12:22:54.500000,-4.91
12:22:54.515625,-53.45
12:22:54.531250,-102.03
12:22:54.546875,-154.35
12:22:54.562500,-212.37
12:22:54.578125,-272.80
12:22:54.593750,-330.33
12:22:54.609375,-378.20
12:22:54.625000,-410.28
12:22:54.640625,-422.72
12:22:54.656250,-416.15
12:22:54.671875,-395.47
12:22:54.687500,-368.28
12:22:54.703125,-340.92
12:22:54.718750,-315.26
12:22:54.734375,-290.96
12:22:54.750000,-266.66
12:22:54.765625,-241.99
12:22:54.781250,-218.10
12:22:54.796875,-197.38
12:22:54.812500,-181.58
12:22:54.828125,-170.56
12:22:54.843750,-161.57
12:22:54.859375,-150.05
12:22:54.875000,-132.82
12:22:54.890625,-109.50
12:22:54.906250,-82.57
12:22:54.921875,-56.08
12:22:54.937500,-33.83
12:22:54.953125,-17.52
12:22:54.968750,-6.41
12:22:54.984375,2.44
12:22:55,12.76
12:22:55.015625,26.96
12:22:55.031250,45.14
12:22:55.046875,65.16
12:22:55.062500,83.79
12:22:55.078125,98.29
12:22:55.093750,107.79
12:22:55.109375,113.51
12:22:55.125000,118.43
12:22:55.140625,126.09
12:22:55.156250,139.32
12:22:55.171875,159.14
12:22:55.187500,184.28
12:22:55.203125,211.19
12:22:55.218750,234.89
12:22:55.234375,250.15
12:22:55.250000,252.92
12:22:55.265625,241.51
12:22:55.281250,217.28
12:22:55.296875,184.53
12:22:55.312500,149.43
12:22:55.328125,118.17
12:22:55.343750,94.82
12:22:55.359375,79.88
12:22:55.375000,70.42
12:22:55.390625,61.64
12:22:55.406250,49.58
12:22:55.421875,33.35
12:22:55.437500,15.77
12:22:55.453125,1.96
12:22:55.468750,-3.21
12:22:55.484375,2.44
12:22:55.500000,17.60
12:22:55.515625,38.55
12:22:55.531250,61.38
12:22:55.546875,83.91
12:22:55.562500,106.19
12:22:55.578125,129.58
12:22:55.593750,155.22
12:22:55.609375,183.04
12:22:55.625000,211.86
12:22:55.640625,240.39
