9:34:38,-0.00
9:34:38.015625,-0.00
9:34:38.031250,-0.00
9:34:38.046875,-0.00
9:34:38.062500,-0.00
9:34:38.078125,-0.00
9:34:38.093750,-0.00
9:34:38.109375,-0.00
9:34:38.125000,-0.00
9:34:38.140625,-0.00
9:34:38.156250,0.00
9:34:38.171875,0.01
9:34:38.187500,0.01
9:34:38.203125,-0.00
9:34:38.218750,-0.03
9:34:38.234375,-0.05
9:34:38.250000,-0.05
9:34:38.265625,0.00
9:34:38.281250,0.13
9:34:38.296875,0.36
9:34:38.312500,0.66
9:34:38.328125,1.01
9:34:38.343750,1.37
9:34:38.359375,1.72
9:34:38.375000,2.06
9:34:38.390625,2.40
9:34:38.406250,2.79
9:34:38.421875,3.24
9:34:38.437500,3.80
9:34:38.453125,4.42
9:34:38.468750,5.06
9:34:38.484375,5.66
9:34:38.500000,6.20
9:34:38.515625,6.68
9:34:38.531250,7.15
9:34:38.546875,7.68
9:34:38.562500,8.31
9:34:38.578125,9.14
9:34:38.593750,10.09
9:34:38.609375,11.04
9:34:38.625000,11.88
9:34:38.640625,12.56
9:34:38.656250,13.14
9:34:38.671875,13.76
9:34:38.687500,14.65
9:34:38.703125,15.96
9:34:38.718750,17.91
9:34:38.734375,20.32
9:34:38.750000,22.90
9:34:38.765625,25.38
9:34:38.781250,27.58
9:34:38.796875,29.57
9:34:38.812500,31.68
9:34:38.828125,34.32
9:34:38.843750,37.81
9:34:38.859375,42.54
9:34:38.875000,48.15
9:34:38.890625,54.10
9:34:38.906250,59.83
9:34:38.921875,64.97
9:34:38.937500,69.58
9:34:38.953125,74.14
9:34:38.968750,79.34
9:34:38.984375,85.71
9:34:39,93.76
9:34:39.015625,103.00
9:34:39.031250,112.62
9:34:39.046875,121.73
9:34:39.062500,129.77
9:34:39.078125,136.75
9:34:39.093750,143.30
9:34:39.109375,150.75
9:34:39.125000,157.77
9:34:39.140625,166.64
9:34:39.156250,177.95
9:34:39.171875,191.79
9:34:39.187500,206.97
9:34:39.203125,220.57
9:34:39.218750,228.25
9:34:39.234375,225.36
9:34:39.250000,208.53
9:34:39.265625,176.87
9:34:39.281250,132.76
9:34:39.296875,80.05
9:34:39.312500,23.07
9:34:39.328125,-34.94
9:34:39.343750,-92.44
9:34:39.359375,-149.16
9:34:39.375000,-205.23
9:34:39.390625,-260.37
9:34:39.406250,-313.74
9:34:39.421875,-363.87
9:34:39.437500,-409.83
9:34:39.453125,-450.91
9:34:39.468750,-486.50
9:34:39.484375,-515.74
9:34:39.500000,-537.23
9:34:39.515625,-549.22
9:34:39.531250,-549.96
9:34:39.546875,-538.37
9:34:39.562500,-514.21
9:34:39.578125,-478.67
9:34:39.593750,-433.88
9:34:39.609375,-382.45
9:34:39.625000,-327.02
9:34:39.640625,-269.84
9:34:39.656250,-212.63
9:34:39.671875,-156.66
9:34:39.687500,-102.95
9:34:39.703125,-52.37
9:34:39.718750,-5.90
9:34:39.734375,35.58
9:34:39.750000,71.43
9:34:39.765625,101.35
9:34:39.781250,125.50
9:34:39.796875,144.38
9:34:39.812500,158.69
9:34:39.828125,169.15
9:34:39.843750,176.37
9:34:39.859375,180.75
9:34:39.875000,182.57
9:34:39.890625,182.07
9:34:39.906250,179.51
9:34:39.921875,175.23
9:34:39.937500,169.65
9:34:39.953125,163.18
9:34:39.968750,156.15
9:34:39.984375,148.81
9:34:40,141.30
9:34:40.015625,133.69
9:34:40.031250,126.02
9:34:40.046875,118.33
9:34:40.062500,110.69
9:34:40.078125,103.16
9:34:40.093750,95.80
9:34:40.109375,88.68
9:34:40.125000,81.83
9:34:40.140625,75.25
9:34:40.156250,68.95
9:34:40.171875,62.95
9:34:40.187500,57.25
9:34:40.203125,51.86
9:34:40.218750,46.78
9:34:40.234375,42.03
9:34:40.250000,37.59
9:34:40.265625,33.45
9:34:40.281250,29.61
9:34:40.296875,26.07
9:34:40.312500,22.81
9:34:40.328125,19.83
9:34:40.343750,17.11
9:34:40.359375,14.67
9:34:40.375000,12.48
9:34:40.390625,10.54
9:34:40.406250,8.83
9:34:40.421875,7.35
9:34:40.437500,6.07
9:34:40.453125,4.97
9:34:40.468750,4.05
9:34:40.484375,3.27
9:34:40.500000,2.62
9:34:40.515625,2.09
9:34:40.531250,1.65
9:34:40.546875,1.30
9:34:40.562500,1.01
9:34:40.578125,0.79
9:34:40.593750,0.61
9:34:40.609375,0.47
9:34:40.625000,0.37
9:34:40.640625,0.29
9:34:40.656250,0.23
9:34:40.671875,0.19
9:34:40.687500,0.17
9:34:40.703125,0.16
9:34:40.718750,0.16
9:34:40.734375,0.17
9:34:40.750000,0.18
9:34:40.765625,0.21
9:34:40.781250,0.24
9:34:40.796875,0.27
9:34:40.812500,0.31
9:34:40.828125,0.35
9:34:40.843750,0.40
9:34:40.859375,0.44
9:34:40.875000,0.49
9:34:40.890625,0.54
9:34:40.906250,0.58
9:34:40.921875,0.63
9:34:40.937500,0.69
9:34:40.953125,0.75
9:34:40.968750,0.83
9:34:40.984375,0.92
9:34:41,1.01
9:34:41.015625,1.07
9:34:41.031250,1.11
9:34:41.046875,1.11
9:34:41.062500,1.11
9:34:41.078125,1.13
9:34:41.093750,1.20
9:34:41.109375,1.32
9:34:41.125000,1.51
9:34:41.140625,1.73
9:34:41.156250,1.96
9:34:41.171875,2.16
9:34:41.187500,2.33
9:34:41.203125,2.51
9:34:41.218750,2.73
9:34:41.234375,3.02
9:34:41.250000,3.41
9:34:41.265625,3.88
9:34:41.281250,4.38
9:34:41.296875,4.86
9:34:41.312500,5.27
9:34:41.328125,5.61
9:34:41.343750,5.92
9:34:41.359375,6.31
9:34:41.375000,6.85
9:34:41.390625,7.60
9:34:41.406250,8.50
9:34:41.421875,9.43
9:34:41.437500,10.23
9:34:41.453125,10.78
9:34:41.468750,11.10
9:34:41.484375,11.30
9:34:41.500000,11.61
9:34:41.515625,12.27
9:34:41.531250,13.36
9:34:41.546875,14.77
9:34:41.562500,16.21
9:34:41.578125,17.26
9:34:41.593750,17.58
9:34:41.609375,17.06
9:34:41.625000,15.81
9:34:41.640625,14.15
9:34:41.656250,12.41
9:34:41.671875,10.71
9:34:41.687500,8.85
9:34:41.703125,6.35
9:34:41.718750,2.70
9:34:41.734375,-2.49
9:34:41.750000,-9.07
9:34:41.765625,-16.43
9:34:41.781250,-23.67
9:34:41.796875,-29.98
9:34:41.812500,-34.84
9:34:41.828125,-38.27
9:34:41.843750,-40.72
9:34:41.859375,-42.78
9:34:41.875000,-44.99
9:34:41.890625,-47.77
9:34:41.906250,-51.39
9:34:41.921875,-55.83
9:34:41.937500,-60.51
9:34:41.953125,-64.01
9:34:41.968750,-64.32
9:34:41.984375,-59.45
9:34:42,-48.49
9:34:42.015625,-32.41
9:34:42.031250,-13.95
9:34:42.046875,3.26
9:34:42.062500,16.18
9:34:42.078125,23.48
9:34:42.093750,25.84
9:34:42.109375,25.18
9:34:42.125000,23.47
9:34:42.140625,21.80
9:34:42.156250,20.22
9:34:42.171875,18.22
9:34:42.187500,15.46
9:34:42.203125,12.27
9:34:42.218750,9.46
9:34:42.234375,7.82
9:34:42.250000,7.62
9:34:42.265625,8.39
9:34:42.281250,9.24
9:34:42.296875,9.18
9:34:42.312500,7.73
9:34:42.328125,5.10
9:34:42.343750,2.03
9:34:42.359375,-0.52
9:34:42.375000,-1.80
9:34:42.390625,-1.57
9:34:42.406250,-0.06
9:34:42.421875,2.18
9:34:42.437500,4.62
9:34:42.453125,6.89
9:34:42.468750,8.92
9:34:42.484375,10.73
9:34:42.500000,12.35
9:34:42.515625,13.68
9:34:42.531250,14.51
9:34:42.546875,14.62
9:34:42.562500,13.91
9:34:42.578125,12.44
9:34:42.593750,10.44
9:34:42.609375,8.25
9:34:42.625000,6.15
9:34:42.640625,4.34
9:34:42.656250,2.88
9:34:42.671875,1.78
9:34:42.687500,0.99
9:34:42.703125,0.52
9:34:42.718750,0.45
9:34:42.734375,0.71
9:34:42.750000,1.37
9:34:42.765625,2.36
9:34:42.781250,3.51
9:34:42.796875,4.62
9:34:42.812500,5.54
9:34:42.828125,6.25
9:34:42.843750,6.86
9:34:42.859375,7.47
9:34:42.875000,8.06
9:34:42.890625,8.45
9:34:42.906250,8.26
9:34:42.921875,7.14
9:34:42.937500,4.97
9:34:42.953125,1.96
9:34:42.968750,-1.43
9:34:42.984375,-4.69
9:34:43,-7.47
9:34:43.015625,-9.71
9:34:43.031250,-11.59
9:34:43.046875,-13.37
9:34:43.062500,-15.24
9:34:43.078125,-17.19
9:34:43.093750,-19.12
9:34:43.109375,-20.98
9:34:43.125000,-22.89
9:34:43.140625,-25.17
9:34:43.156250,-28.19
9:34:43.171875,-32.08
9:34:43.187500,-36.53
9:34:43.203125,-40.76
9:34:43.218750,-43.66
9:34:43.234375,-44.17
9:34:43.250000,-41.72
9:34:43.265625,-36.38
9:34:43.281250,-28.93
9:34:43.296875,-20.54
9:34:43.312500,-12.33
9:34:43.328125,-5.09
9:34:43.343750,0.89
9:34:43.359375,5.77
9:34:43.375000,9.85
9:34:43.390625,13.45
9:34:43.406250,16.69
9:34:43.421875,19.55
9:34:43.437500,21.92
9:34:43.453125,23.69
9:34:43.468750,24.81
9:34:43.484375,25.30
9:34:43.500000,25.29
9:34:43.515625,24.95
9:34:43.531250,24.50
9:34:43.546875,24.17
9:34:43.562500,24.09
9:34:43.578125,24.34
9:34:43.593750,24.85
9:34:43.609375,25.49
9:34:43.625000,26.11
9:34:43.640625,26.58
9:34:43.656250,26.73
9:34:43.671875,26.49
9:34:43.687500,25.76
9:34:43.703125,24.51
9:34:43.718750,22.80
9:34:43.734375,20.71
9:34:43.750000,18.39
9:34:43.765625,15.92
9:34:43.781250,13.36
9:34:43.796875,10.65
9:34:43.812500,7.69
9:34:43.828125,4.41
9:34:43.843750,0.81
9:34:43.859375,-2.98
9:34:43.875000,-6.79
9:34:43.890625,-10.41
9:34:43.906250,-13.75
9:34:43.921875,-16.92
9:34:43.937500,-20.13
9:34:43.953125,-23.65
9:34:43.968750,-27.61
9:34:43.984375,-31.92
9:34:44,-36.22
9:34:44.015625,-39.97
9:34:44.031250,-42.54
9:34:44.046875,-43.38
9:34:44.062500,-42.14
9:34:44.078125,-38.80
9:34:44.093750,-33.66
9:34:44.109375,-27.26
9:34:44.125000,-20.24
9:34:44.140625,-13.11
9:34:44.156250,-6.19
9:34:44.171875,0.41
9:34:44.187500,6.69
9:34:44.203125,12.62
9:34:44.218750,18.09
9:34:44.234375,22.90
9:34:44.250000,26.89
9:34:44.265625,30.04
9:34:44.281250,32.49
9:34:44.296875,34.48
9:34:44.312500,36.24
9:34:44.328125,37.85
9:34:44.343750,39.25
9:34:44.359375,40.26
9:34:44.375000,40.72
9:34:44.390625,40.60
9:34:44.406250,40.08
9:34:44.421875,39.41
9:34:44.437500,38.82
9:34:44.453125,38.35
9:34:44.468750,37.79
9:34:44.484375,36.73
9:34:44.500000,34.79
9:34:44.515625,31.78
9:34:44.531250,27.81
9:34:44.546875,23.27
9:34:44.562500,18.70
9:34:44.578125,14.54
9:34:44.593750,11.11
9:34:44.609375,8.40
9:34:44.625000,6.05
9:34:44.640625,3.49
9:34:44.656250,0.08
9:34:44.671875,-4.63
9:34:44.687500,-10.58
9:34:44.703125,-17.13
9:34:44.718750,-23.15
9:34:44.734375,-27.37
9:34:44.750000,-28.86
9:34:44.765625,-27.34
9:34:44.781250,-23.45
9:34:44.796875,-18.49
9:34:44.812500,-14.14
9:34:44.828125,-11.89
9:34:44.843750,-12.68
9:34:44.859375,-16.61
9:34:44.875000,-22.97
9:34:44.890625,-30.46
9:34:44.906250,-37.55
9:34:44.921875,-42.95
9:34:44.937500,-45.90
9:34:44.953125,-46.39
9:34:44.968750,-45.09
9:34:44.984375,-43.09
9:34:45,-41.64
9:34:45.015625,-41.68
9:34:45.031250,-43.66
9:34:45.046875,-47.34
9:34:45.062500,-52.04
9:34:45.078125,-56.87
9:34:45.093750,-61.18
9:34:45.109375,-64.69
9:34:45.125000,-67.59
9:34:45.140625,-70.27
9:34:45.156250,-72.99
9:34:45.171875,-75.67
9:34:45.187500,-77.85
9:34:45.203125,-78.86
9:34:45.218750,-78.05
9:34:45.234375,-74.96
9:34:45.250000,-69.34
9:34:45.265625,-61.09
9:34:45.281250,-50.31
9:34:45.296875,-37.38
9:34:45.312500,-23.15
9:34:45.328125,-8.90
9:34:45.343750,3.73
9:34:45.359375,13.24
9:34:45.375000,18.71
9:34:45.390625,20.15
9:34:45.406250,18.44
9:34:45.421875,15.02
9:34:45.437500,11.39
9:34:45.453125,8.54
9:34:45.468750,6.88
9:34:45.484375,6.27
9:34:45.500000,6.42
9:34:45.515625,7.14
9:34:45.531250,8.43
9:34:45.546875,10.41
9:34:45.562500,13.03
9:34:45.578125,15.99
9:34:45.593750,18.70
9:34:45.609375,20.43
9:34:45.625000,20.53
9:34:45.640625,18.57
9:34:45.656250,14.48
9:34:45.671875,8.63
9:34:45.687500,1.77
9:34:45.703125,-5.05
9:34:45.718750,-10.66
9:34:45.734375,-14.03
9:34:45.750000,-14.50
9:34:45.765625,-11.94
9:34:45.781250,-6.69
9:34:45.796875,0.62
9:34:45.812500,9.28
9:34:45.828125,18.70
9:34:45.843750,28.47
9:34:45.859375,38.27
9:34:45.875000,47.76
9:34:45.890625,56.56
9:34:45.906250,64.20
9:34:45.921875,70.28
9:34:45.937500,74.53
9:34:45.953125,76.98
9:34:45.968750,77.86
9:34:45.984375,77.57
9:34:46,76.49
9:34:46.015625,74.92
9:34:46.031250,73.03
9:34:46.046875,70.92
9:34:46.062500,68.69
9:34:46.078125,66.46
9:34:46.093750,64.37
9:34:46.109375,62.54
9:34:46.125000,60.99
9:34:46.140625,59.61
9:34:46.156250,58.13
9:34:46.171875,56.22
9:34:46.187500,53.46
9:34:46.203125,49.49
9:34:46.218750,44.11
9:34:46.234375,37.45
9:34:46.250000,30.01
9:34:46.265625,22.52
9:34:46.281250,15.72
9:34:46.296875,9.99
9:34:46.312500,5.24
9:34:46.328125,0.98
9:34:46.343750,-3.44
9:34:46.359375,-8.47
9:34:46.375000,-14.26
9:34:46.390625,-20.61
9:34:46.406250,-27.14
9:34:46.421875,-33.40
9:34:46.437500,-38.96
9:34:46.453125,-43.39
9:34:46.468750,-46.21
9:34:46.484375,-46.99
9:34:46.500000,-45.47
9:34:46.515625,-41.74
9:34:46.531250,-36.30
9:34:46.546875,-30.01
9:34:46.562500,-23.75
9:34:46.578125,-18.17
9:34:46.593750,-13.41
9:34:46.609375,-9.16
9:34:46.625000,-4.85
9:34:46.640625,0.01
9:34:46.656250,5.52
9:34:46.671875,11.35
9:34:46.687500,16.83
9:34:46.703125,21.31
9:34:46.718750,24.39
9:34:46.734375,26.05
9:34:46.750000,26.63
9:34:46.765625,26.58
9:34:46.781250,26.35
9:34:46.796875,26.18
9:34:46.812500,26.19
9:34:46.828125,26.38
9:34:46.843750,26.81
9:34:46.859375,27.56
9:34:46.875000,28.77
9:34:46.890625,30.48
9:34:46.906250,32.57
9:34:46.921875,34.71
9:34:46.937500,36.46
9:34:46.953125,37.51
9:34:46.968750,37.76
9:34:46.984375,37.41
9:34:47,36.78
9:34:47.015625,36.14
9:34:47.031250,35.59
9:34:47.046875,35.01
9:34:47.062500,34.22
9:34:47.078125,33.15
9:34:47.093750,31.85
9:34:47.109375,30.44
9:34:47.125000,28.90
9:34:47.140625,27.01
9:34:47.156250,24.39
9:34:47.171875,20.76
9:34:47.187500,16.11
9:34:47.203125,10.82
9:34:47.218750,5.58
9:34:47.234375,1.16
9:34:47.250000,-1.80
9:34:47.265625,-2.97
9:34:47.281250,-2.38
9:34:47.296875,-0.37
9:34:47.312500,2.56
9:34:47.328125,5.77
9:34:47.343750,8.63
9:34:47.359375,10.57
9:34:47.375000,11.11
9:34:47.390625,9.91
9:34:47.406250,6.90
9:34:47.421875,2.20
9:34:47.437500,-3.83
9:34:47.453125,-10.77
9:34:47.468750,-18.16
9:34:47.484375,-25.60
9:34:47.500000,-32.80
9:34:47.515625,-39.48
9:34:47.531250,-45.36
9:34:47.546875,-50.04
9:34:47.562500,-53.19
9:34:47.578125,-54.67
9:34:47.593750,-54.65
9:34:47.609375,-53.67
9:34:47.625000,-52.45
9:34:47.640625,-51.63
9:34:47.656250,-51.56
9:34:47.671875,-52.19
9:34:47.687500,-53.09
9:34:47.703125,-53.68
9:34:47.718750,-53.45
9:34:47.734375,-52.18
9:34:47.750000,-50.14
9:34:47.765625,-47.95
9:34:47.781250,-46.32
9:34:47.796875,-45.56
9:34:47.812500,-45.19
9:34:47.828125,-43.86
9:34:47.843750,-39.83
9:34:47.859375,-31.91
9:34:47.875000,-20.25
9:34:47.890625,-6.69
9:34:47.906250,5.71
9:34:47.921875,14.01
9:34:47.937500,16.70
9:34:47.953125,14.55
9:34:47.968750,10.35
9:34:47.984375,7.84
9:34:48,10.40
9:34:48.015625,20.25
9:34:48.031250,38.07
9:34:48.046875,63.09
9:34:48.062500,93.11
9:34:48.078125,124.40
9:34:48.093750,151.74
9:34:48.109375,169.02
9:34:48.125000,170.51
9:34:48.140625,152.90
9:34:48.156250,117.03
9:34:48.171875,68.53
9:34:48.187500,16.59
9:34:48.203125,-29.05
9:34:48.218750,-61.55
9:34:48.234375,-79.20
9:34:48.250000,-85.55
9:34:48.265625,-87.08
9:34:48.281250,-89.98
9:34:48.296875,-97.57
9:34:48.312500,-109.67
9:34:48.328125,-123.72
9:34:48.343750,-136.90
9:34:48.359375,-147.68
9:34:48.375000,-155.94
9:34:48.390625,-161.85
9:34:48.406250,-164.30
9:34:48.421875,-160.39
9:34:48.437500,-146.31
9:34:48.453125,-119.48
9:34:48.468750,-80.68
9:34:48.484375,-34.85
9:34:48.500000,10.01
9:34:48.515625,45.73
9:34:48.531250,67.33
9:34:48.546875,75.17
9:34:48.562500,74.59
9:34:48.578125,72.98
9:34:48.593750,75.83
9:34:48.609375,83.98
9:34:48.625000,93.60
9:34:48.640625,98.96
9:34:48.656250,96.24
9:34:48.671875,86.01
9:34:48.687500,72.77
9:34:48.703125,62.11
9:34:48.718750,57.22
9:34:48.734375,57.10
9:34:48.750000,57.52
9:34:48.765625,53.91
9:34:48.781250,44.18
9:34:48.796875,29.99
9:34:48.812500,15.56
9:34:48.828125,5.21
9:34:48.843750,1.04
9:34:48.859375,2.22
9:34:48.875000,5.93
9:34:48.890625,9.19
9:34:48.906250,10.38
9:34:48.921875,9.63
9:34:48.937500,8.00
9:34:48.953125,6.27
9:34:48.968750,4.09
9:34:48.984375,0.08
9:34:49,-7.20
9:34:49.015625,-18.13
9:34:49.031250,-31.46
9:34:49.046875,-44.49
9:34:49.062500,-54.31
9:34:49.078125,-58.89
9:34:49.093750,-57.95
9:34:49.109375,-52.98
9:34:49.125000,-46.45
9:34:49.140625,-40.75
9:34:49.156250,-37.26
9:34:49.171875,-36.10
9:34:49.187500,-36.35
9:34:49.203125,-36.77
9:34:49.218750,-36.47
9:34:49.234375,-35.26
9:34:49.250000,-33.68
9:34:49.265625,-32.86
9:34:49.281250,-34.31
9:34:49.296875,-39.75
9:34:49.312500,-50.57
9:34:49.328125,-66.96
9:34:49.343750,-87.15
9:34:49.359375,-107.17
9:34:49.375000,-121.60
9:34:49.390625,-125.41
9:34:49.406250,-115.85
9:34:49.421875,-93.76
9:34:49.437500,-63.32
9:34:49.453125,-30.39
9:34:49.468750,-0.27
9:34:49.484375,23.93
9:34:49.500000,41.70
9:34:49.515625,54.22
9:34:49.531250,62.97
9:34:49.546875,68.73
9:34:49.562500,71.49
9:34:49.578125,71.06
9:34:49.593750,67.94
9:34:49.609375,63.63
9:34:49.625000,60.21
9:34:49.640625,59.45
9:34:49.656250,61.86
9:34:49.671875,66.23
9:34:49.687500,70.26
9:34:49.703125,71.65
9:34:49.718750,69.25
9:34:49.734375,63.62
9:34:49.750000,56.60
9:34:49.765625,50.28
9:34:49.781250,45.94
9:34:49.796875,43.50
9:34:49.812500,41.86
9:34:49.828125,39.64
9:34:49.843750,36.03
9:34:49.859375,31.14
9:34:49.875000,25.86
9:34:49.890625,21.25
9:34:49.906250,18.09
9:34:49.921875,16.61
9:34:49.937500,16.54
9:34:49.953125,17.26
9:34:49.968750,18.13
9:34:49.984375,18.53
9:34:50,17.89
9:34:50.015625,15.76
9:34:50.031250,11.82
9:34:50.046875,5.98
9:34:50.062500,-1.52
9:34:50.078125,-10.07
9:34:50.093750,-18.74
9:34:50.109375,-26.41
9:34:50.125000,-32.01
9:34:50.140625,-34.76
9:34:50.156250,-34.41
9:34:50.171875,-31.35
9:34:50.187500,-26.46
9:34:50.203125,-20.83
9:34:50.218750,-15.42
9:34:50.234375,-10.75
9:34:50.250000,-6.82
9:34:50.265625,-3.28
9:34:50.281250,0.37
9:34:50.296875,4.48
9:34:50.312500,9.07
9:34:50.328125,13.87
9:34:50.343750,18.36
9:34:50.359375,21.89
9:34:50.375000,23.80
9:34:50.390625,23.59
9:34:50.406250,20.99
9:34:50.421875,16.18
9:34:50.437500,9.85
9:34:50.453125,3.01
9:34:50.468750,-3.13
9:34:50.484375,-7.62
9:34:50.500000,-10.00
9:34:50.515625,-10.44
9:34:50.531250,-9.59
9:34:50.546875,-8.30
9:34:50.562500,-7.30
9:34:50.578125,-6.94
9:34:50.593750,-7.20
9:34:50.609375,-7.79
9:34:50.625000,-8.35
9:34:50.640625,-8.66
9:34:50.656250,-8.79
9:34:50.671875,-9.05
9:34:50.687500,-9.88
9:34:50.703125,-11.63
9:34:50.718750,-14.33
9:34:50.734375,-17.67
9:34:50.750000,-20.96
9:34:50.765625,-23.44
9:34:50.781250,-24.52
9:34:50.796875,-23.91
9:34:50.812500,-21.72
9:34:50.828125,-18.28
9:34:50.843750,-13.96
9:34:50.859375,-9.05
9:34:50.875000,-3.77
9:34:50.890625,1.61
9:34:50.906250,6.75
9:34:50.921875,11.25
9:34:50.937500,14.81
9:34:50.953125,17.34
9:34:50.968750,19.04
9:34:50.984375,20.29
9:34:51,21.45
9:34:51.015625,22.65
9:34:51.031250,23.75
9:34:51.046875,24.44
9:34:51.062500,24.42
9:34:51.078125,23.62
9:34:51.093750,22.23
9:34:51.109375,20.55
9:34:51.125000,18.83
9:34:51.140625,17.14
9:34:51.156250,15.35
9:34:51.171875,13.36
9:34:51.187500,11.16
9:34:51.203125,8.86
9:34:51.218750,6.66
9:34:51.234375,4.63
9:34:51.250000,2.69
9:34:51.265625,0.67
9:34:51.281250,-1.51
9:34:51.296875,-3.83
9:34:51.312500,-6.23
9:34:51.328125,-8.79
9:34:51.343750,-11.79
9:34:51.359375,-15.52
9:34:51.375000,-19.99
9:34:51.390625,-24.67
9:34:51.406250,-28.64
9:34:51.421875,-30.82
9:34:51.437500,-30.52
9:34:51.453125,-27.67
9:34:51.468750,-22.83
9:34:51.484375,-16.86
9:34:51.500000,-10.55
9:34:51.515625,-4.42
9:34:51.531250,1.25
9:34:51.546875,6.26
9:34:51.562500,10.36
9:34:51.578125,13.30
9:34:51.593750,14.97
9:34:51.609375,15.53
9:34:51.625000,15.39
9:34:51.640625,15.04
9:34:51.656250,14.84
9:34:51.671875,14.86
9:34:51.687500,15.00
9:34:51.703125,15.04
9:34:51.718750,14.86
9:34:51.734375,14.46
9:34:51.750000,13.95
9:34:51.765625,13.41
9:34:51.781250,12.89
9:34:51.796875,12.36
9:34:51.812500,11.72
9:34:51.828125,10.82
9:34:51.843750,9.46
9:34:51.859375,7.45
9:34:51.875000,4.65
9:34:51.890625,1.08
9:34:51.906250,-3.00
9:34:51.921875,-7.19
9:34:51.937500,-11.09
9:34:51.953125,-14.53
9:34:51.968750,-17.62
9:34:51.984375,-20.71
9:34:52,-24.17
9:34:52.015625,-28.06
9:34:52.031250,-32.03
9:34:52.046875,-35.36
9:34:52.062500,-37.19
9:34:52.078125,-36.84
9:34:52.093750,-34.01
9:34:52.109375,-28.93
9:34:52.125000,-22.23
9:34:52.140625,-14.78
9:34:52.156250,-7.41
9:34:52.171875,-0.62
9:34:52.187500,5.43
9:34:52.203125,10.85
9:34:52.218750,15.76
9:34:52.234375,20.04
9:34:52.250000,23.33
9:34:52.265625,25.22
9:34:52.281250,25.51
9:34:52.296875,24.44
9:34:52.312500,22.65
9:34:52.328125,20.84
9:34:52.343750,19.46
9:34:52.359375,18.52
9:34:52.375000,17.69
9:34:52.390625,16.66
9:34:52.406250,15.42
9:34:52.421875,14.31
9:34:52.437500,13.77
9:34:52.453125,13.99
9:34:52.468750,14.74
9:34:52.484375,15.39
9:34:52.500000,15.22
9:34:52.515625,13.72
9:34:52.531250,10.78
9:34:52.546875,6.64
9:34:52.562500,1.71
9:34:52.578125,-3.50
9:34:52.593750,-8.56
9:34:52.609375,-13.19
9:34:52.625000,-17.19
9:34:52.640625,-20.59
9:34:52.656250,-23.51
9:34:52.671875,-26.18
9:34:52.687500,-28.71
9:34:52.703125,-31.11
9:34:52.718750,-33.15
9:34:52.734375,-34.39
9:34:52.750000,-34.44
9:34:52.765625,-33.01
9:34:52.781250,-30.13
9:34:52.796875,-26.08
9:34:52.812500,-21.29
9:34:52.828125,-16.19
9:34:52.843750,-11.05
9:34:52.859375,-5.97
9:34:52.875000,-0.90
9:34:52.890625,4.14
9:34:52.906250,9.00
9:34:52.921875,13.36
9:34:52.937500,16.75
9:34:52.953125,18.80
9:34:52.968750,19.41
9:34:52.984375,18.86
9:34:53,17.70
9:34:53.015625,16.61
9:34:53.031250,16.05
9:34:53.046875,16.14
9:34:53.062500,16.63
9:34:53.078125,17.05
9:34:53.093750,17.01
9:34:53.109375,16.39
9:34:53.125000,15.34
9:34:53.140625,14.22
9:34:53.156250,13.30
9:34:53.171875,12.58
9:34:53.187500,11.86
9:34:53.203125,10.85
9:34:53.218750,9.34
9:34:53.234375,7.37
9:34:53.250000,5.16
9:34:53.265625,2.95
9:34:53.281250,0.85
9:34:53.296875,-1.26
9:34:53.312500,-3.74
9:34:53.328125,-6.97
9:34:53.343750,-11.19
9:34:53.359375,-16.40
9:34:53.375000,-22.24
9:34:53.390625,-28.12
9:34:53.406250,-33.26
9:34:53.421875,-36.90
9:34:53.437500,-38.43
9:34:53.453125,-37.57
9:34:53.468750,-34.51
9:34:53.484375,-29.75
9:34:53.500000,-24.02
9:34:53.515625,-17.99
9:34:53.531250,-12.10
9:34:53.546875,-6.58
9:34:53.562500,-1.43
9:34:53.578125,3.40
9:34:53.593750,7.96
9:34:53.609375,12.21
9:34:53.625000,15.99
9:34:53.640625,19.09
9:34:53.656250,21.28
9:34:53.671875,22.45
9:34:53.687500,22.64
9:34:53.703125,22.05
9:34:53.718750,21.00
9:34:53.734375,19.76
9:34:53.750000,18.53
9:34:53.765625,17.37
9:34:53.781250,16.26
9:34:53.796875,15.22
9:34:53.812500,14.31
9:34:53.828125,13.66
9:34:53.843750,13.31
9:34:53.859375,13.13
9:34:53.875000,12.82
9:34:53.890625,12.02
9:34:53.906250,10.52
9:34:53.921875,8.29
9:34:53.937500,5.53
9:34:53.953125,2.54
9:34:53.968750,-0.36
9:34:53.984375,-3.01
9:34:54,-5.38
9:34:54.015625,-7.66
9:34:54.031250,-10.18
9:34:54.046875,-13.27
9:34:54.062500,-17.15
9:34:54.078125,-21.79
9:34:54.093750,-26.87
9:34:54.109375,-31.73
9:34:54.125000,-35.60
9:34:54.140625,-37.77
9:34:54.156250,-37.81
9:34:54.171875,-35.73
9:34:54.187500,-31.87
9:34:54.203125,-26.75
9:34:54.218750,-20.96
9:34:54.234375,-14.96
9:34:54.250000,-9.15
9:34:54.265625,-3.81
9:34:54.281250,0.82
9:34:54.296875,4.67
9:34:54.312500,7.74
9:34:54.328125,10.13
9:34:54.343750,12.02
9:34:54.359375,13.50
9:34:54.375000,14.59
9:34:54.390625,15.24
9:34:54.406250,15.37
9:34:54.421875,14.97
9:34:54.437500,14.10
9:34:54.453125,12.92
9:34:54.468750,11.64
9:34:54.484375,10.48
9:34:54.500000,9.65
9:34:54.515625,9.23
9:34:54.531250,9.21
9:34:54.546875,9.35
9:34:54.562500,9.33
9:34:54.578125,8.80
9:34:54.593750,7.57
9:34:54.609375,5.73
9:34:54.625000,3.57
9:34:54.640625,1.49
9:34:54.656250,-0.24
9:34:54.671875,-1.56
9:34:54.687500,-2.67
9:34:54.703125,-3.81
9:34:54.718750,-5.24
9:34:54.734375,-7.09
9:34:54.750000,-9.42
9:34:54.765625,-12.27
9:34:54.781250,-15.68
9:34:54.796875,-19.57
9:34:54.812500,-23.61
9:34:54.828125,-27.26
9:34:54.843750,-29.76
9:34:54.859375,-30.50
9:34:54.875000,-29.21
9:34:54.890625,-26.02
9:34:54.906250,-21.47
9:34:54.921875,-16.19
9:34:54.937500,-10.74
9:34:54.953125,-5.48
9:34:54.968750,-0.63
9:34:54.984375,3.73
9:34:55,7.50
9:34:55.015625,10.56
9:34:55.031250,12.78
9:34:55.046875,14.05
9:34:55.062500,14.39
9:34:55.078125,13.89
9:34:55.093750,12.81
9:34:55.109375,11.47
9:34:55.125000,10.18
9:34:55.140625,9.12
9:34:55.156250,8.33
9:34:55.171875,7.76
9:34:55.187500,7.29
9:34:55.203125,6.91
9:34:55.218750,6.60
9:34:55.234375,6.36
9:34:55.250000,6.11
9:34:55.265625,5.71
9:34:55.281250,5.01
9:34:55.296875,3.93
9:34:55.312500,2.51
9:34:55.328125,0.83
9:34:55.343750,-1.03
9:34:55.359375,-3.02
9:34:55.375000,-5.16
9:34:55.390625,-7.48
9:34:55.406250,-10.06
9:34:55.421875,-12.97
9:34:55.437500,-16.28
9:34:55.453125,-20.01
9:34:55.468750,-24.02
9:34:55.484375,-27.99
9:34:55.500000,-31.35
9:34:55.515625,-33.45
9:34:55.531250,-33.77
9:34:55.546875,-32.07
9:34:55.562500,-28.50
9:34:55.578125,-23.57
9:34:55.593750,-17.99
9:34:55.609375,-12.42
9:34:55.625000,-7.35
9:34:55.640625,-2.94
9:34:55.656250,0.85
9:34:55.671875,4.24
9:34:55.687500,7.41
9:34:55.703125,10.40
9:34:55.718750,13.05
9:34:55.734375,15.12
9:34:55.750000,16.36
9:34:55.765625,16.68
9:34:55.781250,16.17
9:34:55.796875,15.08
9:34:55.812500,13.68
9:34:55.828125,12.24
9:34:55.843750,10.92
9:34:55.859375,9.84
9:34:55.875000,9.05
9:34:55.890625,8.59
9:34:55.906250,8.47
9:34:55.921875,8.57
9:34:55.937500,8.70
9:34:55.953125,8.56
9:34:55.968750,7.84
9:34:55.984375,6.37
9:34:56,4.18
9:34:56.015625,1.47
9:34:56.031250,-1.48
9:34:56.046875,-4.41
9:34:56.062500,-7.19
9:34:56.078125,-9.88
9:34:56.093750,-12.65
9:34:56.109375,-15.72
9:34:56.125000,-19.24
9:34:56.140625,-23.26
9:34:56.156250,-27.61
9:34:56.171875,-32.00
9:34:56.187500,-35.91
9:34:56.203125,-38.69
9:34:56.218750,-39.78
9:34:56.234375,-38.78
9:34:56.250000,-35.70
9:34:56.265625,-30.90
9:34:56.281250,-25.05
9:34:56.296875,-18.80
9:34:56.312500,-12.67
9:34:56.328125,-6.97
9:34:56.343750,-1.79
9:34:56.359375,2.83
9:34:56.375000,6.87
9:34:56.390625,10.29
9:34:56.406250,13.03
9:34:56.421875,15.12
9:34:56.437500,16.61
9:34:56.453125,17.60
9:34:56.468750,18.16
9:34:56.484375,18.31
9:34:56.500000,18.03
9:34:56.515625,17.30
9:34:56.531250,16.20
9:34:56.546875,14.91
9:34:56.562500,13.68
9:34:56.578125,12.81
9:34:56.593750,12.48
9:34:56.609375,12.71
9:34:56.625000,13.30
9:34:56.640625,13.92
9:34:56.656250,14.16
9:34:56.671875,13.68
9:34:56.687500,12.27
9:34:56.703125,9.90
9:34:56.718750,6.72
9:34:56.734375,3.02
9:34:56.750000,-0.86
9:34:56.765625,-4.60
9:34:56.781250,-8.05
9:34:56.796875,-11.15
9:34:56.812500,-14.04
9:34:56.828125,-17.02
9:34:56.843750,-20.36
9:34:56.859375,-24.22
9:34:56.875000,-28.54
9:34:56.890625,-32.87
9:34:56.906250,-36.53
9:34:56.921875,-38.72
9:34:56.937500,-38.82
9:34:56.953125,-36.54
9:34:56.968750,-32.09
9:34:56.984375,-26.01
9:34:57,-19.03
9:34:57.015625,-11.87
9:34:57.031250,-5.10
9:34:57.046875,0.97
9:34:57.062500,6.18
9:34:57.078125,10.55
9:34:57.093750,14.16
9:34:57.109375,17.11
9:34:57.125000,19.43
9:34:57.140625,21.12
9:34:57.156250,22.14
9:34:57.171875,22.48
9:34:57.187500,22.23
9:34:57.203125,21.63
9:34:57.218750,20.94
9:34:57.234375,20.38
9:34:57.250000,20.01
9:34:57.265625,19.79
9:34:57.281250,19.62
9:34:57.296875,19.43
9:34:57.312500,19.27
9:34:57.328125,19.21
9:34:57.343750,19.28
9:34:57.359375,19.31
9:34:57.375000,19.01
9:34:57.390625,18.03
9:34:57.406250,16.18
9:34:57.421875,13.54
9:34:57.437500,10.45
9:34:57.453125,7.31
9:34:57.468750,4.41
9:34:57.484375,1.77
9:34:57.500000,-0.77
9:34:57.515625,-3.47
9:34:57.531250,-6.49
9:34:57.546875,-9.87
9:34:57.562500,-13.58
9:34:57.578125,-17.61
9:34:57.593750,-21.97
9:34:57.609375,-26.55
9:34:57.625000,-30.99
9:34:57.640625,-34.66
9:34:57.656250,-36.80
9:34:57.671875,-36.82
9:34:57.687500,-34.54
9:34:57.703125,-30.26
9:34:57.718750,-24.64
9:34:57.734375,-18.43
9:34:57.750000,-12.19
9:34:57.765625,-6.24
9:34:57.781250,-0.65
9:34:57.796875,4.62
9:34:57.812500,9.58
9:34:57.828125,14.18
9:34:57.843750,18.28
9:34:57.859375,21.68
9:34:57.875000,24.17
9:34:57.890625,25.60
9:34:57.906250,25.97
9:34:57.921875,25.49
9:34:57.937500,24.55
9:34:57.953125,23.56
9:34:57.968750,22.84
9:34:57.984375,22.48
9:34:58,22.43
9:34:58.015625,22.52
9:34:58.031250,22.62
9:34:58.046875,22.67
9:34:58.062500,22.63
9:34:58.078125,22.43
9:34:58.093750,21.98
9:34:58.109375,21.16
9:34:58.125000,19.98
9:34:58.140625,18.46
9:34:58.156250,16.70
9:34:58.171875,14.75
9:34:58.187500,12.58
9:34:58.203125,10.11
9:34:58.218750,7.31
9:34:58.234375,4.23
9:34:58.250000,1.04
9:34:58.265625,-2.06
9:34:58.281250,-4.96
9:34:58.296875,-7.69
9:34:58.312500,-10.41
9:34:58.328125,-13.37
9:34:58.343750,-16.82
9:34:58.359375,-20.83
9:34:58.375000,-25.22
9:34:58.390625,-29.52
9:34:58.406250,-33.08
9:34:58.421875,-35.19
9:34:58.437500,-35.40
9:34:58.453125,-33.60
9:34:58.468750,-30.06
9:34:58.484375,-25.26
9:34:58.500000,-19.71
9:34:58.515625,-13.83
9:34:58.531250,-7.88
9:34:58.546875,-2.03
9:34:58.562500,3.57
9:34:58.578125,8.70
9:34:58.593750,13.16
9:34:58.609375,16.76
9:34:58.625000,19.38
9:34:58.640625,21.02
9:34:58.656250,21.72
9:34:58.671875,21.63
9:34:58.687500,20.93
9:34:58.703125,19.89
9:34:58.718750,18.80
9:34:58.734375,17.96
9:34:58.750000,17.58
9:34:58.765625,17.76
9:34:58.781250,18.49
9:34:58.796875,19.54
9:34:58.812500,20.64
9:34:58.828125,21.45
9:34:58.843750,21.70
9:34:58.859375,21.29
9:34:58.875000,20.28
9:34:58.890625,18.82
9:34:58.906250,17.04
9:34:58.921875,15.03
9:34:58.937500,12.79
9:34:58.953125,10.32
9:34:58.968750,7.70
9:34:58.984375,5.00
9:34:59,2.31
9:34:59.015625,-0.38
9:34:59.031250,-3.15
9:34:59.046875,-6.10
9:34:59.062500,-9.22
9:34:59.078125,-12.44
9:34:59.093750,-15.65
9:34:59.109375,-18.88
9:34:59.125000,-22.24
9:34:59.140625,-25.82
9:34:59.156250,-29.53
9:34:59.171875,-32.95
9:34:59.187500,-35.38
9:34:59.203125,-36.03
9:34:59.218750,-34.41
9:34:59.234375,-30.45
9:34:59.250000,-24.61
9:34:59.265625,-17.70
9:34:59.281250,-10.60
9:34:59.296875,-4.02
9:34:59.312500,1.59
9:34:59.328125,6.15
9:34:59.343750,9.77
9:34:59.359375,12.62
9:34:59.375000,14.82
9:34:59.390625,16.41
9:34:59.406250,17.31
9:34:59.421875,17.52
9:34:59.437500,17.16
9:34:59.453125,16.51
9:34:59.468750,15.95
9:34:59.484375,15.75
9:34:59.500000,16.00
9:34:59.515625,16.51
9:34:59.531250,16.96
9:34:59.546875,17.02
9:34:59.562500,16.56
9:34:59.578125,15.68
9:34:59.593750,14.65
9:34:59.609375,13.76
9:34:59.625000,13.16
9:34:59.640625,12.82
9:34:59.656250,12.50
9:34:59.671875,11.90
9:34:59.687500,10.74
9:34:59.703125,8.85
9:34:59.718750,6.29
9:34:59.734375,3.31
9:34:59.750000,0.24
9:34:59.765625,-2.55
9:34:59.781250,-4.86
9:34:59.796875,-6.69
9:34:59.812500,-8.29
9:34:59.828125,-10.00
9:34:59.843750,-12.15
9:34:59.859375,-14.92
9:34:59.875000,-18.28
9:34:59.890625,-21.97
9:34:59.906250,-25.56
9:34:59.921875,-28.53
9:34:59.937500,-30.36
9:34:59.953125,-30.61
9:34:59.968750,-29.06
9:34:59.984375,-25.79
9:35:00,-21.18
9:35:00.015625,-15.79
9:35:00.031250,-10.28
9:35:00.046875,-5.13
9:35:00.062500,-0.62
9:35:00.078125,3.25
9:35:00.093750,6.62
9:35:00.109375,9.64
9:35:00.125000,12.33
9:35:00.140625,14.57
9:35:00.156250,16.19
9:35:00.171875,17.02
9:35:00.187500,17.09
9:35:00.203125,16.59
9:35:00.218750,15.84
9:35:00.234375,15.16
9:35:00.250000,14.75
9:35:00.265625,14.67
9:35:00.281250,14.88
9:35:00.296875,15.28
9:35:00.312500,15.81
9:35:00.328125,16.41
9:35:00.343750,16.97
9:35:00.359375,17.33
9:35:00.375000,17.31
9:35:00.390625,16.73
9:35:00.406250,15.58
9:35:00.421875,13.97
9:35:00.437500,12.13
9:35:00.453125,10.24
9:35:00.468750,8.35
9:35:00.484375,6.34
9:35:00.500000,4.03
9:35:00.515625,1.28
9:35:00.531250,-1.84
9:35:00.546875,-5.08
9:35:00.562500,-8.11
9:35:00.578125,-10.71
9:35:00.593750,-12.87
9:35:00.609375,-14.80
9:35:00.625000,-16.79
9:35:00.640625,-19.07
9:35:00.656250,-21.78
9:35:00.671875,-24.94
9:35:00.687500,-28.44
9:35:00.703125,-32.11
9:35:00.718750,-35.56
9:35:00.734375,-38.25
9:35:00.750000,-39.51
9:35:00.765625,-38.79
9:35:00.781250,-35.91
9:35:00.796875,-31.19
9:35:00.812500,-25.34
9:35:00.828125,-19.18
9:35:00.843750,-13.32
9:35:00.859375,-8.02
9:35:00.875000,-3.19
9:35:00.890625,1.31
9:35:00.906250,5.52
9:35:00.921875,9.28
9:35:00.937500,12.28
9:35:00.953125,14.36
9:35:00.968750,15.57
9:35:00.984375,16.15
9:35:01,16.43
9:35:01.015625,16.68
9:35:01.031250,17.00
9:35:01.046875,17.34
9:35:01.062500,17.61
9:35:01.078125,17.76
9:35:01.093750,17.87
9:35:01.109375,18.04
9:35:01.125000,18.33
9:35:01.140625,18.69
9:35:01.156250,18.99
9:35:01.171875,19.03
9:35:01.187500,18.66
9:35:01.203125,17.85
9:35:01.218750,16.68
9:35:01.234375,15.27
9:35:01.250000,13.71
9:35:01.265625,12.03
9:35:01.281250,10.24
9:35:01.296875,8.27
9:35:01.312500,6.10
9:35:01.328125,3.72
9:35:01.343750,1.16
9:35:01.359375,-1.48
9:35:01.375000,-4.08
9:35:01.390625,-6.56
9:35:01.406250,-8.84
9:35:01.421875,-10.92
9:35:01.437500,-12.94
9:35:01.453125,-15.12
9:35:01.468750,-17.71
9:35:01.484375,-20.90
9:35:01.500000,-24.74
9:35:01.515625,-29.00
9:35:01.531250,-33.26
9:35:01.546875,-36.93
9:35:01.562500,-39.42
9:35:01.578125,-40.18
9:35:01.593750,-38.95
9:35:01.609375,-35.75
9:35:01.625000,-30.99
9:35:01.640625,-25.29
9:35:01.656250,-19.38
9:35:01.671875,-13.78
9:35:01.687500,-8.78
9:35:01.703125,-4.35
9:35:01.718750,-0.31
9:35:01.734375,3.44
9:35:01.750000,6.84
9:35:01.765625,9.68
9:35:01.781250,11.72
9:35:01.796875,12.91
9:35:01.812500,13.45
9:35:01.828125,13.70
9:35:01.843750,14.03
9:35:01.859375,14.58
9:35:01.875000,15.31
9:35:01.890625,16.01
9:35:01.906250,16.50
9:35:01.921875,16.76
9:35:01.937500,16.89
9:35:01.953125,17.07
9:35:01.968750,17.39
9:35:01.984375,17.83
9:35:02,18.24
9:35:02.015625,18.39
9:35:02.031250,18.07
9:35:02.046875,17.19
9:35:02.062500,15.74
9:35:02.078125,13.82
9:35:02.093750,11.60
9:35:02.109375,9.21
9:35:02.125000,6.76
9:35:02.140625,4.28
9:35:02.156250,1.79
9:35:02.171875,-0.66
9:35:02.187500,-3.02
9:35:02.203125,-5.20
9:35:02.218750,-7.23
9:35:02.234375,-9.15
9:35:02.250000,-11.10
9:35:02.265625,-13.21
9:35:02.281250,-15.55
9:35:02.296875,-18.20
9:35:02.312500,-21.22
9:35:02.328125,-24.66
9:35:02.343750,-28.49
9:35:02.359375,-32.52
9:35:02.375000,-36.36
9:35:02.390625,-39.40
9:35:02.406250,-40.98
9:35:02.421875,-40.59
9:35:02.437500,-38.04
9:35:02.453125,-33.54
9:35:02.468750,-27.67
9:35:02.484375,-21.15
9:35:02.500000,-14.69
9:35:02.515625,-8.79
9:35:02.531250,-3.68
9:35:02.546875,0.68
9:35:02.562500,4.43
9:35:02.578125,7.73
9:35:02.593750,10.57
9:35:02.609375,12.82
9:35:02.625000,14.30
9:35:02.640625,14.94
9:35:02.656250,14.87
9:35:02.671875,14.44
9:35:02.687500,14.03
9:35:02.703125,13.96
9:35:02.718750,14.31
9:35:02.734375,14.97
9:35:02.750000,15.68
9:35:02.765625,16.20
9:35:02.781250,16.41
9:35:02.796875,16.30
9:35:02.812500,15.98
9:35:02.828125,15.55
9:35:02.843750,15.04
9:35:02.859375,14.39
9:35:02.875000,13.52
9:35:02.890625,12.24
9:35:02.906250,10.44
9:35:02.921875,8.07
9:35:02.937500,5.21
9:35:02.953125,2.05
9:35:02.968750,-1.12
9:35:02.984375,-4.02
9:35:03,-6.56
9:35:03.015625,-8.80
9:35:03.031250,-11.02
9:35:03.046875,-13.57
9:35:03.062500,-16.76
9:35:03.078125,-20.70
9:35:03.093750,-25.28
9:35:03.109375,-30.10
9:35:03.125000,-34.59
9:35:03.140625,-38.09
9:35:03.156250,-40.03
9:35:03.171875,-40.04
9:35:03.187500,-38.08
9:35:03.203125,-34.35
9:35:03.218750,-29.30
9:35:03.234375,-23.43
9:35:03.250000,-17.19
9:35:03.265625,-10.89
9:35:03.281250,-4.75
9:35:03.296875,1.04
9:35:03.312500,6.28
9:35:03.328125,10.65
9:35:03.343750,13.84
9:35:03.359375,15.59
9:35:03.375000,15.71
9:35:03.390625,14.29
9:35:03.406250,11.74
9:35:03.421875,8.89
9:35:03.437500,6.83
9:35:03.453125,6.56
9:35:03.468750,8.47
9:35:03.484375,12.13
9:35:03.500000,16.38
9:35:03.515625,19.80
9:35:03.531250,21.32
9:35:03.546875,20.61
9:35:03.562500,18.14
9:35:03.578125,14.81
9:35:03.593750,11.50
9:35:03.609375,8.69
9:35:03.625000,6.43
9:35:03.640625,4.61
9:35:03.656250,3.15
9:35:03.671875,2.09
9:35:03.687500,1.45
9:35:03.703125,0.98
9:35:03.718750,0.13
9:35:03.734375,-1.84
9:35:03.750000,-5.47
9:35:03.765625,-10.85
9:35:03.781250,-17.51
9:35:03.796875,-24.56
9:35:03.812500,-30.90
9:35:03.828125,-35.62
9:35:03.843750,-38.16
9:35:03.859375,-38.38
9:35:03.875000,-36.42
9:35:03.890625,-32.65
9:35:03.906250,-27.57
9:35:03.921875,-21.71
9:35:03.937500,-15.57
9:35:03.953125,-9.55
9:35:03.968750,-3.89
9:35:03.984375,1.31
9:35:04,6.01
9:35:04.015625,10.19
9:35:04.031250,13.69
9:35:04.046875,16.37
9:35:04.062500,18.13
9:35:04.078125,19.04
9:35:04.093750,19.30
9:35:04.109375,19.18
9:35:04.125000,18.93
9:35:04.140625,18.70
9:35:04.156250,18.55
9:35:04.171875,18.45
9:35:04.187500,18.37
9:35:04.203125,18.29
9:35:04.218750,18.22
9:35:04.234375,18.15
9:35:04.250000,18.06
9:35:04.265625,17.87
9:35:04.281250,17.45
9:35:04.296875,16.65
9:35:04.312500,15.43
9:35:04.328125,13.87
9:35:04.343750,12.11
9:35:04.359375,10.27
9:35:04.375000,8.35
9:35:04.390625,6.20
9:35:04.406250,3.57
9:35:04.421875,0.27
9:35:04.437500,-3.89
9:35:04.453125,-8.90
9:35:04.468750,-14.73
9:35:04.484375,-21.22
9:35:04.500000,-28.01
9:35:04.515625,-34.49
9:35:04.531250,-39.80
9:35:04.546875,-43.01
9:35:04.562500,-43.44
9:35:04.578125,-40.98
9:35:04.593750,-36.08
9:35:04.609375,-29.63
9:35:04.625000,-22.56
9:35:04.640625,-15.55
9:35:04.656250,-8.89
9:35:04.671875,-2.61
9:35:04.687500,3.30
9:35:04.703125,8.73
9:35:04.718750,13.43
9:35:04.734375,17.13
9:35:04.750000,19.67
9:35:04.765625,21.15
9:35:04.781250,21.84
9:35:04.796875,22.10
9:35:04.812500,22.22
9:35:04.828125,22.34
9:35:04.843750,22.44
9:35:04.859375,22.41
9:35:04.875000,22.20
9:35:04.890625,21.81
9:35:04.906250,21.38
9:35:04.921875,21.08
9:35:04.937500,21.01
9:35:04.953125,21.08
9:35:04.968750,21.06
9:35:04.984375,20.61
9:35:05,19.49
9:35:05.015625,17.66
9:35:05.031250,15.24
9:35:05.046875,12.47
9:35:05.062500,9.52
9:35:05.078125,6.47
9:35:05.093750,3.30
9:35:05.109375,-0.04
9:35:05.125000,-3.60
9:35:05.140625,-7.42
9:35:05.156250,-11.53
9:35:05.171875,-16.02
9:35:05.187500,-20.94
9:35:05.203125,-26.21
9:35:05.218750,-31.51
9:35:05.234375,-36.21
9:35:05.250000,-39.53
9:35:05.265625,-40.69
9:35:05.281250,-39.24
9:35:05.296875,-35.18
9:35:05.312500,-28.96
9:35:05.328125,-21.34
9:35:05.343750,-13.14
9:35:05.359375,-5.05
9:35:05.375000,2.46
9:35:05.390625,9.19
9:35:05.406250,15.05
9:35:05.421875,20.06
9:35:05.437500,24.26
9:35:05.453125,27.64
9:35:05.468750,30.21
9:35:05.484375,31.95
9:35:05.500000,32.87
9:35:05.515625,33.07
9:35:05.531250,32.74
9:35:05.546875,32.13
9:35:05.562500,31.45
9:35:05.578125,30.82
9:35:05.593750,30.26
9:35:05.609375,29.72
9:35:05.625000,29.23
9:35:05.640625,28.85
9:35:05.656250,28.66
9:35:05.671875,28.68
9:35:05.687500,28.74
9:35:05.703125,28.61
9:35:05.718750,28.03
9:35:05.734375,26.86
9:35:05.750000,25.07
9:35:05.765625,22.69
9:35:05.781250,19.74
9:35:05.796875,16.22
9:35:05.812500,12.19
9:35:05.828125,7.81
9:35:05.843750,3.35
9:35:05.859375,-0.86
9:35:05.875000,-4.64
9:35:05.890625,-7.98
9:35:05.906250,-11.08
9:35:05.921875,-14.20
9:35:05.937500,-17.57
9:35:05.953125,-21.37
9:35:05.968750,-25.62
9:35:05.984375,-30.24
9:35:06,-34.91
9:35:06.015625,-39.13
9:35:06.031250,-42.14
9:35:06.046875,-43.22
9:35:06.062500,-41.82
9:35:06.078125,-37.91
9:35:06.093750,-31.91
9:35:06.109375,-24.59
9:35:06.125000,-16.79
9:35:06.140625,-9.10
9:35:06.156250,-1.90
9:35:06.171875,4.70
9:35:06.187500,10.65
9:35:06.203125,15.85
9:35:06.218750,20.17
9:35:06.234375,23.49
9:35:06.250000,25.75
9:35:06.265625,27.01
9:35:06.281250,27.45
9:35:06.296875,27.30
9:35:06.312500,26.87
9:35:06.328125,26.47
9:35:06.343750,26.34
9:35:06.359375,26.55
9:35:06.375000,27.05
9:35:06.390625,27.64
9:35:06.406250,28.11
9:35:06.421875,28.35
9:35:06.437500,28.30
9:35:06.453125,27.98
9:35:06.468750,27.38
9:35:06.484375,26.43
9:35:06.500000,25.04
9:35:06.515625,23.14
9:35:06.531250,20.75
9:35:06.546875,17.94
9:35:06.562500,14.81
9:35:06.578125,11.44
9:35:06.593750,7.91
9:35:06.609375,4.29
9:35:06.625000,0.72
9:35:06.640625,-2.68
9:35:06.656250,-5.79
9:35:06.671875,-8.58
9:35:06.687500,-11.19
9:35:06.703125,-13.83
9:35:06.718750,-16.80
9:35:06.734375,-20.35
9:35:06.750000,-24.50
9:35:06.765625,-29.01
9:35:06.781250,-33.31
9:35:06.796875,-36.65
9:35:06.812500,-38.26
9:35:06.828125,-37.61
9:35:06.843750,-34.59
9:35:06.859375,-29.55
9:35:06.875000,-23.11
9:35:06.890625,-16.06
9:35:06.906250,-9.01
9:35:06.921875,-2.37
9:35:06.937500,3.69
9:35:06.953125,9.12
9:35:06.968750,13.87
9:35:06.984375,17.83
9:35:07,20.87
9:35:07.015625,22.89
9:35:07.031250,23.92
9:35:07.046875,24.14
9:35:07.062500,23.84
9:35:07.078125,23.33
9:35:07.093750,22.89
9:35:07.109375,22.64
9:35:07.125000,22.62
9:35:07.140625,22.80
9:35:07.156250,23.11
9:35:07.171875,23.47
9:35:07.187500,23.81
9:35:07.203125,24.06
9:35:07.218750,24.15
9:35:07.234375,23.98
9:35:07.250000,23.48
9:35:07.265625,22.53
9:35:07.281250,21.02
9:35:07.296875,18.86
9:35:07.312500,16.10
9:35:07.328125,12.86
9:35:07.343750,9.38
9:35:07.359375,5.87
9:35:07.375000,2.50
9:35:07.390625,-0.74
9:35:07.406250,-3.88
9:35:07.421875,-6.98
9:35:07.437500,-10.04
9:35:07.453125,-13.03
9:35:07.468750,-16.04
9:35:07.484375,-19.23
9:35:07.500000,-22.84
9:35:07.515625,-27.03
9:35:07.531250,-31.66
9:35:07.546875,-36.23
9:35:07.562500,-39.94
9:35:07.578125,-41.97
9:35:07.593750,-41.70
9:35:07.609375,-38.97
9:35:07.625000,-34.07
9:35:07.640625,-27.69
9:35:07.656250,-20.63
9:35:07.671875,-13.60
9:35:07.687500,-7.11
9:35:07.703125,-1.39
9:35:07.718750,3.52
9:35:07.734375,7.67
9:35:07.750000,11.14
9:35:07.765625,13.96
9:35:07.781250,16.16
9:35:07.796875,17.76
9:35:07.812500,18.87
9:35:07.828125,19.63
9:35:07.843750,20.23
9:35:07.859375,20.82
9:35:07.875000,21.53
9:35:07.890625,22.45
9:35:07.906250,23.59
9:35:07.921875,24.87
9:35:07.937500,26.09
9:35:07.953125,27.05
9:35:07.968750,27.53
9:35:07.984375,27.47
9:35:08,26.94
9:35:08.015625,26.11
9:35:08.031250,25.16
9:35:08.046875,24.15
9:35:08.062500,23.00
9:35:08.078125,21.53
9:35:08.093750,19.68
9:35:08.109375,17.48
9:35:08.125000,15.09
9:35:08.140625,12.70
9:35:08.156250,10.37
9:35:08.171875,8.04
9:35:08.187500,5.56
9:35:08.203125,2.83
9:35:08.218750,-0.18
9:35:08.234375,-3.32
9:35:08.250000,-6.37
9:35:08.265625,-9.12
9:35:08.281250,-11.45
9:35:08.296875,-13.39
9:35:08.312500,-15.12
9:35:08.328125,-16.86
9:35:08.343750,-18.85
9:35:08.359375,-21.29
9:35:08.375000,-24.31
9:35:08.390625,-28.01
9:35:08.406250,-32.32
9:35:08.421875,-37.02
9:35:08.437500,-41.61
9:35:08.453125,-45.36
9:35:08.468750,-47.52
9:35:08.484375,-47.56
9:35:08.500000,-45.31
9:35:08.515625,-41.08
9:35:08.531250,-35.47
9:35:08.546875,-29.15
9:35:08.562500,-22.63
9:35:08.578125,-16.27
9:35:08.593750,-10.29
9:35:08.609375,-4.90
9:35:08.625000,-0.26
9:35:08.640625,3.51
9:35:08.656250,6.45
9:35:08.671875,8.77
9:35:08.687500,10.65
9:35:08.703125,12.22
9:35:08.718750,13.49
9:35:08.734375,14.40
9:35:08.750000,15.00
9:35:08.765625,15.45
9:35:08.781250,15.96
9:35:08.796875,16.70
9:35:08.812500,17.68
9:35:08.828125,18.77
9:35:08.843750,19.83
9:35:08.859375,20.75
9:35:08.875000,21.52
9:35:08.890625,22.13
9:35:08.906250,22.51
9:35:08.921875,22.43
9:35:08.937500,21.69
9:35:08.953125,20.23
9:35:08.968750,18.18
9:35:08.984375,15.84
9:35:09,13.53
9:35:09.015625,11.47
9:35:09.031250,9.65
9:35:09.046875,7.93
9:35:09.062500,6.12
9:35:09.078125,4.11
9:35:09.093750,1.84
9:35:09.109375,-0.69
9:35:09.125000,-3.48
9:35:09.140625,-6.53
9:35:09.156250,-9.80
9:35:09.171875,-13.12
9:35:09.187500,-16.25
9:35:09.203125,-19.04
9:35:09.218750,-21.52
9:35:09.234375,-23.98
9:35:09.250000,-26.76
9:35:09.265625,-30.06
9:35:09.281250,-33.61
9:35:09.296875,-36.73
9:35:09.312500,-38.55
9:35:09.328125,-38.37
9:35:09.343750,-36.00
9:35:09.359375,-31.78
9:35:09.375000,-26.44
9:35:09.390625,-20.72
9:35:09.406250,-15.17
9:35:09.421875,-10.03
9:35:09.437500,-5.33
9:35:09.453125,-1.03
9:35:09.468750,2.80
9:35:09.484375,6.00
9:35:09.500000,8.40
9:35:09.515625,9.89
9:35:09.531250,10.55
9:35:09.546875,10.63
9:35:09.562500,10.43
9:35:09.578125,10.24
9:35:09.593750,10.24
9:35:09.609375,10.45
9:35:09.625000,10.84
9:35:09.640625,11.30
9:35:09.656250,11.80
9:35:09.671875,12.33
9:35:09.687500,12.91
9:35:09.703125,13.49
9:35:09.718750,13.98
9:35:09.734375,14.21
9:35:09.750000,14.04
9:35:09.765625,13.44
9:35:09.781250,12.47
9:35:09.796875,11.24
9:35:09.812500,9.80
9:35:09.828125,8.09
9:35:09.843750,5.99
9:35:09.859375,3.44
9:35:09.875000,0.48
9:35:09.890625,-2.67
9:35:09.906250,-5.73
9:35:09.921875,-8.50
9:35:09.937500,-10.89
9:35:09.953125,-12.98
9:35:09.968750,-14.96
9:35:09.984375,-17.02
9:35:10,-19.30
9:35:10.015625,-21.85
9:35:10.031250,-24.57
9:35:10.046875,-27.28
9:35:10.062500,-29.72
9:35:10.078125,-31.50
9:35:10.093750,-32.25
9:35:10.109375,-31.66
9:35:10.125000,-29.62
9:35:10.140625,-26.20
9:35:10.156250,-21.73
9:35:10.171875,-16.69
9:35:10.187500,-11.55
9:35:10.203125,-6.73
9:35:10.218750,-2.48
9:35:10.234375,1.15
9:35:10.250000,4.24
9:35:10.265625,6.93
9:35:10.281250,9.28
9:35:10.296875,11.25
9:35:10.312500,12.71
9:35:10.328125,13.56
9:35:10.343750,13.79
9:35:10.359375,13.56
9:35:10.375000,13.09
9:35:10.390625,12.63
9:35:10.406250,12.31
9:35:10.421875,12.15
9:35:10.437500,12.13
9:35:10.453125,12.21
9:35:10.468750,12.41
9:35:10.484375,12.74
9:35:10.500000,13.16
9:35:10.515625,13.54
9:35:10.531250,13.67
9:35:10.546875,13.33
9:35:10.562500,12.36
9:35:10.578125,10.75
9:35:10.593750,8.62
9:35:10.609375,6.13
9:35:10.625000,3.46
9:35:10.640625,0.73
9:35:10.656250,-1.99
9:35:10.671875,-4.64
9:35:10.687500,-7.18
9:35:10.703125,-9.60
9:35:10.718750,-11.92
9:35:10.734375,-14.27
9:35:10.750000,-16.81
9:35:10.765625,-19.72
9:35:10.781250,-23.06
9:35:10.796875,-26.70
9:35:10.812500,-30.28
9:35:10.828125,-33.28
9:35:10.843750,-35.12
9:35:10.859375,-35.33
9:35:10.875000,-33.76
9:35:10.890625,-30.59
9:35:10.906250,-26.28
9:35:10.921875,-21.42
9:35:10.937500,-16.54
9:35:10.953125,-11.95
9:35:10.968750,-7.67
9:35:10.984375,-3.53
9:35:11,0.63
9:35:11.015625,4.84
9:35:11.031250,8.85
9:35:11.046875,12.24
9:35:11.062500,14.55
9:35:11.078125,15.48
9:35:11.093750,15.11
9:35:11.109375,13.87
9:35:11.125000,12.44
9:35:11.140625,11.51
9:35:11.156250,11.50
9:35:11.171875,12.48
9:35:11.187500,14.17
9:35:11.203125,16.17
9:35:11.218750,18.07
9:35:11.234375,19.61
9:35:11.250000,20.63
9:35:11.265625,20.97
9:35:11.281250,20.53
9:35:11.296875,19.25
9:35:11.312500,17.19
9:35:11.328125,14.61
9:35:11.343750,11.84
9:35:11.359375,9.22
9:35:11.375000,6.90
9:35:11.390625,4.81
9:35:11.406250,2.74
9:35:11.421875,0.48
9:35:11.437500,-2.04
9:35:11.453125,-4.68
9:35:11.468750,-7.18
9:35:11.484375,-9.29
9:35:11.500000,-10.92
9:35:11.515625,-12.19
9:35:11.531250,-13.40
9:35:11.546875,-14.99
9:35:11.562500,-17.37
9:35:11.578125,-20.79
9:35:11.593750,-25.26
9:35:11.609375,-30.42
9:35:11.625000,-35.59
9:35:11.640625,-39.95
9:35:11.656250,-42.75
9:35:11.671875,-43.47
9:35:11.687500,-41.98
9:35:11.703125,-38.51
9:35:11.718750,-33.53
9:35:11.734375,-27.62
9:35:11.750000,-21.31
9:35:11.765625,-15.09
9:35:11.781250,-9.30
9:35:11.796875,-4.18
9:35:11.812500,0.20
9:35:11.828125,3.92
9:35:11.843750,7.17
9:35:11.859375,10.14
9:35:11.875000,12.86
9:35:11.890625,15.16
9:35:11.906250,16.75
9:35:11.921875,17.38
9:35:11.937500,16.98
9:35:11.953125,15.77
9:35:11.968750,14.18
9:35:11.984375,12.69
9:35:12,11.72
9:35:12.015625,11.51
9:35:12.031250,12.17
9:35:12.046875,13.64
9:35:12.062500,15.68
9:35:12.078125,17.94
9:35:12.093750,19.98
9:35:12.109375,21.34
9:35:12.125000,21.75
9:35:12.140625,21.12
9:35:12.156250,19.60
9:35:12.171875,17.45
9:35:12.187500,14.95
9:35:12.203125,12.26
9:35:12.218750,9.41
9:35:12.234375,6.38
9:35:12.250000,3.13
9:35:12.265625,-0.26
9:35:12.281250,-3.68
9:35:12.296875,-7.05
9:35:12.312500,-10.33
9:35:12.328125,-13.58
9:35:12.343750,-16.85
9:35:12.359375,-20.11
9:35:12.375000,-23.24
9:35:12.390625,-26.11
9:35:12.406250,-28.65
9:35:12.421875,-30.88
9:35:12.437500,-32.82
9:35:12.453125,-34.41
9:35:12.468750,-35.39
9:35:12.484375,-35.34
9:35:12.500000,-33.84
9:35:12.515625,-30.72
9:35:12.531250,-26.16
9:35:12.546875,-20.70
9:35:12.562500,-14.95
9:35:12.578125,-9.35
9:35:12.593750,-4.03
9:35:12.609375,1.07
9:35:12.625000,6.01
9:35:12.640625,10.61
9:35:12.656250,14.48
9:35:12.671875,17.16
9:35:12.687500,18.42
9:35:12.703125,18.36
9:35:12.718750,17.43
9:35:12.734375,16.18
9:35:12.750000,15.07
9:35:12.765625,14.34
9:35:12.781250,14.13
9:35:12.796875,14.63
9:35:12.812500,16.08
9:35:12.828125,18.70
9:35:12.843750,22.41
9:35:12.859375,26.75
9:35:12.875000,30.88
9:35:12.890625,33.93
9:35:12.906250,35.35
9:35:12.921875,35.13
9:35:12.937500,33.65
9:35:12.953125,31.44
9:35:12.968750,28.86
9:35:12.984375,26.00
9:35:13,22.83
9:35:13.015625,19.33
9:35:13.031250,15.61
9:35:13.046875,11.82
9:35:13.062500,7.99
9:35:13.078125,3.95
9:35:13.093750,-0.59
9:35:13.109375,-5.85
9:35:13.125000,-11.81
9:35:13.140625,-18.17
9:35:13.156250,-24.46
9:35:13.171875,-30.27
9:35:13.187500,-35.24
9:35:13.203125,-39.12
9:35:13.218750,-41.62
9:35:13.234375,-42.41
9:35:13.250000,-41.25
9:35:13.265625,-38.08
9:35:13.281250,-33.17
9:35:13.296875,-27.00
9:35:13.312500,-20.14
9:35:13.328125,-13.06
9:35:13.343750,-6.07
9:35:13.359375,0.61
9:35:13.375000,6.76
9:35:13.390625,12.06
9:35:13.406250,16.26
9:35:13.421875,19.32
9:35:13.437500,21.61
9:35:13.453125,23.88
9:35:13.468750,27.04
9:35:13.484375,31.71
9:35:13.500000,37.94
9:35:13.515625,45.04
9:35:13.531250,51.78
9:35:13.546875,57.01
9:35:13.562500,60.09
9:35:13.578125,61.25
9:35:13.593750,61.52
9:35:13.609375,62.22
9:35:13.625000,64.31
9:35:13.640625,67.92
9:35:13.656250,72.34
9:35:13.671875,76.40
9:35:13.687500,79.08
9:35:13.703125,79.86
9:35:13.718750,78.60
9:35:13.734375,75.16
9:35:13.750000,68.97
9:35:13.765625,58.84
9:35:13.781250,43.23
9:35:13.796875,20.77
9:35:13.812500,-9.38
9:35:13.828125,-47.32
9:35:13.843750,-92.42
9:35:13.859375,-142.91
9:35:13.875000,-195.47
9:35:13.890625,-244.82
9:35:13.906250,-284.27
9:35:13.921875,-307.35
9:35:13.937500,-310.01
9:35:13.953125,-292.51
9:35:13.968750,-259.93
9:35:13.984375,-220.86
9:35:14,-184.69
9:35:14.015625,-158.56
9:35:14.031250,-145.25
9:35:14.046875,-142.60
9:35:14.062500,-144.80
9:35:14.078125,-144.69
9:35:14.093750,-136.26
9:35:14.109375,-116.54
9:35:14.125000,-86.14
9:35:14.140625,-48.57
9:35:14.156250,-8.80
9:35:14.171875,28.39
9:35:14.187500,59.72
9:35:14.203125,83.68
9:35:14.218750,100.20
9:35:14.234375,109.88
9:35:14.250000,113.55
9:35:14.265625,112.18
9:35:14.281250,107.24
9:35:14.296875,101.05
9:35:14.312500,96.67
9:35:14.328125,97.21
9:35:14.343750,104.53
9:35:14.359375,118.23
9:35:14.375000,135.31
9:35:14.390625,151.23
9:35:14.406250,161.77
9:35:14.421875,164.93
9:35:14.437500,161.62
9:35:14.453125,154.55
9:35:14.468750,146.07
9:35:14.484375,136.30
9:35:14.500000,123.09
9:35:14.515625,103.86
9:35:14.531250,78.17
9:35:14.546875,49.22
9:35:14.562500,22.93
9:35:14.578125,5.25
9:35:14.593750,-0.96
9:35:14.609375,2.60
9:35:14.625000,10.64
9:35:14.640625,16.90
9:35:14.656250,16.98
9:35:14.671875,9.71
9:35:14.687500,-3.22
9:35:14.703125,-18.86
9:35:14.718750,-34.60
9:35:14.734375,-48.93
9:35:14.750000,-61.29
9:35:14.765625,-71.50
9:35:14.781250,-79.28
9:35:14.796875,-84.15
9:35:14.812500,-85.73
9:35:14.828125,-83.89
9:35:14.843750,-78.92
9:35:14.859375,-71.47
9:35:14.875000,-62.45
9:35:14.890625,-52.73
9:35:14.906250,-42.94
9:35:14.921875,-33.17
9:35:14.937500,-22.95
9:35:14.953125,-11.47
9:35:14.968750,1.90
9:35:14.984375,17.06
9:35:15,32.95
9:35:15.015625,47.83
9:35:15.031250,59.93
9:35:15.046875,68.19
9:35:15.062500,72.53
9:35:15.078125,73.68
9:35:15.093750,72.57
9:35:15.109375,69.92
9:35:15.125000,66.07
9:35:15.140625,61.13
9:35:15.156250,55.32
9:35:15.171875,49.05
9:35:15.187500,42.83
9:35:15.203125,37.09
9:35:15.218750,32.02
9:35:15.234375,27.69
9:35:15.250000,24.19
9:35:15.265625,21.57
9:35:15.281250,19.72
9:35:15.296875,18.23
9:35:15.312500,16.44
9:35:15.328125,13.77
9:35:15.343750,10.13
9:35:15.359375,6.06
9:35:15.375000,2.58
9:35:15.390625,0.61
9:35:15.406250,0.42
9:35:15.421875,1.49
9:35:15.437500,2.75
9:35:15.453125,3.08
9:35:15.468750,1.92
9:35:15.484375,-0.57
9:35:15.500000,-3.58
9:35:15.515625,-6.04
9:35:15.531250,-7.10
9:35:15.546875,-6.25
9:35:15.562500,-3.40
9:35:15.578125,1.30
9:35:15.593750,7.59
9:35:15.609375,15.26
9:35:15.625000,24.11
9:35:15.640625,34.00
9:35:15.656250,44.71
9:35:15.671875,55.87
9:35:15.687500,66.85
9:35:15.703125,76.77
9:35:15.718750,84.70
9:35:15.734375,89.86
9:35:15.750000,91.79
9:35:15.765625,90.45
9:35:15.781250,85.99
9:35:15.796875,78.69
9:35:15.812500,68.84
9:35:15.828125,56.84
9:35:15.843750,43.38
9:35:15.859375,29.47
9:35:15.875000,16.33
9:35:15.890625,5.03
9:35:15.906250,-3.84
9:35:15.921875,-10.31
9:35:15.937500,-14.85
9:35:15.953125,-18.18
9:35:15.968750,-20.93
9:35:15.984375,-23.63
9:35:16,-26.77
9:35:16.015625,-30.74
9:35:16.031250,-35.81
9:35:16.046875,-41.81
9:35:16.062500,-48.08
9:35:16.078125,-53.61
9:35:16.093750,-57.45
9:35:16.109375,-59.19
9:35:16.125000,-59.09
9:35:16.140625,-57.95
9:35:16.156250,-56.58
9:35:16.171875,-55.42
9:35:16.187500,-54.37
9:35:16.203125,-53.07
9:35:16.218750,-51.35
9:35:16.234375,-49.51
9:35:16.250000,-48.35
9:35:16.265625,-48.73
9:35:16.281250,-51.19
9:35:16.296875,-55.52
9:35:16.312500,-60.74
9:35:16.328125,-65.34
9:35:16.343750,-67.76
9:35:16.359375,-66.89
9:35:16.375000,-62.36
9:35:16.390625,-54.69
9:35:16.406250,-45.06
9:35:16.421875,-34.86
9:35:16.437500,-25.28
9:35:16.453125,-16.95
9:35:16.468750,-9.95
9:35:16.484375,-4.02
9:35:16.500000,1.05
9:35:16.515625,5.21
9:35:16.531250,8.20
9:35:16.546875,9.83
9:35:16.562500,10.25
9:35:16.578125,9.96
9:35:16.593750,9.64
9:35:16.609375,9.84
9:35:16.625000,10.69
9:35:16.640625,11.95
9:35:16.656250,13.14
9:35:16.671875,13.80
9:35:16.687500,13.62
9:35:16.703125,12.51
9:35:16.718750,10.58
9:35:16.734375,8.08
9:35:16.750000,5.47
9:35:16.765625,3.31
9:35:16.781250,2.13
9:35:16.796875,2.15
9:35:16.812500,3.12
9:35:16.828125,4.32
9:35:16.843750,4.83
9:35:16.859375,3.94
9:35:16.875000,1.48
9:35:16.890625,-2.12
9:35:16.906250,-6.14
9:35:16.921875,-9.88
9:35:16.937500,-13.01
9:35:16.953125,-15.63
9:35:16.968750,-18.06
9:35:16.984375,-20.67
9:35:17,-23.63
9:35:17.015625,-27.07
9:35:17.031250,-31.07
9:35:17.046875,-35.85
9:35:17.062500,-41.62
9:35:17.078125,-48.36
9:35:17.093750,-55.56
9:35:17.109375,-62.10
9:35:17.125000,-66.45
9:35:17.140625,-67.09
9:35:17.156250,-63.10
9:35:17.171875,-54.45
9:35:17.187500,-42.18
9:35:17.203125,-28.03
9:35:17.218750,-13.90
9:35:17.234375,-1.30
9:35:17.250000,9.06
9:35:17.265625,17.27
9:35:17.281250,23.93
9:35:17.296875,29.74
9:35:17.312500,35.08
9:35:17.328125,39.90
9:35:17.343750,43.79
9:35:17.359375,46.33
9:35:17.375000,47.38
9:35:17.390625,47.15
9:35:17.406250,46.16
9:35:17.421875,44.91
9:35:17.437500,43.71
9:35:17.453125,42.55
9:35:17.468750,41.21
9:35:17.484375,39.51
9:35:17.500000,37.43
9:35:17.515625,35.09
9:35:17.531250,32.61
9:35:17.546875,29.89
9:35:17.562500,26.59
9:35:17.578125,22.31
9:35:17.593750,16.83
9:35:17.609375,10.40
9:35:17.625000,3.64
9:35:17.640625,-2.73
9:35:17.656250,-8.36
9:35:17.671875,-13.44
9:35:17.687500,-18.69
9:35:17.703125,-24.94
9:35:17.718750,-32.71
9:35:17.734375,-41.91
9:35:17.750000,-51.87
9:35:17.765625,-61.68
9:35:17.781250,-70.67
9:35:17.796875,-78.63
9:35:17.812500,-85.99
9:35:17.828125,-93.57
9:35:17.843750,-102.17
9:35:17.859375,-112.00
9:35:17.875000,-122.25
9:35:17.890625,-130.85
9:35:17.906250,-134.73
9:35:17.921875,-130.68
9:35:17.937500,-116.53
9:35:17.953125,-92.17
9:35:17.968750,-59.89
9:35:17.984375,-23.80
9:35:18,11.38
9:35:18.015625,41.72
9:35:18.031250,64.98
9:35:18.046875,80.73
9:35:18.062500,89.91
9:35:18.078125,94.12
9:35:18.093750,95.10
9:35:18.109375,94.42
9:35:18.125000,93.35
9:35:18.140625,92.65
9:35:18.156250,92.42
9:35:18.171875,92.16
9:35:18.187500,91.04
9:35:18.203125,88.45
9:35:18.218750,84.42
9:35:18.234375,79.64
9:35:18.250000,75.09
9:35:18.265625,71.53
9:35:18.281250,69.17
9:35:18.296875,67.71
9:35:18.312500,66.70
9:35:18.328125,65.81
9:35:18.343750,64.91
9:35:18.359375,63.83
9:35:18.375000,62.16
9:35:18.390625,59.28
9:35:18.406250,54.60
9:35:18.421875,47.95
9:35:18.437500,39.76
9:35:18.453125,30.94
9:35:18.468750,22.47
9:35:18.484375,15.02
9:35:18.500000,8.82
9:35:18.515625,3.73
9:35:18.531250,-0.58
9:35:18.546875,-4.47
9:35:18.562500,-8.36
9:35:18.578125,-12.57
9:35:18.593750,-17.34
9:35:18.609375,-22.62
9:35:18.625000,-27.90
9:35:18.640625,-32.31
9:35:18.656250,-34.79
9:35:18.671875,-34.54
9:35:18.687500,-31.38
9:35:18.703125,-25.86
9:35:18.718750,-19.07
9:35:18.734375,-12.21
9:35:18.750000,-6.19
9:35:18.765625,-1.35
9:35:18.781250,2.44
9:35:18.796875,5.54
9:35:18.812500,8.18
9:35:18.828125,10.27
9:35:18.843750,11.53
9:35:18.859375,11.70
9:35:18.875000,10.89
9:35:18.890625,9.64
9:35:18.906250,8.88
9:35:18.921875,9.49
9:35:18.937500,11.84
9:35:18.953125,15.57
9:35:18.968750,19.71
9:35:18.984375,23.05
9:35:19,24.69
9:35:19.015625,24.44
9:35:19.031250,22.82
9:35:19.046875,20.83
9:35:19.062500,19.37
9:35:19.078125,18.83
9:35:19.093750,18.95
9:35:19.109375,19.02
9:35:19.125000,18.23
9:35:19.140625,16.13
9:35:19.156250,12.86
9:35:19.171875,9.00
9:35:19.187500,5.35
9:35:19.203125,2.54
9:35:19.218750,0.76
9:35:19.234375,-0.30
9:35:19.250000,-1.33
9:35:19.265625,-3.05
9:35:19.281250,-5.86
9:35:19.296875,-9.46
9:35:19.312500,-12.88
9:35:19.328125,-14.65
9:35:19.343750,-13.26
9:35:19.359375,-7.76
9:35:19.375000,1.92
9:35:19.390625,14.95
9:35:19.406250,29.73
9:35:19.421875,44.31
9:35:19.437500,56.85
9:35:19.453125,66.02
9:35:19.468750,71.23
9:35:19.484375,72.73
9:35:19.500000,71.34
9:35:19.515625,68.08
9:35:19.531250,63.68
9:35:19.546875,58.16
9:35:19.562500,50.95
9:35:19.578125,41.38
9:35:19.593750,29.51
9:35:19.609375,16.83
9:35:19.625000,6.25
9:35:19.640625,1.21
9:35:19.656250,4.29
9:35:19.671875,15.98
9:35:19.687500,34.17
9:35:19.703125,54.86
9:35:19.718750,73.55
9:35:19.734375,86.68
9:35:19.750000,92.44
9:35:19.765625,90.89
9:35:19.781250,83.48
9:35:19.796875,72.49
9:35:19.812500,60.33
9:35:19.828125,48.83
9:35:19.843750,38.49
9:35:19.859375,28.09
9:35:19.875000,15.04
9:35:19.890625,-3.23
9:35:19.906250,-27.56
9:35:19.921875,-55.96
9:35:19.937500,-83.99
9:35:19.953125,-106.47
9:35:19.968750,-119.83
9:35:19.984375,-123.61
9:35:20,-120.25
9:35:20.015625,-113.48
9:35:20.031250,-106.27
9:35:20.046875,-99.68
9:35:20.062500,-93.19
9:35:20.078125,-85.96
9:35:20.093750,-78.10
9:35:20.109375,-70.88
9:35:20.125000,-65.96
9:35:20.140625,-64.20
9:35:20.156250,-64.92
9:35:20.171875,-66.11
9:35:20.187500,-65.58
9:35:20.203125,-62.11
9:35:20.218750,-56.13
9:35:20.234375,-49.36
9:35:20.250000,-43.85
9:35:20.265625,-40.83
9:35:20.281250,-40.06
9:35:20.296875,-40.16
9:35:20.312500,-39.43
9:35:20.328125,-36.84
9:35:20.343750,-32.49
9:35:20.359375,-27.43
9:35:20.375000,-22.97
9:35:20.390625,-20.01
9:35:20.406250,-18.65
9:35:20.421875,-18.42
9:35:20.437500,-18.60
9:35:20.453125,-18.69
9:35:20.468750,-18.61
9:35:20.484375,-18.57
9:35:20.500000,-18.89
9:35:20.515625,-19.79
9:35:20.531250,-21.34
9:35:20.546875,-23.47
9:35:20.562500,-26.08
9:35:20.578125,-29.12
9:35:20.593750,-32.41
9:35:20.609375,-35.63
9:35:20.625000,-38.20
9:35:20.640625,-39.45
9:35:20.656250,-38.81
9:35:20.671875,-36.06
9:35:20.687500,-31.49
9:35:20.703125,-25.80
9:35:20.718750,-19.91
9:35:20.734375,-14.58
9:35:20.750000,-10.15
9:35:20.765625,-6.51
9:35:20.781250,-3.15
9:35:20.796875,0.46
9:35:20.812500,4.65
9:35:20.828125,9.37
9:35:20.843750,14.22
9:35:20.859375,18.61
9:35:20.875000,22.02
9:35:20.890625,24.10
9:35:20.906250,24.83
9:35:20.921875,24.45
9:35:20.937500,23.28
9:35:20.953125,21.68
9:35:20.968750,19.88
9:35:20.984375,18.07
9:35:21,16.42
9:35:21.015625,15.09
9:35:21.031250,14.24
9:35:21.046875,13.94
9:35:21.062500,14.05
9:35:21.078125,14.34
9:35:21.093750,14.46
9:35:21.109375,14.10
9:35:21.125000,13.04
9:35:21.140625,11.22
9:35:21.156250,8.65
9:35:21.171875,5.43
9:35:21.187500,1.68
9:35:21.203125,-2.41
9:35:21.218750,-6.61
9:35:21.234375,-10.73
9:35:21.250000,-14.71
9:35:21.265625,-18.64
9:35:21.281250,-22.68
9:35:21.296875,-26.92
9:35:21.312500,-31.17
9:35:21.328125,-34.94
9:35:21.343750,-37.45
9:35:21.359375,-37.95
9:35:21.375000,-35.94
9:35:21.390625,-31.47
9:35:21.406250,-25.09
9:35:21.421875,-17.74
9:35:21.437500,-10.43
9:35:21.453125,-3.88
9:35:21.468750,1.60
9:35:21.484375,6.12
9:35:21.500000,10.00
9:35:21.515625,13.51
9:35:21.531250,16.68
9:35:21.546875,19.34
9:35:21.562500,21.15
9:35:21.578125,21.87
9:35:21.593750,21.48
9:35:21.609375,20.23
9:35:21.625000,18.47
9:35:21.640625,16.62
9:35:21.656250,14.95
9:35:21.671875,13.60
9:35:21.687500,12.61
9:35:21.703125,11.96
9:35:21.718750,11.60
9:35:21.734375,11.51
9:35:21.750000,11.64
9:35:21.765625,11.90
9:35:21.781250,12.19
9:35:21.796875,12.38
9:35:21.812500,12.28
9:35:21.828125,11.71
9:35:21.843750,10.46
9:35:21.859375,8.46
9:35:21.875000,5.81
9:35:21.890625,2.81
9:35:21.906250,-0.14
9:35:21.921875,-2.70
9:35:21.937500,-4.82
9:35:21.953125,-6.78
9:35:21.968750,-9.02
9:35:21.984375,-12.00
9:35:22,-15.90
9:35:22.015625,-20.62
9:35:22.031250,-25.79
9:35:22.046875,-30.95
9:35:22.062500,-35.62
9:35:22.078125,-39.36
9:35:22.093750,-41.71
9:35:22.109375,-42.29
9:35:22.125000,-40.78
9:35:22.140625,-37.13
9:35:22.156250,-31.61
9:35:22.171875,-24.81
9:35:22.187500,-17.41
9:35:22.203125,-10.04
9:35:22.218750,-3.14
9:35:22.234375,3.09
9:35:22.250000,8.57
9:35:22.265625,13.24
9:35:22.281250,17.00
9:35:22.296875,19.82
9:35:22.312500,21.73
9:35:22.328125,22.93
9:35:22.343750,23.74
9:35:22.359375,24.49
9:35:22.375000,25.34
9:35:22.390625,26.25
9:35:22.406250,26.99
9:35:22.421875,27.31
9:35:22.437500,27.10
9:35:22.453125,26.47
9:35:22.468750,25.71
9:35:22.484375,25.12
9:35:22.500000,24.84
9:35:22.515625,24.72
9:35:22.531250,24.44
9:35:22.546875,23.66
9:35:22.562500,22.22
9:35:22.578125,20.24
9:35:22.593750,18.02
9:35:22.609375,15.83
9:35:22.625000,13.80
9:35:22.640625,11.79
9:35:22.656250,9.57
9:35:22.671875,6.92
9:35:22.687500,3.74
9:35:22.703125,0.11
9:35:22.718750,-3.80
9:35:22.734375,-7.73
9:35:22.750000,-11.40
9:35:22.765625,-14.57
9:35:22.781250,-17.11
9:35:22.796875,-19.12
9:35:22.812500,-20.99
9:35:22.828125,-23.32
9:35:22.843750,-26.66
9:35:22.859375,-31.14
9:35:22.875000,-36.29
9:35:22.890625,-41.14
9:35:22.906250,-44.49
9:35:22.921875,-45.38
9:35:22.937500,-43.40
9:35:22.953125,-38.79
9:35:22.968750,-32.33
9:35:22.984375,-24.98
9:35:23,-17.65
9:35:23.015625,-10.97
9:35:23.031250,-5.21
9:35:23.046875,-0.36
9:35:23.062500,3.80
9:35:23.078125,7.57
9:35:23.093750,11.11
9:35:23.109375,14.41
9:35:23.125000,17.14
9:35:23.140625,18.84
9:35:23.156250,19.09
9:35:23.171875,17.82
9:35:23.187500,15.41
9:35:23.203125,12.61
9:35:23.218750,10.28
9:35:23.234375,9.08
9:35:23.250000,9.32
9:35:23.265625,10.95
9:35:23.281250,13.70
9:35:23.296875,17.18
9:35:23.312500,20.90
9:35:23.328125,24.30
9:35:23.343750,26.72
9:35:23.359375,27.59
9:35:23.375000,26.64
9:35:23.390625,24.02
9:35:23.406250,20.26
9:35:23.421875,16.12
9:35:23.437500,12.23
9:35:23.453125,8.97
9:35:23.468750,6.43
9:35:23.484375,4.45
9:35:23.500000,2.79
9:35:23.515625,1.13
9:35:23.531250,-0.93
9:35:23.546875,-3.85
9:35:23.562500,-8.08
9:35:23.578125,-13.75
9:35:23.593750,-20.54
9:35:23.609375,-27.60
9:35:23.625000,-33.66
9:35:23.640625,-37.46
9:35:23.656250,-38.10
9:35:23.671875,-35.45
9:35:23.687500,-30.14
9:35:23.703125,-23.29
9:35:23.718750,-16.08
9:35:23.734375,-9.31
9:35:23.750000,-3.32
9:35:23.765625,1.90
9:35:23.781250,6.42
9:35:23.796875,10.17
9:35:23.812500,12.88
9:35:23.828125,14.33
9:35:23.843750,14.45
9:35:23.859375,13.54
9:35:23.875000,12.07
9:35:23.890625,10.58
9:35:23.906250,9.43
9:35:23.921875,8.75
9:35:23.937500,8.49
9:35:23.953125,8.42
9:35:23.968750,8.32
9:35:23.984375,8.00
9:35:24,7.35
9:35:24.015625,6.49
9:35:24.031250,5.69
9:35:24.046875,5.36
9:35:24.062500,5.74
9:35:24.078125,6.84
9:35:24.093750,8.31
9:35:24.109375,9.59
9:35:24.125000,10.24
9:35:24.140625,10.13
9:35:24.156250,9.47
9:35:24.171875,8.69
9:35:24.187500,8.04
9:35:24.203125,7.45
9:35:24.218750,6.50
9:35:24.234375,4.59
9:35:24.250000,1.24
9:35:24.265625,-3.72
9:35:24.281250,-10.13
9:35:24.296875,-17.49
9:35:24.312500,-25.05
9:35:24.328125,-31.88
9:35:24.343750,-36.96
9:35:24.359375,-39.39
9:35:24.375000,-38.71
9:35:24.390625,-35.08
9:35:24.406250,-29.24
9:35:24.421875,-22.26
9:35:24.437500,-15.13
9:35:24.453125,-8.44
9:35:24.468750,-2.42
9:35:24.484375,2.99
9:35:24.500000,7.80
9:35:24.515625,11.88
9:35:24.531250,15.07
9:35:24.546875,17.28
9:35:24.562500,18.62
9:35:24.578125,19.35
9:35:24.593750,19.69
9:35:24.609375,19.77
9:35:24.625000,19.57
9:35:24.640625,19.05
9:35:24.656250,18.27
9:35:24.671875,17.41
9:35:24.687500,16.73
9:35:24.703125,16.45
9:35:24.718750,16.74
9:35:24.734375,17.61
9:35:24.750000,19.02
9:35:24.765625,20.74
9:35:24.781250,22.42
9:35:24.796875,23.59
9:35:24.812500,23.77
9:35:24.828125,22.61
9:35:24.843750,20.04
9:35:24.859375,16.29
9:35:24.875000,11.78
9:35:24.890625,7.02
9:35:24.906250,2.41
9:35:24.921875,-1.89
9:35:24.937500,-5.95
9:35:24.953125,-10.02
9:35:24.968750,-14.44
9:35:24.984375,-19.44
9:35:25,-25.07
9:35:25.015625,-31.04
9:35:25.031250,-36.79
9:35:25.046875,-41.65
9:35:25.062500,-45.00
9:35:25.078125,-46.37
9:35:25.093750,-45.54
9:35:25.109375,-42.48
9:35:25.125000,-37.38
9:35:25.140625,-30.62
9:35:25.156250,-22.75
9:35:25.171875,-14.46
9:35:25.187500,-6.40
9:35:25.203125,0.96
9:35:25.218750,7.40
9:35:25.234375,12.89
9:35:25.250000,17.48
9:35:25.265625,21.22
9:35:25.281250,24.06
9:35:25.296875,25.97
9:35:25.312500,27.03
9:35:25.328125,27.48
9:35:25.343750,27.61
9:35:25.359375,27.66
9:35:25.375000,27.73
9:35:25.390625,27.72
9:35:25.406250,27.49
9:35:25.421875,26.91
9:35:25.437500,25.95
9:35:25.453125,24.68
9:35:25.468750,23.19
9:35:25.484375,21.55
9:35:25.500000,19.77
9:35:25.515625,17.82
9:35:25.531250,15.58
9:35:25.546875,13.01
9:35:25.562500,10.10
9:35:25.578125,6.97
9:35:25.593750,3.79
9:35:25.609375,0.70
9:35:25.625000,-2.24
9:35:25.640625,-5.14
9:35:25.656250,-8.14
9:35:25.671875,-11.41
9:35:25.687500,-15.06
9:35:25.703125,-19.09
9:35:25.718750,-23.50
9:35:25.734375,-28.27
9:35:25.750000,-33.30
9:35:25.765625,-38.23
9:35:25.781250,-42.41
9:35:25.796875,-44.97
9:35:25.812500,-45.10
9:35:25.828125,-42.37
9:35:25.843750,-36.91
9:35:25.859375,-29.45
9:35:25.875000,-20.96
9:35:25.890625,-12.36
9:35:25.906250,-4.29
9:35:25.921875,2.96
9:35:25.937500,9.29
9:35:25.953125,14.61
9:35:25.968750,18.86
9:35:25.984375,22.00
9:35:26,24.10
9:35:26.015625,25.31
9:35:26.031250,25.80
9:35:26.046875,25.63
9:35:26.062500,24.81
9:35:26.078125,23.33
9:35:26.093750,21.37
9:35:26.109375,19.27
9:35:26.125000,17.50
9:35:26.140625,16.39
9:35:26.156250,16.07
9:35:26.171875,16.38
9:35:26.187500,17.06
9:35:26.203125,17.80
9:35:26.218750,18.30
9:35:26.234375,18.26
9:35:26.250000,17.31
9:35:26.265625,15.13
9:35:26.281250,11.58
9:35:26.296875,6.84
9:35:26.312500,1.39
9:35:26.328125,-4.14
9:35:26.343750,-9.27
9:35:26.359375,-13.78
9:35:26.375000,-17.70
9:35:26.390625,-21.19
9:35:26.406250,-24.46
9:35:26.421875,-27.64
9:35:26.437500,-30.81
9:35:26.453125,-33.90
9:35:26.468750,-36.60
9:35:26.484375,-38.31
9:35:26.500000,-38.29
9:35:26.515625,-35.99
9:35:26.531250,-31.38
9:35:26.546875,-25.11
9:35:26.562500,-18.22
9:35:26.578125,-11.66
9:35:26.593750,-5.87
9:35:26.609375,-0.69
9:35:26.625000,4.32
9:35:26.640625,9.45
9:35:26.656250,14.53
9:35:26.671875,19.02
9:35:26.687500,22.38
9:35:26.703125,24.37
9:35:26.718750,25.15
9:35:26.734375,25.09
9:35:26.750000,24.49
9:35:26.765625,23.44
9:35:26.781250,21.91
9:35:26.796875,19.89
9:35:26.812500,17.60
9:35:26.828125,15.37
9:35:26.843750,13.59
9:35:26.859375,12.45
9:35:26.875000,11.93
9:35:26.890625,11.82
9:35:26.906250,11.79
9:35:26.921875,11.51
9:35:26.937500,10.72
9:35:26.953125,9.24
9:35:26.968750,7.01
9:35:26.984375,4.18
9:35:27,1.00
9:35:27.015625,-2.23
9:35:27.031250,-5.41
9:35:27.046875,-8.70
9:35:27.062500,-12.50
9:35:27.078125,-17.26
9:35:27.093750,-23.03
9:35:27.109375,-29.35
9:35:27.125000,-35.18
9:35:27.140625,-39.28
9:35:27.156250,-40.59
9:35:27.171875,-38.68
9:35:27.187500,-33.82
9:35:27.203125,-26.90
9:35:27.218750,-19.04
9:35:27.234375,-11.24
9:35:27.250000,-4.11
9:35:27.265625,2.15
9:35:27.281250,7.59
9:35:27.296875,12.37
9:35:27.312500,16.58
9:35:27.328125,20.19
9:35:27.343750,23.08
9:35:27.359375,25.12
9:35:27.375000,26.24
9:35:27.390625,26.42
9:35:27.406250,25.76
9:35:27.421875,24.39
9:35:27.437500,22.48
9:35:27.453125,20.21
9:35:27.468750,17.81
9:35:27.484375,15.66
9:35:27.500000,14.16
9:35:27.515625,13.64
9:35:27.531250,14.19
9:35:27.546875,15.45
9:35:27.562500,16.71
9:35:27.578125,17.14
9:35:27.593750,16.13
9:35:27.609375,13.55
9:35:27.625000,9.84
9:35:27.640625,5.74
9:35:27.656250,1.93
9:35:27.671875,-1.30
9:35:27.687500,-4.12
9:35:27.703125,-7.02
9:35:27.718750,-10.53
9:35:27.734375,-14.98
9:35:27.750000,-20.37
9:35:27.765625,-26.34
9:35:27.781250,-32.25
9:35:27.796875,-37.20
9:35:27.812500,-40.20
9:35:27.828125,-40.35
9:35:27.843750,-37.18
9:35:27.859375,-30.90
9:35:27.875000,-22.41
9:35:27.890625,-13.13
9:35:27.906250,-4.44
9:35:27.921875,2.79
9:35:27.937500,8.39
9:35:27.953125,12.80
9:35:27.968750,16.66
9:35:27.984375,20.44
9:35:28,24.18
9:35:28.015625,27.63
9:35:28.031250,30.36
9:35:28.046875,32.09
9:35:28.062500,32.71
9:35:28.078125,32.33
9:35:28.093750,31.19
9:35:28.109375,29.63
9:35:28.125000,28.04
9:35:28.140625,26.75
9:35:28.156250,25.97
9:35:28.171875,25.74
9:35:28.187500,25.95
9:35:28.203125,26.40
9:35:28.218750,26.92
9:35:28.234375,27.38
9:35:28.250000,27.62
9:35:28.265625,27.40
9:35:28.281250,26.36
9:35:28.296875,24.23
9:35:28.312500,20.88
9:35:28.328125,16.47
9:35:28.343750,11.39
9:35:28.359375,6.14
9:35:28.375000,1.14
9:35:28.390625,-3.33
9:35:28.406250,-7.14
9:35:28.421875,-10.27
9:35:28.437500,-12.80
9:35:28.453125,-15.00
9:35:28.468750,-17.29
9:35:28.484375,-20.18
9:35:28.500000,-24.10
9:35:28.515625,-29.08
9:35:28.531250,-34.72
9:35:28.546875,-40.21
9:35:28.562500,-44.51
9:35:28.578125,-46.66
9:35:28.593750,-45.99
9:35:28.609375,-42.36
9:35:28.625000,-36.12
9:35:28.640625,-28.02
9:35:28.656250,-18.97
9:35:28.671875,-9.81
9:35:28.687500,-1.15
9:35:28.703125,6.69
9:35:28.718750,13.55
9:35:28.734375,19.33
9:35:28.750000,23.91
9:35:28.765625,27.17
9:35:28.781250,29.11
9:35:28.796875,29.93
9:35:28.812500,30.01
9:35:28.828125,29.81
9:35:28.843750,29.64
9:35:28.859375,29.62
9:35:28.875000,29.69
9:35:28.890625,29.74
9:35:28.906250,29.78
9:35:28.921875,30.00
9:35:28.937500,30.61
9:35:28.953125,31.69
9:35:28.968750,32.97
9:35:28.984375,33.92
9:35:29,33.92
9:35:29.015625,32.62
9:35:29.031250,30.04
9:35:29.046875,26.61
9:35:29.062500,22.91
9:35:29.078125,19.36
9:35:29.093750,16.08
9:35:29.109375,12.88
9:35:29.125000,9.44
9:35:29.140625,5.55
9:35:29.156250,1.19
9:35:29.171875,-3.39
9:35:29.187500,-7.81
9:35:29.203125,-11.68
9:35:29.218750,-14.76
9:35:29.234375,-17.05
9:35:29.250000,-18.83
9:35:29.265625,-20.52
9:35:29.281250,-22.58
9:35:29.296875,-25.38
9:35:29.312500,-29.10
9:35:29.328125,-33.69
9:35:29.343750,-38.91
9:35:29.359375,-44.28
9:35:29.375000,-49.05
9:35:29.390625,-52.24
9:35:29.406250,-52.91
9:35:29.421875,-50.45
9:35:29.437500,-44.91
9:35:29.453125,-37.09
9:35:29.468750,-28.19
9:35:29.484375,-19.37
9:35:29.500000,-11.29
9:35:29.515625,-4.05
9:35:29.531250,2.53
9:35:29.546875,8.58
9:35:29.562500,13.91
9:35:29.578125,18.12
9:35:29.593750,20.91
9:35:29.609375,22.34
9:35:29.625000,22.84
9:35:29.640625,22.93
9:35:29.656250,22.97
9:35:29.671875,22.99
9:35:29.687500,22.84
9:35:29.703125,22.42
9:35:29.718750,21.85
9:35:29.734375,21.34
9:35:29.750000,21.11
9:35:29.765625,21.15
9:35:29.781250,21.25
9:35:29.796875,21.19
9:35:29.812500,20.83
9:35:29.828125,20.19
9:35:29.843750,19.34
9:35:29.859375,18.31
9:35:29.875000,17.00
9:35:29.890625,15.30
9:35:29.906250,13.16
9:35:29.921875,10.64
9:35:29.937500,7.87
9:35:29.953125,4.87
9:35:29.968750,1.65
9:35:29.984375,-1.86
9:35:30,-5.62
9:35:30.015625,-9.45
9:35:30.031250,-13.09
9:35:30.046875,-16.30
9:35:30.062500,-19.04
9:35:30.078125,-21.47
9:35:30.093750,-24.01
9:35:30.109375,-27.03
9:35:30.125000,-30.78
9:35:30.140625,-35.09
9:35:30.156250,-39.40
9:35:30.171875,-42.75
9:35:30.187500,-44.15
9:35:30.203125,-42.85
9:35:30.218750,-38.69
9:35:30.234375,-32.23
9:35:30.250000,-24.52
9:35:30.265625,-16.78
9:35:30.281250,-9.95
9:35:30.296875,-4.39
9:35:30.312500,0.02
9:35:30.328125,3.69
9:35:30.343750,6.98
9:35:30.359375,10.05
9:35:30.375000,12.81
9:35:30.390625,15.10
9:35:30.406250,16.87
9:35:30.421875,18.28
9:35:30.437500,19.60
9:35:30.453125,21.10
9:35:30.468750,22.83
9:35:30.484375,24.61
9:35:30.500000,26.10
9:35:30.515625,26.99
9:35:30.531250,27.16
9:35:30.546875,26.74
9:35:30.562500,26.01
9:35:30.578125,25.23
9:35:30.593750,24.48
9:35:30.609375,23.63
9:35:30.625000,22.43
9:35:30.640625,20.64
9:35:30.656250,18.19
9:35:30.671875,15.22
9:35:30.687500,12.04
9:35:30.703125,9.00
9:35:30.718750,6.33
9:35:30.734375,4.05
9:35:30.750000,1.93
9:35:30.765625,-0.31
9:35:30.781250,-2.94
9:35:30.796875,-6.02
9:35:30.812500,-9.40
9:35:30.828125,-12.79
9:35:30.843750,-15.90
9:35:30.859375,-18.65
9:35:30.875000,-21.11
9:35:30.890625,-23.60
9:35:30.906250,-26.44
9:35:30.921875,-29.84
9:35:30.937500,-33.69
9:35:30.953125,-37.54
9:35:30.968750,-40.72
9:35:30.984375,-42.52
9:35:31,-42.38
9:35:31.015625,-40.11
9:35:31.031250,-35.89
9:35:31.046875,-30.23
9:35:31.062500,-23.79
9:35:31.078125,-17.17
9:35:31.093750,-10.79
9:35:31.109375,-4.93
9:35:31.125000,0.36
9:35:31.140625,5.07
9:35:31.156250,9.31
9:35:31.171875,13.18
9:35:31.187500,16.73
9:35:31.203125,19.91
9:35:31.218750,22.53
9:35:31.234375,24.39
9:35:31.250000,25.29
9:35:31.265625,25.23
9:35:31.281250,24.35
9:35:31.296875,22.97
9:35:31.312500,21.45
9:35:31.328125,20.19
9:35:31.343750,19.49
9:35:31.359375,19.54
9:35:31.375000,20.29
9:35:31.390625,21.51
9:35:31.406250,22.79
9:35:31.421875,23.72
9:35:31.437500,24.00
9:35:31.453125,23.59
9:35:31.468750,22.62
9:35:31.484375,21.30
9:35:31.500000,19.77
9:35:31.515625,18.05
9:35:31.531250,16.06
9:35:31.546875,13.78
9:35:31.562500,11.31
9:35:31.578125,8.84
9:35:31.593750,6.58
9:35:31.609375,4.66
9:35:31.625000,3.08
9:35:31.640625,1.74
9:35:31.656250,0.48
9:35:31.671875,-0.86
9:35:31.687500,-2.41
9:35:31.703125,-4.30
9:35:31.718750,-6.60
9:35:31.734375,-9.33
9:35:31.750000,-12.40
9:35:31.765625,-15.64
9:35:31.781250,-18.86
9:35:31.796875,-21.91
9:35:31.812500,-24.72
9:35:31.828125,-27.35
9:35:31.843750,-29.96
9:35:31.859375,-32.77
9:35:31.875000,-35.97
9:35:31.890625,-39.58
9:35:31.906250,-43.40
9:35:31.921875,-46.89
9:35:31.937500,-49.29
9:35:31.953125,-49.85
9:35:31.968750,-48.09
9:35:31.984375,-43.94
9:35:32,-37.87
9:35:32.015625,-30.68
9:35:32.031250,-23.27
9:35:32.046875,-16.34
9:35:32.062500,-10.23
9:35:32.078125,-4.96
9:35:32.093750,-0.39
9:35:32.109375,3.61
9:35:32.125000,7.03
9:35:32.140625,9.77
9:35:32.156250,11.72
9:35:32.171875,12.92
9:35:32.187500,13.57
9:35:32.203125,14.01
9:35:32.218750,14.56
9:35:32.234375,15.37
9:35:32.250000,16.40
9:35:32.265625,17.42
9:35:32.281250,18.20
9:35:32.296875,18.65
9:35:32.312500,18.89
9:35:32.328125,19.17
9:35:32.343750,19.71
9:35:32.359375,20.51
9:35:32.375000,21.42
9:35:32.390625,22.12
9:35:32.406250,22.37
9:35:32.421875,22.04
9:35:32.437500,21.17
9:35:32.453125,19.85
9:35:32.468750,18.06
9:35:32.484375,15.77
9:35:32.500000,12.93
9:35:32.515625,9.69
9:35:32.531250,6.35
9:35:32.546875,3.34
9:35:32.562500,0.94
9:35:32.578125,-0.80
9:35:32.593750,-2.14
9:35:32.609375,-3.52
9:35:32.625000,-5.27
9:35:32.640625,-7.50
9:35:32.656250,-10.07
9:35:32.671875,-12.72
9:35:32.687500,-15.25
9:35:32.703125,-17.61
9:35:32.718750,-19.96
9:35:32.734375,-22.51
9:35:32.750000,-25.43
9:35:32.765625,-28.82
9:35:32.781250,-32.67
9:35:32.796875,-36.83
9:35:32.812500,-41.00
9:35:32.828125,-44.65
9:35:32.843750,-47.09
9:35:32.859375,-47.68
9:35:32.875000,-46.00
9:35:32.890625,-42.10
9:35:32.906250,-36.47
9:35:32.921875,-29.89
9:35:32.937500,-23.16
9:35:32.953125,-16.79
9:35:32.968750,-11.01
9:35:32.984375,-5.86
9:35:33,-1.33
9:35:33.015625,2.54
9:35:33.031250,5.64
9:35:33.046875,7.93
9:35:33.062500,9.48
9:35:33.078125,10.50
9:35:33.093750,11.20
9:35:33.109375,11.70
9:35:33.125000,11.98
9:35:33.140625,11.95
9:35:33.156250,11.52
9:35:33.171875,10.80
9:35:33.187500,9.99
9:35:33.203125,9.42
9:35:33.218750,9.25
9:35:33.234375,9.46
9:35:33.250000,9.84
9:35:33.265625,10.17
9:35:33.281250,10.34
9:35:33.296875,10.45
9:35:33.312500,10.64
9:35:33.328125,10.91
9:35:33.343750,11.06
9:35:33.359375,10.83
9:35:33.375000,10.03
9:35:33.390625,8.77
9:35:33.406250,7.35
9:35:33.421875,6.07
9:35:33.437500,4.94
9:35:33.453125,3.62
9:35:33.468750,1.57
9:35:33.484375,-1.56
9:35:33.500000,-5.69
9:35:33.515625,-10.31
9:35:33.531250,-14.72
9:35:33.546875,-18.42
9:35:33.562500,-21.30
9:35:33.578125,-23.67
9:35:33.593750,-26.02
9:35:33.609375,-28.61
9:35:33.625000,-31.34
9:35:33.640625,-33.72
9:35:33.656250,-35.05
9:35:33.671875,-34.77
9:35:33.687500,-32.64
9:35:33.703125,-28.81
9:35:33.718750,-23.75
9:35:33.734375,-18.07
9:35:33.750000,-12.39
9:35:33.765625,-7.21
9:35:33.781250,-2.96
9:35:33.796875,0.12
9:35:33.812500,2.01
9:35:33.828125,2.98
9:35:33.843750,3.48
9:35:33.859375,3.97
9:35:33.875000,4.79
9:35:33.890625,5.93
9:35:33.906250,7.18
9:35:33.921875,8.21
9:35:33.937500,8.78
9:35:33.953125,8.90
9:35:33.968750,8.73
9:35:33.984375,8.58
9:35:34,8.76
9:35:34.015625,9.43
9:35:34.031250,10.63
9:35:34.046875,12.19
9:35:34.062500,13.87
9:35:34.078125,15.39
9:35:34.093750,16.55
9:35:34.109375,17.33
9:35:34.125000,17.83
9:35:34.140625,18.15
9:35:34.156250,18.24
9:35:34.171875,17.89
9:35:34.187500,16.77
9:35:34.203125,14.68
9:35:34.218750,11.64
9:35:34.234375,7.89
9:35:34.250000,3.83
9:35:34.265625,-0.24
9:35:34.281250,-4.14
9:35:34.296875,-7.78
9:35:34.312500,-11.09
9:35:34.328125,-13.97
9:35:34.343750,-16.37
9:35:34.359375,-18.45
9:35:34.375000,-20.65
9:35:34.390625,-23.57
9:35:34.406250,-27.61
9:35:34.421875,-32.67
9:35:34.437500,-38.01
9:35:34.453125,-42.43
9:35:34.468750,-44.76
9:35:34.484375,-44.30
9:35:34.500000,-41.11
9:35:34.515625,-35.86
9:35:34.531250,-29.58
9:35:34.546875,-23.14
9:35:34.562500,-17.03
9:35:34.578125,-11.30
9:35:34.593750,-5.71
9:35:34.609375,-0.01
9:35:34.625000,5.84
9:35:34.640625,11.56
9:35:34.656250,16.65
9:35:34.671875,20.58
9:35:34.687500,23.05
9:35:34.703125,24.06
9:35:34.718750,23.93
9:35:34.734375,23.11
9:35:34.750000,22.07
9:35:34.765625,21.10
9:35:34.781250,20.39
9:35:34.796875,20.00
9:35:34.812500,19.91
9:35:34.828125,20.02
9:35:34.843750,20.20
9:35:34.859375,20.33
9:35:34.875000,20.45
9:35:34.890625,20.69
9:35:34.906250,21.16
9:35:34.921875,21.79
9:35:34.937500,22.21
9:35:34.953125,21.82
9:35:34.968750,20.10
9:35:34.984375,16.84
9:35:35,12.35
9:35:35.015625,7.28
9:35:35.031250,2.30
9:35:35.046875,-2.22
9:35:35.062500,-6.29
9:35:35.078125,-10.18
9:35:35.093750,-14.22
9:35:35.109375,-18.57
9:35:35.125000,-23.25
9:35:35.140625,-28.19
9:35:35.156250,-33.23
9:35:35.171875,-38.14
9:35:35.187500,-42.48
9:35:35.203125,-45.61
9:35:35.218750,-46.80
9:35:35.234375,-45.51
9:35:35.250000,-41.62
9:35:35.265625,-35.53
9:35:35.281250,-28.04
9:35:35.296875,-20.01
9:35:35.312500,-12.16
9:35:35.328125,-4.85
9:35:35.343750,1.80
9:35:35.359375,7.79
9:35:35.375000,13.12
9:35:35.390625,17.73
9:35:35.406250,21.55
9:35:35.421875,24.51
9:35:35.437500,26.59
9:35:35.453125,27.78
9:35:35.468750,28.11
9:35:35.484375,27.66
9:35:35.500000,26.64
9:35:35.515625,25.31
9:35:35.531250,23.96
9:35:35.546875,22.80
9:35:35.562500,21.93
9:35:35.578125,21.36
9:35:35.593750,21.06
9:35:35.609375,21.04
9:35:35.625000,21.29
9:35:35.640625,21.74
9:35:35.656250,22.14
9:35:35.671875,22.15
9:35:35.687500,21.39
9:35:35.703125,19.61
9:35:35.718750,16.81
9:35:35.734375,13.19
9:35:35.750000,9.09
9:35:35.765625,4.86
9:35:35.781250,0.71
9:35:35.796875,-3.27
9:35:35.812500,-7.11
9:35:35.828125,-10.91
9:35:35.843750,-14.79
9:35:35.859375,-18.94
9:35:35.875000,-23.52
9:35:35.890625,-28.63
9:35:35.906250,-34.15
9:35:35.921875,-39.61
9:35:35.937500,-44.22
9:35:35.953125,-46.97
9:35:35.968750,-46.97
9:35:35.984375,-43.78
9:35:36,-37.64
9:35:36.015625,-29.45
9:35:36.031250,-20.40
9:35:36.046875,-11.63
9:35:36.062500,-3.74
9:35:36.078125,3.20
9:35:36.093750,9.49
9:35:36.109375,15.45
9:35:36.125000,21.06
9:35:36.140625,25.94
9:35:36.156250,29.62
9:35:36.171875,31.80
9:35:36.187500,32.67
9:35:36.203125,32.78
9:35:36.218750,32.75
9:35:36.234375,32.91
9:35:36.250000,33.14
9:35:36.265625,33.00
9:35:36.281250,32.05
9:35:36.296875,30.14
9:35:36.312500,27.54
9:35:36.328125,24.84
9:35:36.343750,22.59
9:35:36.359375,21.09
9:35:36.375000,20.24
9:35:36.390625,19.58
9:35:36.406250,18.53
9:35:36.421875,16.58
9:35:36.437500,13.58
9:35:36.453125,9.71
9:35:36.468750,5.44
9:35:36.484375,1.28
9:35:36.500000,-2.46
9:35:36.515625,-5.84
9:35:36.531250,-9.17
9:35:36.546875,-12.93
9:35:36.562500,-17.44
9:35:36.578125,-22.77
9:35:36.593750,-28.68
9:35:36.609375,-34.67
9:35:36.625000,-40.16
9:35:36.640625,-44.47
9:35:36.656250,-46.94
9:35:36.671875,-47.07
9:35:36.687500,-44.62
9:35:36.703125,-39.75
9:35:36.718750,-32.99
9:35:36.734375,-25.07
9:35:36.750000,-16.67
9:35:36.765625,-8.26
9:35:36.781250,-0.07
9:35:36.796875,7.78
9:35:36.812500,15.17
9:35:36.828125,21.81
9:35:36.843750,27.33
9:35:36.859375,31.38
9:35:36.875000,33.80
9:35:36.890625,34.68
9:35:36.906250,34.33
9:35:36.921875,33.16
9:35:36.937500,31.59
9:35:36.953125,29.93
9:35:36.968750,28.34
9:35:36.984375,26.91
9:35:37,25.69
9:35:37.015625,24.73
9:35:37.031250,24.12
9:35:37.046875,23.91
9:35:37.062500,24.08
9:35:37.078125,24.41
9:35:37.093750,24.52
9:35:37.109375,23.96
9:35:37.125000,22.34
9:35:37.140625,19.57
9:35:37.156250,15.83
9:35:37.171875,11.55
9:35:37.187500,7.17
9:35:37.203125,2.99
9:35:37.218750,-0.96
9:35:37.234375,-4.81
9:35:37.250000,-8.80
9:35:37.265625,-13.12
9:35:37.281250,-17.92
9:35:37.296875,-23.28
9:35:37.312500,-29.16
9:35:37.328125,-35.36
9:35:37.343750,-41.36
9:35:37.359375,-46.35
9:35:37.375000,-49.36
9:35:37.390625,-49.53
9:35:37.406250,-46.46
9:35:37.421875,-40.31
9:35:37.437500,-31.87
9:35:37.453125,-22.27
9:35:37.468750,-12.63
9:35:37.484375,-3.79
9:35:37.500000,3.82
9:35:37.515625,10.21
9:35:37.531250,15.63
9:35:37.546875,20.33
9:35:37.562500,24.47
9:35:37.578125,28.03
9:35:37.593750,30.85
9:35:37.609375,32.85
9:35:37.625000,34.01
9:35:37.640625,34.50
9:35:37.656250,34.55
9:35:37.671875,34.37
9:35:37.687500,34.16
9:35:37.703125,34.03
9:35:37.718750,34.10
9:35:37.734375,34.48
9:35:37.750000,35.23
9:35:37.765625,36.26
9:35:37.781250,37.36
9:35:37.796875,38.25
9:35:37.812500,38.65
9:35:37.828125,38.45
9:35:37.843750,37.67
9:35:37.859375,36.44
9:35:37.875000,34.91
9:35:37.890625,33.14
9:35:37.906250,31.14
9:35:37.921875,28.91
9:35:37.937500,26.43
9:35:37.953125,23.76
9:35:37.968750,20.92
9:35:37.984375,17.93
9:35:38,14.78
9:35:38.015625,11.49
9:35:38.031250,8.10
9:35:38.046875,4.67
9:35:38.062500,1.27
9:35:38.078125,-2.11
9:35:38.093750,-5.50
9:35:38.109375,-8.96
9:35:38.125000,-12.47
9:35:38.140625,-15.96
9:35:38.156250,-19.34
9:35:38.171875,-22.58
9:35:38.187500,-25.74
9:35:38.203125,-28.99
9:35:38.218750,-32.58
9:35:38.234375,-36.71
9:35:38.250000,-41.50
9:35:38.265625,-46.82
9:35:38.281250,-52.27
9:35:38.296875,-57.11
9:35:38.312500,-60.44
9:35:38.328125,-61.37
9:35:38.343750,-59.34
9:35:38.359375,-54.32
9:35:38.375000,-46.88
9:35:38.390625,-37.93
9:35:38.406250,-28.48
9:35:38.421875,-19.26
9:35:38.437500,-10.63
9:35:38.453125,-2.69
9:35:38.468750,4.59
9:35:38.484375,11.12
9:35:38.500000,16.79
9:35:38.515625,21.41
9:35:38.531250,24.97
9:35:38.546875,27.55
9:35:38.562500,29.37
9:35:38.578125,30.67
9:35:38.593750,31.62
9:35:38.609375,32.34
9:35:38.625000,32.86
9:35:38.640625,33.22
9:35:38.656250,33.48
9:35:38.671875,33.71
9:35:38.687500,33.98
9:35:38.703125,34.38
9:35:38.718750,34.91
9:35:38.734375,35.48
9:35:38.750000,35.90
9:35:38.765625,35.94
9:35:38.781250,35.40
9:35:38.796875,34.23
9:35:38.812500,32.54
9:35:38.828125,30.56
9:35:38.843750,28.45
9:35:38.859375,26.28
9:35:38.875000,23.99
9:35:38.890625,21.48
9:35:38.906250,18.72
9:35:38.921875,15.77
9:35:38.937500,12.83
9:35:38.953125,10.08
9:35:38.968750,7.69
9:35:38.984375,5.70
9:35:39,4.05
9:35:39.015625,2.59
9:35:39.031250,1.03
9:35:39.046875,-0.97
9:35:39.062500,-3.69
9:35:39.078125,-7.15
9:35:39.093750,-11.13
9:35:39.109375,-15.15
9:35:39.125000,-18.69
9:35:39.140625,-21.51
9:35:39.156250,-23.70
9:35:39.171875,-25.71
9:35:39.187500,-28.15
9:35:39.203125,-31.50
9:35:39.218750,-35.96
9:35:39.234375,-41.33
9:35:39.250000,-47.04
9:35:39.265625,-52.27
9:35:39.281250,-56.07
9:35:39.296875,-57.64
9:35:39.312500,-56.51
9:35:39.328125,-52.71
9:35:39.343750,-46.70
9:35:39.359375,-39.34
9:35:39.375000,-31.52
9:35:39.390625,-23.98
9:35:39.406250,-17.14
9:35:39.421875,-11.14
9:35:39.437500,-5.90
9:35:39.453125,-1.24
9:35:39.468750,3.02
9:35:39.484375,6.97
9:35:39.500000,10.65
9:35:39.515625,13.96
9:35:39.531250,16.78
9:35:39.546875,19.00
9:35:39.562500,20.61
9:35:39.578125,21.68
9:35:39.593750,22.33
9:35:39.609375,22.68
9:35:39.625000,22.81
9:35:39.640625,22.82
9:35:39.656250,22.81
9:35:39.671875,22.94
9:35:39.687500,23.31
9:35:39.703125,23.94
9:35:39.718750,24.66
9:35:39.734375,25.24
9:35:39.750000,25.42
9:35:39.765625,25.06
9:35:39.781250,24.16
9:35:39.796875,22.78
9:35:39.812500,20.99
9:35:39.828125,18.80
9:35:39.843750,16.20
9:35:39.859375,13.30
9:35:39.875000,10.31
9:35:39.890625,7.53
9:35:39.906250,5.17
9:35:39.921875,3.22
9:35:39.937500,1.45
9:35:39.953125,-0.51
9:35:39.968750,-3.00
9:35:39.984375,-6.17
9:35:40,-9.90
9:35:40.015625,-13.82
9:35:40.031250,-17.47
9:35:40.046875,-20.44
9:35:40.062500,-22.55
9:35:40.078125,-23.88
9:35:40.093750,-24.86
9:35:40.109375,-26.07
9:35:40.125000,-28.09
9:35:40.140625,-31.27
9:35:40.156250,-35.60
9:35:40.171875,-40.58
9:35:40.187500,-45.39
9:35:40.203125,-48.95
9:35:40.218750,-50.31
9:35:40.234375,-48.82
9:35:40.250000,-44.43
9:35:40.265625,-37.73
9:35:40.281250,-29.78
9:35:40.296875,-21.81
9:35:40.312500,-14.77
9:35:40.328125,-9.08
9:35:40.343750,-4.61
9:35:40.359375,-0.90
9:35:40.375000,2.55
9:35:40.390625,5.94
9:35:40.406250,9.13
9:35:40.421875,11.69
9:35:40.437500,13.23
9:35:40.453125,13.59
9:35:40.468750,13.06
9:35:40.484375,12.29
9:35:40.500000,12.09
9:35:40.515625,13.05
9:35:40.531250,15.29
9:35:40.546875,18.31
9:35:40.562500,21.24
9:35:40.578125,23.29
9:35:40.593750,24.15
9:35:40.609375,24.12
9:35:40.625000,23.88
9:35:40.640625,23.94
9:35:40.656250,24.26
9:35:40.671875,24.33
9:35:40.687500,23.51
9:35:40.703125,21.51
9:35:40.718750,18.65
9:35:40.734375,15.62
9:35:40.750000,13.06
9:35:40.765625,11.13
9:35:40.781250,9.47
9:35:40.796875,7.58
9:35:40.812500,5.21
9:35:40.828125,2.66
9:35:40.843750,0.61
9:35:40.859375,-0.32
9:35:40.875000,-0.03
9:35:40.890625,0.93
9:35:40.906250,1.58
9:35:40.921875,0.96
9:35:40.937500,-1.34
9:35:40.953125,-5.07
9:35:40.968750,-9.62
9:35:40.984375,-14.35
9:35:41,-19.06
9:35:41.015625,-23.98
9:35:41.031250,-29.52
9:35:41.046875,-35.76
9:35:41.062500,-42.10
9:35:41.078125,-47.25
9:35:41.093750,-49.61
9:35:41.109375,-47.82
9:35:41.125000,-41.36
9:35:41.140625,-30.82
9:35:41.156250,-17.93
9:35:41.171875,-5.08
9:35:41.187500,5.27
9:35:41.203125,11.11
9:35:41.218750,11.31
9:35:41.234375,5.73
9:35:41.250000,-4.87
9:35:41.265625,-18.91
9:35:41.281250,-34.29
9:35:41.296875,-48.52
9:35:41.312500,-59.01
9:35:41.328125,-63.63
9:35:41.343750,-61.26
9:35:41.359375,-52.24
9:35:41.375000,-38.31
9:35:41.390625,-22.11
9:35:41.406250,-6.31
9:35:41.421875,7.14
9:35:41.437500,17.35
9:35:41.453125,24.31
9:35:41.468750,28.31
9:35:41.484375,29.63
9:35:41.500000,28.46
9:35:41.515625,25.07
9:35:41.531250,19.84
9:35:41.546875,13.29
9:35:41.562500,5.70
9:35:41.578125,-2.81
9:35:41.593750,-12.27
9:35:41.609375,-22.45
9:35:41.625000,-32.58
9:35:41.640625,-41.31
9:35:41.656250,-47.07
9:35:41.671875,-48.45
9:35:41.687500,-44.54
9:35:41.703125,-35.31
9:35:41.718750,-21.75
9:35:41.734375,-5.96
9:35:41.750000,9.05
9:35:41.765625,19.99
9:35:41.781250,24.06
9:35:41.796875,19.80
9:35:41.812500,7.48
9:35:41.828125,-11.12
9:35:41.843750,-33.48
9:35:41.859375,-57.05
9:35:41.875000,-79.68
9:35:41.890625,-99.41
9:35:41.906250,-114.12
9:35:41.921875,-121.57
9:35:41.937500,-120.00
9:35:41.953125,-109.12
9:35:41.968750,-90.86
9:35:41.984375,-69.19
9:35:42,-48.94
9:35:42.015625,-33.97
9:35:42.031250,-25.76
9:35:42.046875,-22.88
9:35:42.062500,-21.82
9:35:42.078125,-18.81
9:35:42.093750,-11.91
9:35:42.109375,-2.31
9:35:42.125000,6.04
9:35:42.140625,8.42
9:35:42.156250,2.04
9:35:42.171875,-11.89
9:35:42.187500,-27.86
9:35:42.203125,-38.05
9:35:42.218750,-35.54
9:35:42.234375,-17.34
9:35:42.250000,14.42
9:35:42.265625,53.50
9:35:42.281250,92.26
9:35:42.296875,124.60
9:35:42.312500,147.70
9:35:42.328125,162.08
9:35:42.343750,170.03
9:35:42.359375,173.87
9:35:42.375000,174.65
9:35:42.390625,172.09
9:35:42.406250,165.44
9:35:42.421875,154.45
9:35:42.437500,139.88
9:35:42.453125,123.23
9:35:42.468750,106.07
9:35:42.484375,89.30
9:35:42.500000,73.12
9:35:42.515625,57.38
9:35:42.531250,42.34
9:35:42.546875,29.04
9:35:42.562500,19.02
9:35:42.578125,13.40
9:35:42.593750,12.10
9:35:42.609375,13.57
9:35:42.625000,15.27
9:35:42.640625,14.75
9:35:42.656250,10.49
9:35:42.671875,2.17
9:35:42.687500,-9.55
9:35:42.703125,-23.54
9:35:42.718750,-38.50
9:35:42.734375,-53.09
9:35:42.750000,-65.79
9:35:42.765625,-75.18
9:35:42.781250,-80.33
9:35:42.796875,-81.16
9:35:42.812500,-78.58
9:35:42.828125,-74.17
9:35:42.843750,-69.51
9:35:42.859375,-65.61
9:35:42.875000,-62.58
9:35:42.890625,-59.99
9:35:42.906250,-57.22
9:35:42.921875,-53.98
9:35:42.937500,-50.41
9:35:42.953125,-47.00
9:35:42.968750,-44.36
9:35:42.984375,-42.98
9:35:43,-42.89
9:35:43.015625,-43.56
9:35:43.031250,-43.95
9:35:43.046875,-42.75
9:35:43.062500,-38.89
9:35:43.078125,-32.16
9:35:43.093750,-23.41
9:35:43.109375,-14.36
9:35:43.125000,-6.96
9:35:43.140625,-2.50
9:35:43.156250,-1.26
9:35:43.171875,-2.49
9:35:43.187500,-4.93
9:35:43.203125,-7.44
9:35:43.218750,-9.34
9:35:43.234375,-10.33
9:35:43.250000,-10.19
9:35:43.265625,-8.57
9:35:43.281250,-5.00
9:35:43.296875,0.71
9:35:43.312500,8.01
9:35:43.328125,15.51
9:35:43.343750,21.23
9:35:43.359375,23.33
9:35:43.375000,20.88
9:35:43.390625,14.39
9:35:43.406250,5.75
9:35:43.421875,-2.41
9:35:43.437500,-7.77
9:35:43.453125,-9.17
9:35:43.468750,-7.04
9:35:43.484375,-3.08
9:35:43.500000,0.48
9:35:43.515625,1.89
9:35:43.531250,0.46
9:35:43.546875,-3.28
9:35:43.562500,-7.99
9:35:43.578125,-12.11
9:35:43.593750,-14.45
9:35:43.609375,-14.41
9:35:43.625000,-11.95
9:35:43.640625,-7.38
9:35:43.656250,-1.14
9:35:43.671875,6.35
9:35:43.687500,14.69
9:35:43.703125,23.56
9:35:43.718750,32.71
9:35:43.734375,42.03
9:35:43.750000,51.64
9:35:43.765625,61.72
9:35:43.781250,72.42
9:35:43.796875,83.67
9:35:43.812500,94.92
9:35:43.828125,105.20
9:35:43.843750,113.32
9:35:43.859375,118.31
9:35:43.875000,119.81
9:35:43.890625,118.29
9:35:43.906250,114.82
9:35:43.921875,110.78
9:35:43.937500,107.41
9:35:43.953125,105.56
9:35:43.968750,105.55
9:35:43.984375,107.28
9:35:44,110.12
9:35:44.015625,112.95
9:35:44.031250,114.29
9:35:44.046875,112.52
9:35:44.062500,106.49
9:35:44.078125,96.06
9:35:44.093750,82.07
9:35:44.109375,66.00
9:35:44.125000,49.24
9:35:44.140625,32.52
9:35:44.156250,15.89
9:35:44.171875,-0.86
9:35:44.187500,-17.78
9:35:44.203125,-34.70
9:35:44.218750,-51.59
9:35:44.234375,-68.90
9:35:44.250000,-87.41
9:35:44.265625,-107.59
9:35:44.281250,-128.94
9:35:44.296875,-149.60
9:35:44.312500,-166.88
9:35:44.328125,-178.27
9:35:44.343750,-182.31
9:35:44.359375,-178.89
9:35:44.375000,-168.81
9:35:44.390625,-153.08
9:35:44.406250,-132.63
9:35:44.421875,-108.58
9:35:44.437500,-82.85
9:35:44.453125,-58.41
9:35:44.468750,-38.82
9:35:44.484375,-26.88
9:35:44.500000,-23.45
9:35:44.515625,-26.92
9:35:44.531250,-33.79
9:35:44.546875,-40.12
9:35:44.562500,-43.05
9:35:44.578125,-41.59
9:35:44.593750,-36.54
9:35:44.609375,-29.65
9:35:44.625000,-22.54
9:35:44.640625,-16.19
9:35:44.656250,-10.92
9:35:44.671875,-6.86
9:35:44.687500,-4.32
9:35:44.703125,-3.83
9:35:44.718750,-5.66
9:35:44.734375,-9.32
9:35:44.750000,-13.36
9:35:44.765625,-15.70
9:35:44.781250,-14.40
9:35:44.796875,-8.53
9:35:44.812500,1.26
9:35:44.828125,12.92
9:35:44.843750,23.66
9:35:44.859375,31.02
9:35:44.875000,33.75
9:35:44.890625,32.10
9:35:44.906250,27.52
9:35:44.921875,21.81
9:35:44.937500,16.34
9:35:44.953125,11.56
9:35:44.968750,7.15
9:35:44.984375,2.43
9:35:45,-3.07
9:35:45.015625,-9.41
9:35:45.031250,-16.24
9:35:45.046875,-22.96
9:35:45.062500,-28.91
9:35:45.078125,-33.49
9:35:45.093750,-36.32
9:35:45.109375,-37.23
9:35:45.125000,-36.50
9:35:45.140625,-34.76
9:35:45.156250,-32.80
9:35:45.171875,-31.13
9:35:45.187500,-29.57
9:35:45.203125,-27.25
9:35:45.218750,-22.94
9:35:45.234375,-15.72
9:35:45.250000,-5.57
9:35:45.265625,6.47
9:35:45.281250,18.64
9:35:45.296875,29.25
9:35:45.312500,37.35
9:35:45.328125,43.08
9:35:45.343750,47.46
9:35:45.359375,51.73
9:35:45.375000,56.66
9:35:45.390625,62.13
9:35:45.406250,67.29
9:35:45.421875,71.01
9:35:45.437500,72.55
9:35:45.453125,71.94
9:35:45.468750,69.91
9:35:45.484375,67.51
9:35:45.500000,65.44
9:35:45.515625,63.78
9:35:45.531250,61.92
9:35:45.546875,58.92
9:35:45.562500,53.96
9:35:45.578125,46.72
9:35:45.593750,37.55
9:35:45.609375,27.36
9:35:45.625000,17.35
9:35:45.640625,8.65
9:35:45.656250,2.02
9:35:45.671875,-2.34
9:35:45.687500,-4.78
9:35:45.703125,-6.05
9:35:45.718750,-7.05
9:35:45.734375,-8.43
9:35:45.750000,-10.51
9:35:45.765625,-13.26
9:35:45.781250,-16.57
9:35:45.796875,-20.39
9:35:45.812500,-24.77
9:35:45.828125,-29.75
9:35:45.843750,-35.11
9:35:45.859375,-40.25
9:35:45.875000,-44.39
9:35:45.890625,-46.87
9:35:45.906250,-47.45
9:35:45.921875,-46.33
9:35:45.937500,-44.01
9:35:45.953125,-40.84
9:35:45.968750,-36.76
9:35:45.984375,-31.26
9:35:46,-23.79
9:35:46.015625,-14.13
9:35:46.031250,-2.80
9:35:46.046875,9.00
9:35:46.062500,19.83
9:35:46.078125,28.46
9:35:46.093750,34.33
9:35:46.109375,37.63
9:35:46.125000,39.13
9:35:46.140625,39.77
9:35:46.156250,40.20
9:35:46.171875,40.62
9:35:46.187500,40.77
9:35:46.203125,40.20
9:35:46.218750,38.57
9:35:46.234375,35.93
9:35:46.250000,32.74
9:35:46.265625,29.72
9:35:46.281250,27.51
9:35:46.296875,26.38
9:35:46.312500,26.10
9:35:46.328125,26.03
9:35:46.343750,25.42
9:35:46.359375,23.71
9:35:46.375000,20.74
9:35:46.390625,16.75
9:35:46.406250,12.10
9:35:46.421875,7.07
9:35:46.437500,1.77
9:35:46.453125,-3.76
9:35:46.468750,-9.23
9:35:46.484375,-14.02
9:35:46.500000,-17.49
9:35:46.515625,-19.59
9:35:46.531250,-21.24
9:35:46.546875,-24.20
9:35:46.562500,-30.06
9:35:46.578125,-39.01
9:35:46.593750,-49.10
9:35:46.609375,-56.55
9:35:46.625000,-57.33
9:35:46.640625,-48.93
9:35:46.656250,-31.60
9:35:46.671875,-8.20
9:35:46.687500,17.05
9:35:46.703125,40.13
9:35:46.718750,58.18
9:35:46.734375,69.69
9:35:46.750000,74.07
9:35:46.765625,71.30
9:35:46.781250,61.91
9:35:46.796875,47.45
9:35:46.812500,30.64
9:35:46.828125,14.92
9:35:46.843750,3.40
9:35:46.859375,-2.21
9:35:46.875000,-2.20
9:35:46.890625,1.37
9:35:46.906250,5.65
9:35:46.921875,8.27
9:35:46.937500,8.22
9:35:46.953125,6.00
9:35:46.968750,3.13
9:35:46.984375,1.25
9:35:47,1.32
9:35:47.015625,3.23
9:35:47.031250,5.89
9:35:47.046875,7.57
9:35:47.062500,6.43
9:35:47.078125,0.95
9:35:47.093750,-9.62
9:35:47.109375,-24.86
9:35:47.125000,-42.85
9:35:47.140625,-60.41
9:35:47.156250,-73.81
9:35:47.171875,-79.99
9:35:47.187500,-77.83
9:35:47.203125,-68.64
9:35:47.218750,-55.63
9:35:47.234375,-42.58
9:35:47.250000,-32.38
9:35:47.265625,-26.12
9:35:47.281250,-23.23
9:35:47.296875,-22.28
9:35:47.312500,-21.90
9:35:47.328125,-21.28
9:35:47.343750,-20.06
9:35:47.359375,-17.98
9:35:47.375000,-14.58
9:35:47.390625,-9.34
9:35:47.406250,-2.03
9:35:47.421875,6.81
9:35:47.437500,15.95
9:35:47.453125,23.79
9:35:47.468750,29.08
9:35:47.484375,31.44
9:35:47.500000,31.55
9:35:47.515625,30.81
9:35:47.531250,30.69
9:35:47.546875,31.97
9:35:47.562500,34.42
9:35:47.578125,36.91
9:35:47.593750,38.04
9:35:47.609375,36.87
9:35:47.625000,33.45
9:35:47.640625,28.78
9:35:47.656250,24.30
9:35:47.671875,21.26
9:35:47.687500,20.08
9:35:47.703125,20.27
9:35:47.718750,20.79
9:35:47.734375,20.58
9:35:47.750000,18.98
9:35:47.765625,15.95
9:35:47.781250,11.86
9:35:47.796875,7.25
9:35:47.812500,2.55
9:35:47.828125,-2.03
9:35:47.843750,-6.44
9:35:47.859375,-10.68
9:35:47.875000,-14.81
9:35:47.890625,-18.91
9:35:47.906250,-23.16
9:35:47.921875,-27.75
9:35:47.937500,-32.80
9:35:47.953125,-38.19
9:35:47.968750,-43.47
9:35:47.984375,-47.87
9:35:48,-50.48
9:35:48.015625,-50.58
9:35:48.031250,-47.82
9:35:48.046875,-42.40
9:35:48.062500,-34.92
9:35:48.078125,-26.26
9:35:48.093750,-17.26
9:35:48.109375,-8.58
9:35:48.125000,-0.66
9:35:48.140625,6.24
9:35:48.156250,11.95
9:35:48.171875,16.41
9:35:48.187500,19.69
9:35:48.203125,21.96
9:35:48.218750,23.50
9:35:48.234375,24.59
9:35:48.250000,25.40
9:35:48.265625,25.93
9:35:48.281250,26.08
9:35:48.296875,25.72
9:35:48.312500,24.85
9:35:48.328125,23.64
9:35:48.343750,22.35
9:35:48.359375,21.31
9:35:48.375000,20.72
9:35:48.390625,20.54
9:35:48.406250,20.52
9:35:48.421875,20.21
9:35:48.437500,19.23
9:35:48.453125,17.34
9:35:48.468750,14.59
9:35:48.484375,11.20
9:35:48.500000,7.44
9:35:48.515625,3.48
9:35:48.531250,-0.63
9:35:48.546875,-4.89
9:35:48.562500,-9.24
9:35:48.578125,-13.57
9:35:48.593750,-17.79
9:35:48.609375,-21.97
9:35:48.625000,-26.34
9:35:48.640625,-31.11
9:35:48.656250,-36.13
9:35:48.671875,-40.77
9:35:48.687500,-43.98
9:35:48.703125,-44.69
9:35:48.718750,-42.29
9:35:48.734375,-36.81
9:35:48.750000,-28.93
9:35:48.765625,-19.64
9:35:48.781250,-9.89
9:35:48.796875,-0.32
9:35:48.812500,8.66
9:35:48.828125,16.82
9:35:48.843750,23.91
9:35:48.859375,29.61
9:35:48.875000,33.69
9:35:48.890625,36.02
9:35:48.906250,36.75
9:35:48.921875,36.19
9:35:48.937500,34.83
9:35:48.953125,33.19
9:35:48.968750,31.71
9:35:48.984375,30.67
9:35:49,30.07
9:35:49.015625,29.70
9:35:49.031250,29.27
9:35:49.046875,28.62
9:35:49.062500,27.77
9:35:49.078125,26.93
9:35:49.093750,26.24
9:35:49.109375,25.69
9:35:49.125000,25.02
9:35:49.140625,23.85
9:35:49.156250,21.88
9:35:49.171875,19.01
9:35:49.187500,15.47
9:35:49.203125,11.64
9:35:49.218750,7.98
9:35:49.234375,4.78
9:35:49.250000,2.12
9:35:49.265625,-0.16
9:35:49.281250,-2.39
9:35:49.296875,-4.97
9:35:49.312500,-8.19
9:35:49.328125,-12.18
9:35:49.343750,-16.85
9:35:49.359375,-21.94
9:35:49.375000,-27.10
9:35:49.390625,-31.96
9:35:49.406250,-36.11
9:35:49.421875,-39.02
9:35:49.437500,-40.13
9:35:49.453125,-38.95
9:35:49.468750,-35.33
9:35:49.484375,-29.59
9:35:49.500000,-22.53
9:35:49.515625,-15.17
9:35:49.531250,-8.35
9:35:49.546875,-2.47
9:35:49.562500,2.54
9:35:49.578125,7.02
9:35:49.593750,11.24
9:35:49.609375,15.18
9:35:49.625000,18.51
9:35:49.640625,20.80
9:35:49.656250,21.79
9:35:49.671875,21.61
9:35:49.687500,20.72
9:35:49.703125,19.75
9:35:49.718750,19.21
9:35:49.734375,19.30
9:35:49.750000,19.85
9:35:49.765625,20.44
9:35:49.781250,20.69
9:35:49.796875,20.43
9:35:49.812500,19.77
9:35:49.828125,19.06
9:35:49.843750,18.64
9:35:49.859375,18.66
9:35:49.875000,18.94
9:35:49.890625,19.05
9:35:49.906250,18.46
9:35:49.921875,16.82
9:35:49.937500,14.08
9:35:49.953125,10.52
9:35:49.968750,6.64
9:35:49.984375,2.93
9:35:50,-0.35
9:35:50.015625,-3.18
9:35:50.031250,-5.80
9:35:50.046875,-8.58
9:35:50.062500,-11.84
9:35:50.078125,-15.72
9:35:50.093750,-20.17
9:35:50.109375,-24.89
9:35:50.125000,-29.36
9:35:50.140625,-32.99
9:35:50.156250,-35.13
9:35:50.171875,-35.30
9:35:50.187500,-33.26
9:35:50.203125,-29.12
9:35:50.218750,-23.40
9:35:50.234375,-16.84
9:35:50.250000,-10.26
9:35:50.265625,-4.32
9:35:50.281250,0.66
9:35:50.296875,4.69
9:35:50.312500,8.00
9:35:50.328125,10.83
9:35:50.343750,13.26
9:35:50.359375,15.22
9:35:50.375000,16.52
9:35:50.390625,17.09
9:35:50.406250,16.98
9:35:50.421875,16.47
9:35:50.437500,15.85
9:35:50.453125,15.40
9:35:50.468750,15.20
9:35:50.484375,15.21
9:35:50.500000,15.29
9:35:50.515625,15.40
9:35:50.531250,15.57
9:35:50.546875,15.86
9:35:50.562500,16.29
9:35:50.578125,16.78
9:35:50.593750,17.10
9:35:50.609375,16.94
9:35:50.625000,16.07
9:35:50.640625,14.39
9:35:50.656250,12.03
9:35:50.671875,9.27
9:35:50.687500,6.38
9:35:50.703125,3.60
9:35:50.718750,0.96
9:35:50.734375,-1.64
9:35:50.750000,-4.35
9:35:50.765625,-7.25
9:35:50.781250,-10.38
9:35:50.796875,-13.68
9:35:50.812500,-17.17
9:35:50.828125,-20.89
9:35:50.843750,-24.91
9:35:50.859375,-29.19
9:35:50.875000,-33.40
9:35:50.890625,-37.00
9:35:50.906250,-39.25
9:35:50.921875,-39.50
9:35:50.937500,-37.43
9:35:50.953125,-33.14
9:35:50.968750,-27.20
9:35:50.984375,-20.40
9:35:51,-13.54
9:35:51.015625,-7.27
9:35:51.031250,-1.95
9:35:51.046875,2.34
9:35:51.062500,5.70
9:35:51.078125,8.33
9:35:51.093750,10.37
9:35:51.109375,11.86
9:35:51.125000,12.80
9:35:51.140625,13.14
9:35:51.156250,12.91
9:35:51.171875,12.26
9:35:51.187500,11.41
9:35:51.203125,10.61
9:35:51.218750,10.02
9:35:51.234375,9.72
9:35:51.250000,9.68
9:35:51.265625,9.83
9:35:51.281250,10.14
9:35:51.296875,10.61
9:35:51.312500,11.21
9:35:51.328125,11.86
9:35:51.343750,12.40
9:35:51.359375,12.61
9:35:51.375000,12.26
9:35:51.390625,11.17
9:35:51.406250,9.35
9:35:51.421875,6.93
9:35:51.437500,4.21
9:35:51.453125,1.50
9:35:51.468750,-1.03
9:35:51.484375,-3.34
9:35:51.500000,-5.59
9:35:51.515625,-7.97
9:35:51.531250,-10.61
9:35:51.546875,-13.52
9:35:51.562500,-16.57
9:35:51.578125,-19.61
9:35:51.593750,-22.53
9:35:51.609375,-25.37
9:35:51.625000,-28.26
9:35:51.640625,-31.29
9:35:51.656250,-34.37
9:35:51.671875,-37.13
9:35:51.687500,-38.98
9:35:51.703125,-39.27
9:35:51.718750,-37.57
9:35:51.734375,-33.81
9:35:51.750000,-28.38
9:35:51.765625,-21.98
9:35:51.781250,-15.38
9:35:51.796875,-9.18
9:35:51.812500,-3.69
9:35:51.828125,1.09
9:35:51.843750,5.26
9:35:51.859375,8.92
9:35:51.875000,12.06
9:35:51.890625,14.56
9:35:51.906250,16.22
9:35:51.921875,16.96
9:35:51.937500,16.82
9:35:51.953125,16.00
9:35:51.968750,14.78
9:35:51.984375,13.45
9:35:52,12.29
9:35:52.015625,11.50
9:35:52.031250,11.17
9:35:52.046875,11.29
9:35:52.062500,11.72
9:35:52.078125,12.22
9:35:52.093750,12.52
9:35:52.109375,12.42
9:35:52.125000,11.89
9:35:52.140625,11.07
9:35:52.156250,10.23
9:35:52.171875,9.57
9:35:52.187500,9.17
9:35:52.203125,8.89
9:35:52.218750,8.49
9:35:52.234375,7.70
9:35:52.250000,6.32
9:35:52.265625,4.25
9:35:52.281250,1.55
9:35:52.296875,-1.69
9:35:52.312500,-5.30
9:35:52.328125,-9.04
9:35:52.343750,-12.66
9:35:52.359375,-15.99
9:35:52.375000,-19.04
9:35:52.390625,-21.94
9:35:52.406250,-24.93
9:35:52.421875,-28.10
9:35:52.437500,-31.28
9:35:52.453125,-33.99
9:35:52.468750,-35.57
9:35:52.484375,-35.51
9:35:52.500000,-33.58
9:35:52.515625,-29.95
9:35:52.531250,-25.06
9:35:52.546875,-19.38
9:35:52.562500,-13.31
9:35:52.578125,-7.09
9:35:52.593750,-1.00
9:35:52.609375,4.61
9:35:52.625000,9.23
9:35:52.640625,12.32
9:35:52.656250,13.58
9:35:52.671875,13.08
9:35:52.687500,11.33
9:35:52.703125,9.09
9:35:52.718750,7.08
9:35:52.734375,5.72
9:35:52.750000,4.96
9:35:52.765625,4.41
9:35:52.781250,3.59
9:35:52.796875,2.12
9:35:52.812500,-0.11
9:35:52.828125,-2.94
9:35:52.843750,-6.05
9:35:52.859375,-9.02
9:35:52.875000,-11.42
9:35:52.890625,-12.84
9:35:52.906250,-12.89
9:35:52.921875,-11.34
9:35:52.937500,-8.28
9:35:52.953125,-4.10
9:35:52.968750,0.47
9:35:52.984375,4.60
9:35:53,7.68
9:35:53.015625,9.40
9:35:53.031250,9.91
9:35:53.046875,9.64
9:35:53.062500,9.08
9:35:53.078125,8.62
9:35:53.093750,8.39
9:35:53.109375,8.36
9:35:53.125000,8.46
9:35:53.140625,8.63
9:35:53.156250,8.83
9:35:53.171875,8.96
9:35:53.187500,8.74
9:35:53.203125,7.77
9:35:53.218750,5.68
9:35:53.234375,2.38
9:35:53.250000,-1.77
9:35:53.265625,-5.96
9:35:53.281250,-9.19
9:35:53.296875,-10.66
9:35:53.312500,-10.10
9:35:53.328125,-7.84
9:35:53.343750,-4.69
9:35:53.359375,-1.53
9:35:53.375000,1.02
9:35:53.390625,2.83
9:35:53.406250,4.11
9:35:53.421875,5.24
9:35:53.437500,6.45
9:35:53.453125,7.72
9:35:53.468750,8.72
9:35:53.484375,9.11
9:35:53.500000,8.70
9:35:53.515625,7.57
9:35:53.531250,6.03
9:35:53.546875,4.47
9:35:53.562500,3.15
9:35:53.578125,2.18
9:35:53.593750,1.49
9:35:53.609375,1.00
9:35:53.625000,0.70
9:35:53.640625,0.66
9:35:53.656250,1.00
9:35:53.671875,1.73
9:35:53.687500,2.72
9:35:53.703125,3.72
9:35:53.718750,4.53
9:35:53.734375,5.04
9:35:53.750000,5.23
9:35:53.765625,5.13
9:35:53.781250,4.62
9:35:53.796875,3.52
9:35:53.812500,1.60
9:35:53.828125,-1.16
9:35:53.843750,-4.51
9:35:53.859375,-8.00
9:35:53.875000,-11.17
9:35:53.890625,-13.80
9:35:53.906250,-16.00
9:35:53.921875,-18.08
9:35:53.937500,-20.40
9:35:53.953125,-23.11
9:35:53.968750,-26.19
9:35:53.984375,-29.47
9:35:54,-32.84
9:35:54.015625,-36.25
9:35:54.031250,-39.54
9:35:54.046875,-42.42
9:35:54.062500,-44.34
9:35:54.078125,-44.70
9:35:54.093750,-43.07
9:35:54.109375,-39.44
9:35:54.125000,-34.23
9:35:54.140625,-28.15
9:35:54.156250,-22.00
9:35:54.171875,-16.38
9:35:54.187500,-11.61
9:35:54.203125,-7.74
9:35:54.218750,-4.68
9:35:54.234375,-2.29
9:35:54.250000,-0.49
9:35:54.265625,0.71
9:35:54.281250,1.26
9:35:54.296875,1.11
9:35:54.312500,0.26
9:35:54.328125,-1.20
9:35:54.343750,-3.20
9:35:54.359375,-5.63
9:35:54.375000,-8.39
9:35:54.390625,-11.26
9:35:54.406250,-13.99
9:35:54.421875,-16.23
9:35:54.437500,-17.84
9:35:54.453125,-18.90
9:35:54.468750,-19.90
9:35:54.484375,-21.54
9:35:54.500000,-24.50
9:35:54.515625,-29.15
9:35:54.531250,-35.38
9:35:54.546875,-42.67
9:35:54.562500,-50.32
9:35:54.578125,-57.72
9:35:54.593750,-64.60
9:35:54.609375,-71.12
9:35:54.625000,-77.92
9:35:54.640625,-86.02
9:35:54.656250,-96.71
9:35:54.671875,-111.14
9:35:54.687500,-129.92
9:35:54.703125,-152.53
9:35:54.718750,-177.12
9:35:54.734375,-200.55
9:35:54.750000,-219.17
9:35:54.765625,-229.84
9:35:54.781250,-231.02
9:35:54.796875,-223.32
9:35:54.812500,-209.21
9:35:54.828125,-192.13
9:35:54.843750,-175.20
9:35:54.859375,-160.10
9:35:54.875000,-146.66
9:35:54.890625,-133.31
9:35:54.906250,-118.15
9:35:54.921875,-99.98
9:35:54.937500,-78.90
9:35:54.953125,-56.03
9:35:54.968750,-32.85
9:35:54.984375,-10.56
9:35:55,10.19
9:35:55.015625,29.05
9:35:55.031250,45.54
9:35:55.046875,58.86
9:35:55.062500,68.18
9:35:55.078125,73.17
9:35:55.093750,74.50
9:35:55.109375,73.92
9:35:55.125000,73.92
9:35:55.140625,77.09
9:35:55.156250,85.56
9:35:55.171875,100.65
9:35:55.187500,122.78
9:35:55.203125,151.36
9:35:55.218750,184.69
9:35:55.234375,220.10
9:35:55.250000,254.39
9:35:55.265625,284.74
9:35:55.281250,309.65
9:35:55.296875,329.44
9:35:55.312500,346.02
9:35:55.328125,361.97
9:35:55.343750,379.14
9:35:55.359375,397.60
9:35:55.375000,415.12
9:35:55.390625,427.59
9:35:55.406250,430.18
9:35:55.421875,418.90
9:35:55.437500,392.05
9:35:55.453125,351.09
9:35:55.468750,300.79
9:35:55.484375,248.30
9:35:55.500000,201.29
9:35:55.515625,165.68
9:35:55.531250,143.50
9:35:55.546875,132.03
9:35:55.562500,124.66
9:35:55.578125,113.28
9:35:55.593750,91.30
9:35:55.609375,56.03
9:35:55.625000,9.47
9:35:55.640625,-42.70
9:35:55.656250,-93.29
9:35:55.671875,-135.90
9:35:55.687500,-166.53
9:35:55.703125,-184.05
9:35:55.718750,-189.82
9:35:55.734375,-186.70
9:35:55.750000,-178.07
9:35:55.765625,-166.99
9:35:55.781250,-155.63
9:35:55.796875,-145.02
9:35:55.812500,-135.16
9:35:55.828125,-125.41
9:35:55.843750,-115.19
9:35:55.859375,-104.41
9:35:55.875000,-93.55
9:35:55.890625,-83.56
9:35:55.906250,-75.38
9:35:55.921875,-69.64
9:35:55.937500,-66.46
9:35:55.953125,-65.56
9:35:55.968750,-66.44
9:35:55.984375,-68.52
9:35:56,-71.28
9:35:56.015625,-74.22
9:35:56.031250,-76.87
9:35:56.046875,-78.80
9:35:56.062500,-79.67
9:35:56.078125,-79.37
9:35:56.093750,-78.04
9:35:56.109375,-76.02
9:35:56.125000,-73.68
9:35:56.140625,-71.31
9:35:56.156250,-69.10
9:35:56.171875,-67.22
9:35:56.187500,-66.01
9:35:56.203125,-66.00
9:35:56.218750,-67.78
9:35:56.234375,-71.66
9:35:56.250000,-77.45
9:35:56.265625,-84.14
9:35:56.281250,-90.02
9:35:56.296875,-93.24
9:35:56.312500,-92.68
9:35:56.328125,-89.08
9:35:56.343750,-85.83
9:35:56.359375,-88.63
9:35:56.375000,-103.85
9:35:56.390625,-135.53
9:35:56.406250,-182.51
9:35:56.421875,-237.28
9:35:56.437500,-287.48
9:35:56.453125,-319.98
9:35:56.468750,-325.65
9:35:56.484375,-302.50
9:35:56.500000,-255.86
9:35:56.515625,-195.29
9:35:56.531250,-130.45
9:35:56.546875,-67.60
9:35:56.562500,-8.61
9:35:56.578125,47.85
9:35:56.593750,104.26
9:35:56.609375,162.79
9:35:56.625000,224.93
9:35:56.640625,291.65
9:35:56.656250,363.09
9:35:56.671875,437.42
9:35:56.687500,509.81
9:35:56.703125,572.46
9:35:56.718750,616.55
9:35:56.734375,635.30
9:35:56.750000,626.57
9:35:56.765625,593.72
9:35:56.781250,544.07
9:35:56.796875,485.86
9:35:56.812500,425.51
9:35:56.828125,366.22
9:35:56.843750,308.51
9:35:56.859375,251.55
9:35:56.875000,194.46
9:35:56.890625,136.86
9:35:56.906250,78.95
9:35:56.921875,21.41
9:35:56.937500,-34.45
9:35:56.953125,-86.83
9:35:56.968750,-133.82
9:35:56.984375,-174.21
9:35:57,-208.05
9:35:57.015625,-236.39
9:35:57.031250,-260.39
9:35:57.046875,-280.16
9:35:57.062500,-294.26
9:35:57.078125,-300.30
9:35:57.093750,-296.48
9:35:57.109375,-282.93
9:35:57.125000,-262.13
9:35:57.140625,-238.03
9:35:57.156250,-214.44
9:35:57.171875,-193.72
9:35:57.187500,-176.31
9:35:57.203125,-161.40
9:35:57.218750,-147.98
9:35:57.234375,-135.65
9:35:57.250000,-124.60
9:35:57.265625,-115.20
9:35:57.281250,-107.41
9:35:57.296875,-100.46
9:35:57.312500,-93.19
9:35:57.328125,-84.71
9:35:57.343750,-74.90
9:35:57.359375,-64.58
9:35:57.375000,-55.08
9:35:57.390625,-47.61
9:35:57.406250,-42.64
9:35:57.421875,-39.67
9:35:57.437500,-37.47
9:35:57.453125,-34.59
9:35:57.468750,-29.95
9:35:57.484375,-23.26
9:35:57.500000,-15.16
9:35:57.515625,-7.02
9:35:57.531250,-0.39
9:35:57.546875,3.47
9:35:57.562500,4.08
9:35:57.578125,1.88
9:35:57.593750,-2.00
9:35:57.609375,-6.23
9:35:57.625000,-9.78
9:35:57.640625,-12.29
9:35:57.656250,-13.97
9:35:57.671875,-15.42
9:35:57.687500,-17.22
9:35:57.703125,-19.72
9:35:57.718750,-22.97
9:35:57.734375,-26.89
9:35:57.750000,-31.22
9:35:57.765625,-35.59
9:35:57.781250,-39.42
9:35:57.796875,-42.01
9:35:57.812500,-42.72
9:35:57.828125,-41.16
9:35:57.843750,-37.36
9:35:57.859375,-31.75
9:35:57.875000,-24.91
9:35:57.890625,-17.40
9:35:57.906250,-9.63
9:35:57.921875,-1.89
9:35:57.937500,5.53
9:35:57.953125,12.25
9:35:57.968750,17.88
9:35:57.984375,22.13
9:35:58,24.96
9:35:58.015625,26.60
9:35:58.031250,27.47
9:35:58.046875,28.07
9:35:58.062500,28.78
9:35:58.078125,29.76
9:35:58.093750,30.91
9:35:58.109375,31.90
9:35:58.125000,32.36
9:35:58.140625,32.05
9:35:58.156250,31.07
9:35:58.171875,29.81
9:35:58.187500,28.78
9:35:58.203125,28.30
9:35:58.218750,28.33
9:35:58.234375,28.47
9:35:58.250000,28.19
9:35:58.265625,27.20
9:35:58.281250,25.53
9:35:58.296875,23.49
9:35:58.312500,21.36
9:35:58.328125,19.16
9:35:58.343750,16.63
9:35:58.359375,13.39
9:35:58.375000,9.29
9:35:58.390625,4.57
9:35:58.406250,-0.16
9:35:58.421875,-4.31
9:35:58.437500,-7.59
9:35:58.453125,-10.21
9:35:58.468750,-12.79
9:35:58.484375,-16.10
9:35:58.500000,-20.61
9:35:58.515625,-26.25
9:35:58.531250,-32.38
9:35:58.546875,-37.94
9:35:58.562500,-41.86
9:35:58.578125,-43.31
9:35:58.593750,-41.94
9:35:58.609375,-37.85
9:35:58.625000,-31.47
9:35:58.640625,-23.47
9:35:58.656250,-14.63
9:35:58.671875,-5.77
9:35:58.687500,2.33
9:35:58.703125,9.09
9:35:58.718750,14.36
9:35:58.734375,18.36
9:35:58.750000,21.66
9:35:58.765625,24.80
9:35:58.781250,28.01
9:35:58.796875,31.12
9:35:58.812500,33.62
9:35:58.828125,35.02
9:35:58.843750,35.12
9:35:58.859375,34.17
9:35:58.875000,32.68
9:35:58.890625,31.23
9:35:58.906250,30.24
9:35:58.921875,29.90
9:35:58.937500,30.23
9:35:58.953125,31.13
9:35:58.968750,32.42
9:35:58.984375,33.79
9:35:59,34.83
9:35:59.015625,35.12
9:35:59.031250,34.35
9:35:59.046875,32.47
9:35:59.062500,29.73
9:35:59.078125,26.56
9:35:59.093750,23.37
9:35:59.109375,20.39
9:35:59.125000,17.63
9:35:59.140625,14.93
9:35:59.156250,12.06
9:35:59.171875,8.88
9:35:59.187500,5.35
9:35:59.203125,1.53
9:35:59.218750,-2.41
9:35:59.234375,-6.28
9:35:59.250000,-9.82
9:35:59.265625,-12.82
9:35:59.281250,-15.27
9:35:59.296875,-17.39
9:35:59.312500,-19.67
9:35:59.328125,-22.68
9:35:59.343750,-26.70
9:35:59.359375,-31.50
9:35:59.375000,-36.22
9:35:59.390625,-39.72
9:35:59.406250,-40.98
9:35:59.421875,-39.51
9:35:59.437500,-35.50
9:35:59.453125,-29.64
9:35:59.468750,-22.75
9:35:59.484375,-15.54
9:35:59.500000,-8.51
9:35:59.515625,-1.93
9:35:59.531250,3.97
9:35:59.546875,9.04
9:35:59.562500,13.25
9:35:59.578125,16.74
9:35:59.593750,19.72
9:35:59.609375,22.38
9:35:59.625000,24.72
9:35:59.640625,26.58
9:35:59.656250,27.76
9:35:59.671875,28.19
9:35:59.687500,27.96
9:35:59.703125,27.30
9:35:59.718750,26.51
9:35:59.734375,25.77
9:35:59.750000,25.23
9:35:59.765625,24.91
9:35:59.781250,24.84
9:35:59.796875,25.03
9:35:59.812500,25.36
9:35:59.828125,25.63
9:35:59.843750,25.58
9:35:59.859375,24.94
9:35:59.875000,23.58
9:35:59.890625,21.57
9:35:59.906250,19.10
9:35:59.921875,16.38
9:35:59.937500,13.59
9:35:59.953125,10.72
9:35:59.968750,7.68
9:35:59.984375,4.39
9:36:00,0.85
9:36:00.015625,-2.81
9:36:00.031250,-6.34
9:36:00.046875,-9.43
9:36:00.062500,-11.88
9:36:00.078125,-13.67
9:36:00.093750,-15.00
9:36:00.109375,-16.27
9:36:00.125000,-17.97
9:36:00.140625,-20.51
9:36:00.156250,-24.04
9:36:00.171875,-28.29
9:36:00.187500,-32.64
9:36:00.203125,-36.20
9:36:00.218750,-38.15
9:36:00.234375,-37.95
9:36:00.250000,-35.50
9:36:00.265625,-31.17
9:36:00.281250,-25.57
9:36:00.296875,-19.40
9:36:00.312500,-13.18
9:36:00.328125,-7.28
9:36:00.343750,-1.86
9:36:00.359375,2.93
9:36:00.375000,6.93
9:36:00.390625,9.99
9:36:00.406250,12.00
9:36:00.421875,13.05
9:36:00.437500,13.41
9:36:00.453125,13.45
9:36:00.468750,13.54
9:36:00.484375,13.93
9:36:00.500000,14.66
9:36:00.515625,15.59
9:36:00.531250,16.52
9:36:00.546875,17.22
9:36:00.562500,17.56
9:36:00.578125,17.52
9:36:00.593750,17.24
9:36:00.609375,16.91
9:36:00.625000,16.73
9:36:00.640625,16.68
9:36:00.656250,16.62
9:36:00.671875,16.21
9:36:00.687500,15.20
9:36:00.703125,13.54
9:36:00.718750,11.51
9:36:00.734375,9.56
9:36:00.750000,8.07
9:36:00.765625,7.11
9:36:00.781250,6.28
9:36:00.796875,4.96
9:36:00.812500,2.59
9:36:00.828125,-0.97
9:36:00.843750,-5.39
9:36:00.859375,-9.98
9:36:00.875000,-13.98
9:36:00.890625,-16.95
9:36:00.906250,-18.95
9:36:00.921875,-20.44
9:36:00.937500,-22.15
9:36:00.953125,-24.70
9:36:00.968750,-28.39
9:36:00.984375,-33.08
9:36:01,-38.27
9:36:01.015625,-43.30
9:36:01.031250,-47.57
9:36:01.046875,-50.60
9:36:01.062500,-51.95
9:36:01.078125,-51.24
9:36:01.093750,-48.12
9:36:01.109375,-42.52
9:36:01.125000,-34.88
9:36:01.140625,-26.12
9:36:01.156250,-17.46
9:36:01.171875,-9.88
9:36:01.187500,-3.73
9:36:01.203125,1.45
9:36:01.218750,6.65
9:36:01.234375,12.80
9:36:01.250000,20.25
9:36:01.265625,28.57
9:36:01.281250,36.77
9:36:01.296875,43.85
9:36:01.312500,49.20
9:36:01.328125,52.80
9:36:01.343750,54.98
9:36:01.359375,56.16
9:36:01.375000,56.50
9:36:01.390625,56.04
9:36:01.406250,54.84
9:36:01.421875,53.24
9:36:01.437500,51.87
9:36:01.453125,51.41
9:36:01.468750,52.09
9:36:01.484375,53.46
9:36:01.500000,54.50
9:36:01.515625,54.07
9:36:01.531250,51.61
9:36:01.546875,47.45
9:36:01.562500,42.58
9:36:01.578125,37.95
9:36:01.593750,33.70
9:36:01.609375,29.08
9:36:01.625000,22.91
9:36:01.640625,14.53
9:36:01.656250,4.52
9:36:01.671875,-5.37
9:36:01.687500,-13.07
9:36:01.703125,-17.29
9:36:01.718750,-18.22
9:36:01.734375,-17.36
9:36:01.750000,-16.60
9:36:01.765625,-17.17
9:36:01.781250,-19.11
9:36:01.796875,-21.54
9:36:01.812500,-23.43
9:36:01.828125,-24.32
9:36:01.843750,-24.44
9:36:01.859375,-24.25
9:36:01.875000,-23.76
9:36:01.890625,-22.18
9:36:01.906250,-18.36
9:36:01.921875,-11.54
9:36:01.937500,-2.19
9:36:01.953125,7.87
9:36:01.968750,16.19
9:36:01.984375,20.76
9:36:02,21.10
9:36:02.015625,18.44
9:36:02.031250,15.11
9:36:02.046875,13.21
9:36:02.062500,13.53
9:36:02.078125,15.11
9:36:02.093750,15.91
9:36:02.109375,13.96
9:36:02.125000,8.47
9:36:02.140625,0.21
9:36:02.156250,-9.01
9:36:02.171875,-17.36
9:36:02.187500,-23.90
9:36:02.203125,-28.80
9:36:02.218750,-32.93
9:36:02.234375,-36.90
9:36:02.250000,-40.44
9:36:02.265625,-42.31
9:36:02.281250,-41.03
9:36:02.296875,-35.82
9:36:02.312500,-27.24
9:36:02.328125,-16.99
9:36:02.343750,-7.14
9:36:02.359375,0.88
9:36:02.375000,6.71
9:36:02.390625,10.81
9:36:02.406250,13.77
9:36:02.421875,15.67
9:36:02.437500,16.02
9:36:02.453125,14.29
9:36:02.468750,10.42
9:36:02.484375,5.15
9:36:02.500000,-0.41
9:36:02.515625,-5.28
9:36:02.531250,-9.12
9:36:02.546875,-12.04
9:36:02.562500,-14.14
9:36:02.578125,-15.22
9:36:02.593750,-14.78
9:36:02.609375,-12.59
9:36:02.625000,-9.08
9:36:02.640625,-5.42
9:36:02.656250,-2.79
9:36:02.671875,-1.73
9:36:02.687500,-1.70
9:36:02.703125,-1.45
9:36:02.718750,0.22
9:36:02.734375,3.51
9:36:02.750000,7.44
9:36:02.765625,10.42
9:36:02.781250,11.12
9:36:02.796875,9.33
9:36:02.812500,6.02
9:36:02.828125,2.80
9:36:02.843750,0.97
9:36:02.859375,0.87
9:36:02.875000,1.80
9:36:02.890625,2.43
9:36:02.906250,1.62
9:36:02.921875,-0.99
9:36:02.937500,-4.86
9:36:02.953125,-8.86
9:36:02.968750,-11.93
9:36:02.984375,-13.57
9:36:03,-14.09
9:36:03.015625,-14.40
9:36:03.031250,-15.51
9:36:03.046875,-18.10
9:36:03.062500,-22.14
9:36:03.078125,-26.98
9:36:03.093750,-31.74
9:36:03.109375,-35.78
9:36:03.125000,-38.95
9:36:03.140625,-41.54
9:36:03.156250,-43.82
9:36:03.171875,-45.68
9:36:03.187500,-46.46
9:36:03.203125,-45.25
9:36:03.218750,-41.44
9:36:03.234375,-35.22
9:36:03.250000,-27.52
9:36:03.265625,-19.76
9:36:03.281250,-13.15
9:36:03.296875,-8.24
9:36:03.312500,-4.80
9:36:03.328125,-2.15
9:36:03.343750,0.26
9:36:03.359375,2.49
9:36:03.375000,4.00
9:36:03.390625,4.10
9:36:03.406250,2.34
9:36:03.421875,-0.99
9:36:03.437500,-4.94
9:36:03.453125,-8.18
9:36:03.468750,-9.60
9:36:03.484375,-8.79
9:36:03.500000,-6.18
9:36:03.515625,-2.78
9:36:03.531250,0.27
9:36:03.546875,2.24
9:36:03.562500,2.97
9:36:03.578125,2.84
9:36:03.593750,2.34
9:36:03.609375,1.84
9:36:03.625000,1.36
9:36:03.640625,0.61
9:36:03.656250,-0.81
9:36:03.671875,-3.17
9:36:03.687500,-6.47
9:36:03.703125,-10.40
9:36:03.718750,-14.50
9:36:03.734375,-18.20
9:36:03.750000,-21.09
9:36:03.765625,-22.82
9:36:03.781250,-23.19
9:36:03.796875,-22.14
9:36:03.812500,-19.71
9:36:03.828125,-16.18
9:36:03.843750,-12.06
9:36:03.859375,-7.91
9:36:03.875000,-4.23
9:36:03.890625,-1.18
9:36:03.906250,1.46
9:36:03.921875,4.17
9:36:03.937500,7.41
9:36:03.953125,11.27
9:36:03.968750,15.41
9:36:03.984375,19.09
9:36:04,21.58
9:36:04.015625,22.52
9:36:04.031250,22.13
9:36:04.046875,21.03
9:36:04.062500,19.94
9:36:04.078125,19.31
9:36:04.093750,19.05
9:36:04.109375,18.64
9:36:04.125000,17.49
9:36:04.140625,15.24
9:36:04.156250,12.04
9:36:04.171875,8.42
9:36:04.187500,5.05
9:36:04.203125,2.41
9:36:04.218750,0.58
9:36:04.234375,-0.73
9:36:04.250000,-2.02
9:36:04.265625,-3.79
9:36:04.281250,-6.30
9:36:04.296875,-9.49
9:36:04.312500,-13.01
9:36:04.328125,-16.35
9:36:04.343750,-19.08
9:36:04.359375,-21.12
9:36:04.375000,-22.78
9:36:04.390625,-24.55
9:36:04.406250,-26.76
9:36:04.421875,-29.20
9:36:04.437500,-31.02
9:36:04.453125,-31.00
9:36:04.468750,-28.08
9:36:04.484375,-21.96
9:36:04.500000,-13.32
9:36:04.515625,-3.63
9:36:04.531250,5.41
9:36:04.546875,12.48
9:36:04.562500,17.05
9:36:04.578125,19.48
9:36:04.593750,20.67
9:36:04.609375,21.56
9:36:04.625000,22.78
9:36:04.640625,24.41
9:36:04.656250,26.07
9:36:04.671875,27.19
9:36:04.687500,27.32
9:36:04.703125,26.36
9:36:04.718750,24.51
9:36:04.734375,22.20
9:36:04.750000,19.88
9:36:04.765625,17.92
9:36:04.781250,16.58
9:36:04.796875,16.04
9:36:04.812500,16.31
9:36:04.828125,17.15
9:36:04.843750,18.00
9:36:04.859375,18.07
9:36:04.875000,16.61
9:36:04.890625,13.29
9:36:04.906250,8.47
9:36:04.921875,3.12
9:36:04.937500,-1.60
9:36:04.953125,-4.85
9:36:04.968750,-6.59
9:36:04.984375,-7.62
9:36:05,-9.20
9:36:05.015625,-12.42
9:36:05.031250,-17.59
9:36:05.046875,-24.06
9:36:05.062500,-30.36
9:36:05.078125,-34.81
9:36:05.093750,-36.13
9:36:05.109375,-33.90
9:36:05.125000,-28.59
9:36:05.140625,-21.30
9:36:05.156250,-13.29
9:36:05.171875,-5.62
9:36:05.187500,1.13
9:36:05.203125,6.77
9:36:05.218750,11.44
9:36:05.234375,15.38
9:36:05.250000,18.83
9:36:05.265625,21.92
9:36:05.281250,24.58
9:36:05.296875,26.58
9:36:05.312500,27.63
9:36:05.328125,27.53
9:36:05.343750,26.33
9:36:05.359375,24.44
9:36:05.375000,22.45
9:36:05.390625,20.97
9:36:05.406250,20.36
9:36:05.421875,20.66
9:36:05.437500,21.55
9:36:05.453125,22.65
9:36:05.468750,23.61
9:36:05.484375,24.23
9:36:05.500000,24.47
9:36:05.515625,24.31
9:36:05.531250,23.76
9:36:05.546875,22.80
9:36:05.562500,21.40
9:36:05.578125,19.63
9:36:05.593750,17.50
9:36:05.609375,15.07
9:36:05.625000,12.39
9:36:05.640625,9.54
9:36:05.656250,6.65
9:36:05.671875,3.94
9:36:05.687500,1.61
9:36:05.703125,-0.26
9:36:05.718750,-1.78
9:36:05.734375,-3.26
9:36:05.750000,-5.01
9:36:05.765625,-7.14
9:36:05.781250,-9.39
9:36:05.796875,-11.14
9:36:05.812500,-11.66
9:36:05.828125,-10.38
9:36:05.843750,-7.20
9:36:05.859375,-2.46
9:36:05.875000,3.25
9:36:05.890625,9.30
9:36:05.906250,15.23
9:36:05.921875,20.72
9:36:05.937500,25.43
9:36:05.953125,28.97
9:36:05.968750,30.94
9:36:05.984375,31.09
9:36:06,29.54
9:36:06.015625,26.81
9:36:06.031250,23.69
9:36:06.046875,20.97
9:36:06.062500,19.18
9:36:06.078125,18.41
9:36:06.093750,18.32
9:36:06.109375,18.37
9:36:06.125000,18.02
9:36:06.140625,16.92
9:36:06.156250,15.02
9:36:06.171875,12.47
9:36:06.187500,9.56
9:36:06.203125,6.56
9:36:06.218750,3.72
9:36:06.234375,1.18
9:36:06.250000,-0.98
9:36:06.265625,-2.80
9:36:06.281250,-4.54
9:36:06.296875,-6.74
9:36:06.312500,-10.03
9:36:06.328125,-14.90
9:36:06.343750,-21.37
9:36:06.359375,-28.75
9:36:06.375000,-35.92
9:36:06.390625,-41.82
9:36:06.406250,-46.04
9:36:06.421875,-49.12
9:36:06.437500,-52.39
9:36:06.453125,-57.29
9:36:06.468750,-64.46
9:36:06.484375,-73.29
9:36:06.500000,-81.88
9:36:06.515625,-87.92
9:36:06.531250,-89.48
9:36:06.546875,-85.94
9:36:06.562500,-78.27
9:36:06.578125,-68.89
9:36:06.593750,-61.36
9:36:06.609375,-60.00
9:36:06.625000,-69.39
9:36:06.640625,-93.44
9:36:06.656250,-133.62
9:36:06.671875,-187.27
9:36:06.687500,-246.80
9:36:06.703125,-300.84
9:36:06.718750,-337.44
