10:09:00,-0.00
10:09:00.015625,-0.00
10:09:00.031250,-0.00
10:09:00.046875,-0.00
10:09:00.062500,-0.00
10:09:00.078125,-0.00
10:09:00.093750,-0.00
10:09:00.109375,-0.00
10:09:00.125000,-0.00
10:09:00.140625,-0.01
10:09:00.156250,-0.00
10:09:00.171875,0.00
10:09:00.187500,0.01
10:09:00.203125,0.01
10:09:00.218750,-0.00
10:09:00.234375,-0.03
10:09:00.250000,-0.05
10:09:00.265625,-0.05
10:09:00.281250,-0.00
10:09:00.296875,0.13
10:09:00.312500,0.36
10:09:00.328125,0.66
10:09:00.343750,1.01
10:09:00.359375,1.37
10:09:00.375000,1.72
10:09:00.390625,2.06
10:09:00.406250,2.40
10:09:00.421875,2.77
10:09:00.437500,3.24
10:09:00.453125,3.80
10:09:00.468750,4.42
10:09:00.484375,5.06
10:09:00.500000,5.66
10:09:00.515625,6.20
10:09:00.531250,6.68
10:09:00.546875,7.15
10:09:00.562500,7.64
10:09:00.578125,8.31
10:09:00.593750,9.14
10:09:00.609375,10.09
10:09:00.625000,11.04
10:09:00.640625,11.88
10:09:00.656250,12.56
10:09:00.671875,13.14
10:09:00.687500,13.76
10:09:00.703125,14.58
10:09:00.718750,15.96
10:09:00.734375,17.91
10:09:00.750000,20.32
10:09:00.765625,22.90
10:09:00.781250,25.38
10:09:00.796875,27.58
10:09:00.812500,29.57
10:09:00.828125,31.68
10:09:00.843750,34.20
10:09:00.859375,37.81
10:09:00.875000,42.54
10:09:00.890625,48.15
10:09:00.906250,54.10
10:09:00.921875,59.83
10:09:00.937500,64.97
10:09:00.953125,69.58
10:09:00.968750,74.14
10:09:00.984375,79.19
10:09:01,85.71
10:09:01.015625,93.76
10:09:01.031250,103.00
10:09:01.046875,112.62
10:09:01.062500,121.73
10:09:01.078125,129.77
10:09:01.093750,136.75
10:09:01.109375,144.29
10:09:01.125000,150.58
10:09:01.140625,157.77
10:09:01.156250,166.64
10:09:01.171875,177.95
10:09:01.187500,191.79
10:09:01.203125,206.97
10:09:01.218750,220.57
10:09:01.234375,228.25
10:09:01.250000,225.36
10:09:01.265625,208.37
10:09:01.281250,176.87
10:09:01.296875,132.76
10:09:01.312500,80.05
10:09:01.328125,23.07
10:09:01.343750,-34.94
10:09:01.359375,-92.44
10:09:01.375000,-149.16
10:09:01.390625,-205.23
10:09:01.406250,-260.49
10:09:01.421875,-313.74
10:09:01.437500,-363.87
10:09:01.453125,-409.83
10:09:01.468750,-450.91
10:09:01.484375,-486.50
10:09:01.500000,-515.74
10:09:01.515625,-537.23
10:09:01.531250,-549.22
10:09:01.546875,-550.04
10:09:01.562500,-538.37
10:09:01.578125,-514.20
10:09:01.593750,-478.67
10:09:01.609375,-433.88
10:09:01.625000,-382.45
10:09:01.640625,-327.02
10:09:01.656250,-269.84
10:09:01.671875,-212.63
10:09:01.687500,-156.70
10:09:01.703125,-102.95
10:09:01.718750,-52.37
10:09:01.734375,-5.90
10:09:01.750000,35.58
10:09:01.765625,71.43
10:09:01.781250,101.35
10:09:01.796875,125.50
10:09:01.812500,144.38
10:09:01.828125,158.68
10:09:01.843750,169.15
10:09:01.859375,176.37
10:09:01.875000,180.75
10:09:01.890625,182.57
10:09:01.906250,182.07
10:09:01.921875,179.51
10:09:01.937500,175.23
10:09:01.953125,169.65
10:09:01.968750,163.18
10:09:01.984375,156.15
10:09:02,148.81
10:09:02.015625,141.30
10:09:02.031250,133.69
10:09:02.046875,126.01
10:09:02.062500,118.33
10:09:02.078125,110.69
10:09:02.093750,103.17
10:09:02.109375,95.83
10:09:02.125000,88.71
10:09:02.140625,81.83
10:09:02.156250,75.20
10:09:02.171875,68.83
10:09:02.187500,62.74
10:09:02.203125,56.97
10:09:02.218750,51.54
10:09:02.234375,46.46
10:09:02.250000,41.73
10:09:02.265625,37.30
10:09:02.281250,33.16
10:09:02.296875,29.27
10:09:02.312500,25.65
10:09:02.328125,22.30
10:09:02.343750,19.25
10:09:02.359375,16.51
10:09:02.375000,14.08
10:09:02.390625,11.94
10:09:02.406250,10.02
10:09:02.421875,8.27
10:09:02.437500,6.66
10:09:02.453125,5.18
10:09:02.468750,3.87
10:09:02.484375,2.78
10:09:02.500000,1.95
10:09:02.515625,1.35
10:09:02.531250,0.92
10:09:02.546875,0.52
10:09:02.562500,0.03
10:09:02.578125,-0.60
10:09:02.593750,-1.37
10:09:02.609375,-2.14
10:09:02.625000,-2.74
10:09:02.640625,-3.05
10:09:02.656250,-3.05
10:09:02.671875,-2.90
10:09:02.687500,-2.82
10:09:02.703125,-3.08
10:09:02.718750,-3.78
10:09:02.734375,-4.86
10:09:02.750000,-6.05
10:09:02.765625,-7.00
10:09:02.781250,-7.45
10:09:02.796875,-7.36
10:09:02.812500,-6.97
10:09:02.828125,-6.70
10:09:02.843750,-6.97
10:09:02.859375,-7.99
10:09:02.875000,-9.65
10:09:02.890625,-11.51
10:09:02.906250,-13.05
10:09:02.921875,-13.90
10:09:02.937500,-13.96
10:09:02.953125,-13.50
10:09:02.968750,-13.02
10:09:02.984375,-12.99
10:09:03,-13.75
10:09:03.015625,-15.52
10:09:03.031250,-18.29
10:09:03.046875,-21.77
10:09:03.062500,-25.15
10:09:03.078125,-27.10
10:09:03.093750,-26.07
10:09:03.109375,-20.92
10:09:03.125000,-11.63
10:09:03.140625,0.40
10:09:03.156250,12.70
10:09:03.171875,22.72
10:09:03.187500,28.82
10:09:03.203125,30.86
10:09:03.218750,30.00
10:09:03.234375,27.94
10:09:03.250000,25.94
10:09:03.265625,24.45
10:09:03.281250,23.17
10:09:03.296875,21.67
10:09:03.312500,19.79
10:09:03.328125,17.84
10:09:03.343750,16.32
10:09:03.359375,15.57
10:09:03.375000,15.54
10:09:03.390625,15.84
10:09:03.406250,15.97
10:09:03.421875,15.58
10:09:03.437500,14.64
10:09:03.453125,13.45
10:09:03.468750,12.47
10:09:03.484375,12.19
10:09:03.500000,12.92
10:09:03.515625,14.61
10:09:03.531250,16.96
10:09:03.546875,19.45
10:09:03.562500,21.60
10:09:03.578125,23.12
10:09:03.593750,23.93
10:09:03.609375,24.17
10:09:03.625000,24.01
10:09:03.640625,23.57
10:09:03.656250,22.82
10:09:03.671875,21.67
10:09:03.687500,20.01
10:09:03.703125,17.82
10:09:03.718750,15.10
10:09:03.734375,12.04
10:09:03.750000,8.62
10:09:03.765625,4.92
10:09:03.781250,1.05
10:09:03.796875,-2.80
10:09:03.812500,-6.43
10:09:03.828125,-9.68
10:09:03.843750,-12.42
10:09:03.859375,-14.61
10:09:03.875000,-16.28
10:09:03.890625,-17.47
10:09:03.906250,-18.24
10:09:03.921875,-18.62
10:09:03.937500,-18.68
10:09:03.953125,-18.47
10:09:03.968750,-17.98
10:09:03.984375,-17.24
10:09:04,-16.24
10:09:04.015625,-15.05
10:09:04.031250,-13.77
10:09:04.046875,-12.55
10:09:04.062500,-11.52
10:09:04.078125,-10.79
10:09:04.093750,-10.35
10:09:04.109375,-10.14
10:09:04.125000,-10.03
10:09:04.140625,-9.91
10:09:04.156250,-9.68
10:09:04.171875,-9.29
10:09:04.187500,-8.75
10:09:04.203125,-8.09
10:09:04.218750,-7.43
10:09:04.234375,-6.79
10:09:04.250000,-6.20
10:09:04.265625,-5.55
10:09:04.281250,-4.72
10:09:04.296875,-3.54
10:09:04.312500,-1.98
10:09:04.328125,-0.07
10:09:04.343750,2.01
10:09:04.359375,4.04
10:09:04.375000,5.78
10:09:04.390625,7.08
10:09:04.406250,7.83
10:09:04.421875,8.00
10:09:04.437500,7.73
10:09:04.453125,7.17
10:09:04.468750,6.60
10:09:04.484375,6.26
10:09:04.500000,6.28
10:09:04.515625,6.66
10:09:04.531250,7.22
10:09:04.546875,7.73
10:09:04.562500,7.96
10:09:04.578125,7.83
10:09:04.593750,7.38
10:09:04.609375,6.78
10:09:04.625000,6.20
10:09:04.640625,5.80
10:09:04.656250,5.65
10:09:04.671875,5.72
10:09:04.687500,5.89
10:09:04.703125,6.03
10:09:04.718750,5.97
10:09:04.734375,5.65
10:09:04.750000,5.07
10:09:04.765625,4.25
10:09:04.781250,3.25
10:09:04.796875,2.12
10:09:04.812500,0.91
10:09:04.828125,-0.34
10:09:04.843750,-1.53
10:09:04.859375,-2.59
10:09:04.875000,-3.50
10:09:04.890625,-4.35
10:09:04.906250,-5.37
10:09:04.921875,-6.82
10:09:04.937500,-8.88
10:09:04.953125,-11.48
10:09:04.968750,-14.33
10:09:04.984375,-17.05
10:09:05,-19.34
10:09:05.015625,-21.10
10:09:05.031250,-22.37
10:09:05.046875,-23.25
10:09:05.062500,-23.71
10:09:05.078125,-23.51
10:09:05.093750,-22.36
10:09:05.109375,-20.07
10:09:05.125000,-16.67
10:09:05.140625,-12.52
10:09:05.156250,-8.12
10:09:05.171875,-3.97
10:09:05.187500,-0.40
10:09:05.203125,2.48
10:09:05.218750,4.75
10:09:05.234375,6.58
10:09:05.250000,8.12
10:09:05.265625,9.54
10:09:05.281250,10.93
10:09:05.296875,12.31
10:09:05.312500,13.63
10:09:05.328125,14.81
10:09:05.343750,15.73
10:09:05.359375,16.36
10:09:05.375000,16.73
10:09:05.390625,16.95
10:09:05.406250,17.10
10:09:05.421875,17.24
10:09:05.437500,17.29
10:09:05.453125,17.17
10:09:05.468750,16.81
10:09:05.484375,16.14
10:09:05.500000,15.19
10:09:05.515625,13.99
10:09:05.531250,12.58
10:09:05.546875,10.96
10:09:05.562500,9.19
10:09:05.578125,7.32
10:09:05.593750,5.40
10:09:05.609375,3.54
10:09:05.625000,1.78
10:09:05.640625,0.14
10:09:05.656250,-1.44
10:09:05.671875,-3.02
10:09:05.687500,-4.67
10:09:05.703125,-6.44
10:09:05.718750,-8.37
10:09:05.734375,-10.45
10:09:05.750000,-12.65
10:09:05.765625,-14.86
10:09:05.781250,-16.93
10:09:05.796875,-18.67
10:09:05.812500,-19.93
10:09:05.828125,-20.60
10:09:05.843750,-20.60
10:09:05.859375,-19.94
10:09:05.875000,-18.62
10:09:05.890625,-16.63
10:09:05.906250,-13.98
10:09:05.921875,-10.71
10:09:05.937500,-7.02
10:09:05.953125,-3.22
10:09:05.968750,0.34
10:09:05.984375,3.35
10:09:06,5.69
10:09:06.015625,7.47
10:09:06.031250,8.90
10:09:06.046875,10.20
10:09:06.062500,11.46
10:09:06.078125,12.64
10:09:06.093750,13.62
10:09:06.109375,14.28
10:09:06.125000,14.59
10:09:06.140625,14.60
10:09:06.156250,14.43
10:09:06.171875,14.16
10:09:06.187500,13.78
10:09:06.203125,13.21
10:09:06.218750,12.35
10:09:06.234375,11.14
10:09:06.250000,9.60
10:09:06.265625,7.86
10:09:06.281250,6.13
10:09:06.296875,4.60
10:09:06.312500,3.41
10:09:06.328125,2.53
10:09:06.343750,1.81
10:09:06.359375,0.98
10:09:06.375000,-0.19
10:09:06.390625,-1.83
10:09:06.406250,-3.90
10:09:06.421875,-6.19
10:09:06.437500,-8.47
10:09:06.453125,-10.54
10:09:06.468750,-12.40
10:09:06.484375,-14.15
10:09:06.500000,-15.99
10:09:06.515625,-18.04
10:09:06.531250,-20.19
10:09:06.546875,-22.12
10:09:06.562500,-23.38
10:09:06.578125,-23.60
10:09:06.593750,-22.61
10:09:06.609375,-20.51
10:09:06.625000,-17.58
10:09:06.640625,-14.22
10:09:06.656250,-10.73
10:09:06.671875,-7.29
10:09:06.687500,-3.97
10:09:06.703125,-0.77
10:09:06.718750,2.26
10:09:06.734375,5.04
10:09:06.750000,7.48
10:09:06.765625,9.48
10:09:06.781250,10.96
10:09:06.796875,11.88
10:09:06.812500,12.27
10:09:06.828125,12.22
10:09:06.843750,11.90
10:09:06.859375,11.51
10:09:06.875000,11.22
10:09:06.890625,11.06
10:09:06.906250,10.99
10:09:06.921875,10.82
10:09:06.937500,10.42
10:09:06.953125,9.66
10:09:06.968750,8.60
10:09:06.984375,7.41
10:09:07,6.30
10:09:07.015625,5.46
10:09:07.031250,4.93
10:09:07.046875,4.56
10:09:07.062500,4.02
10:09:07.078125,3.00
10:09:07.093750,1.29
10:09:07.109375,-1.09
10:09:07.125000,-3.85
10:09:07.140625,-6.62
10:09:07.156250,-9.08
10:09:07.171875,-11.12
10:09:07.187500,-12.85
10:09:07.203125,-14.48
10:09:07.218750,-16.17
10:09:07.234375,-17.91
10:09:07.250000,-19.49
10:09:07.265625,-20.62
10:09:07.281250,-21.00
10:09:07.296875,-20.42
10:09:07.312500,-18.86
10:09:07.328125,-16.38
10:09:07.343750,-13.21
10:09:07.359375,-9.67
10:09:07.375000,-6.13
10:09:07.390625,-2.92
10:09:07.406250,-0.26
10:09:07.421875,1.79
10:09:07.437500,3.33
10:09:07.453125,4.53
10:09:07.468750,5.56
10:09:07.484375,6.48
10:09:07.500000,7.31
10:09:07.515625,8.03
10:09:07.531250,8.65
10:09:07.546875,9.23
10:09:07.562500,9.84
10:09:07.578125,10.45
10:09:07.593750,11.00
10:09:07.609375,11.36
10:09:07.625000,11.36
10:09:07.640625,10.93
10:09:07.656250,10.02
10:09:07.671875,8.72
10:09:07.687500,7.16
10:09:07.703125,5.53
10:09:07.718750,3.99
10:09:07.734375,2.66
10:09:07.750000,1.55
10:09:07.765625,0.57
10:09:07.781250,-0.43
10:09:07.796875,-1.59
10:09:07.812500,-2.99
10:09:07.828125,-4.57
10:09:07.843750,-6.26
10:09:07.859375,-7.95
10:09:07.875000,-9.58
10:09:07.890625,-11.17
10:09:07.906250,-12.78
10:09:07.921875,-14.49
10:09:07.937500,-16.31
10:09:07.953125,-18.16
10:09:07.968750,-19.85
10:09:07.984375,-21.11
10:09:08,-21.57
10:09:08.015625,-20.96
10:09:08.031250,-19.12
10:09:08.046875,-16.12
10:09:08.062500,-12.29
10:09:08.078125,-8.04
10:09:08.093750,-3.88
10:09:08.109375,-0.17
10:09:08.125000,2.87
10:09:08.140625,5.20
10:09:08.156250,6.92
10:09:08.171875,8.19
10:09:08.187500,9.20
10:09:08.203125,10.13
10:09:08.218750,11.06
10:09:08.234375,12.02
10:09:08.250000,12.92
10:09:08.265625,13.61
10:09:08.281250,13.99
10:09:08.296875,14.05
10:09:08.312500,13.84
10:09:08.328125,13.49
10:09:08.343750,13.07
10:09:08.359375,12.58
10:09:08.375000,12.00
10:09:08.390625,11.34
10:09:08.406250,10.68
10:09:08.421875,10.13
10:09:08.437500,9.74
10:09:08.453125,9.41
10:09:08.468750,8.88
10:09:08.484375,7.83
10:09:08.500000,6.10
10:09:08.515625,3.71
10:09:08.531250,0.93
10:09:08.546875,-1.91
10:09:08.562500,-4.54
10:09:08.578125,-6.92
10:09:08.593750,-9.14
10:09:08.609375,-11.41
10:09:08.625000,-13.86
10:09:08.640625,-16.53
10:09:08.656250,-19.34
10:09:08.671875,-22.07
10:09:08.687500,-24.45
10:09:08.703125,-26.10
10:09:08.718750,-26.64
10:09:08.734375,-25.73
10:09:08.750000,-23.25
10:09:08.765625,-19.37
10:09:08.781250,-14.63
10:09:08.796875,-9.78
10:09:08.812500,-5.58
10:09:08.828125,-2.49
10:09:08.843750,-0.59
10:09:08.859375,0.42
10:09:08.875000,1.02
10:09:08.890625,1.67
10:09:08.906250,2.60
10:09:08.921875,3.81
10:09:08.937500,5.12
10:09:08.953125,6.33
10:09:08.968750,7.34
10:09:08.984375,8.13
10:09:09,8.77
10:09:09.015625,9.31
10:09:09.031250,9.70
10:09:09.046875,9.79
10:09:09.062500,9.44
10:09:09.078125,8.59
10:09:09.093750,7.31
10:09:09.109375,5.87
10:09:09.125000,4.54
10:09:09.140625,3.50
10:09:09.156250,2.75
10:09:09.171875,2.08
10:09:09.187500,1.14
10:09:09.203125,-0.30
10:09:09.218750,-2.29
10:09:09.234375,-4.62
10:09:09.250000,-6.90
10:09:09.265625,-8.77
10:09:09.281250,-10.06
10:09:09.296875,-10.86
10:09:09.312500,-11.50
10:09:09.328125,-12.31
10:09:09.343750,-13.62
10:09:09.359375,-15.45
10:09:09.375000,-17.65
10:09:09.390625,-19.87
10:09:09.406250,-21.65
10:09:09.421875,-22.55
10:09:09.437500,-22.24
10:09:09.453125,-20.52
10:09:09.468750,-17.44
10:09:09.484375,-13.27
10:09:09.500000,-8.52
10:09:09.515625,-3.77
10:09:09.531250,0.39
10:09:09.546875,3.60
10:09:09.562500,5.73
10:09:09.578125,6.95
10:09:09.593750,7.63
10:09:09.609375,8.21
10:09:09.625000,9.04
10:09:09.640625,10.27
10:09:09.656250,11.75
10:09:09.671875,13.17
10:09:09.687500,14.18
10:09:09.703125,14.56
10:09:09.718750,14.39
10:09:09.734375,13.92
10:09:09.750000,13.50
10:09:09.765625,13.34
10:09:09.781250,13.45
10:09:09.796875,13.62
10:09:09.812500,13.53
10:09:09.828125,12.97
10:09:09.843750,11.93
10:09:09.859375,10.59
10:09:09.875000,9.21
10:09:09.890625,7.94
10:09:09.906250,6.80
10:09:09.921875,5.62
10:09:09.937500,4.23
10:09:09.953125,2.55
10:09:09.968750,0.65
10:09:09.984375,-1.24
10:09:10,-2.91
10:09:10.015625,-4.33
10:09:10.031250,-5.63
10:09:10.046875,-7.07
10:09:10.062500,-8.85
10:09:10.078125,-10.99
10:09:10.093750,-13.32
10:09:10.109375,-15.59
10:09:10.125000,-17.62
10:09:10.140625,-19.41
10:09:10.156250,-21.13
10:09:10.171875,-22.88
10:09:10.187500,-24.56
10:09:10.203125,-25.80
10:09:10.218750,-26.04
10:09:10.234375,-24.75
10:09:10.250000,-21.79
10:09:10.265625,-17.34
10:09:10.281250,-11.99
10:09:10.296875,-6.35
10:09:10.312500,-0.83
10:09:10.328125,4.53
10:09:10.343750,9.99
10:09:10.359375,15.85
10:09:10.375000,22.12
10:09:10.390625,28.37
10:09:10.406250,33.81
10:09:10.421875,37.59
10:09:10.437500,39.17
10:09:10.453125,38.53
10:09:10.468750,36.15
10:09:10.484375,32.77
10:09:10.500000,29.07
10:09:10.515625,25.45
10:09:10.531250,22.00
10:09:10.546875,18.63
10:09:10.562500,15.21
10:09:10.578125,11.64
10:09:10.593750,7.87
10:09:10.609375,3.88
10:09:10.625000,-0.30
10:09:10.640625,-4.49
10:09:10.656250,-8.27
10:09:10.671875,-11.07
10:09:10.687500,-12.23
10:09:10.703125,-11.33
10:09:10.718750,-8.29
10:09:10.734375,-3.47
10:09:10.750000,2.51
10:09:10.765625,8.85
10:09:10.781250,14.83
10:09:10.796875,19.79
10:09:10.812500,23.22
10:09:10.828125,24.76
10:09:10.843750,24.19
10:09:10.859375,21.58
10:09:10.875000,17.25
10:09:10.890625,11.83
10:09:10.906250,6.06
10:09:10.921875,0.68
10:09:10.937500,-3.80
10:09:10.953125,-7.16
10:09:10.968750,-9.43
10:09:10.984375,-10.83
10:09:11,-11.65
10:09:11.015625,-12.10
10:09:11.031250,-12.35
10:09:11.046875,-12.41
10:09:11.062500,-12.22
10:09:11.078125,-11.66
10:09:11.093750,-10.60
10:09:11.109375,-8.97
10:09:11.125000,-6.76
10:09:11.140625,-4.10
10:09:11.156250,-1.21
10:09:11.171875,1.64
10:09:11.187500,4.17
10:09:11.203125,6.16
10:09:11.218750,7.43
10:09:11.234375,7.84
10:09:11.250000,7.27
10:09:11.265625,5.73
10:09:11.281250,3.36
10:09:11.296875,0.52
10:09:11.312500,-2.28
10:09:11.328125,-4.50
10:09:11.343750,-5.81
10:09:11.359375,-6.20
10:09:11.375000,-5.95
10:09:11.390625,-5.60
10:09:11.406250,-5.60
10:09:11.421875,-6.21
10:09:11.437500,-7.40
10:09:11.453125,-8.91
10:09:11.468750,-10.48
10:09:11.484375,-11.96
10:09:11.500000,-13.35
10:09:11.515625,-14.79
10:09:11.531250,-16.44
10:09:11.546875,-18.44
10:09:11.562500,-20.87
10:09:11.578125,-23.81
10:09:11.593750,-27.33
10:09:11.609375,-31.47
10:09:11.625000,-36.16
10:09:11.640625,-41.20
10:09:11.656250,-46.27
10:09:11.671875,-50.97
10:09:11.687500,-54.92
10:09:11.703125,-57.87
10:09:11.718750,-59.62
10:09:11.734375,-60.05
10:09:11.750000,-59.05
10:09:11.765625,-56.53
10:09:11.781250,-52.45
10:09:11.796875,-46.81
10:09:11.812500,-39.72
10:09:11.828125,-31.33
10:09:11.843750,-21.81
10:09:11.859375,-11.37
10:09:11.875000,-0.28
10:09:11.890625,11.06
10:09:11.906250,22.17
10:09:11.921875,32.52
10:09:11.937500,41.63
10:09:11.953125,49.16
10:09:11.968750,54.95
10:09:11.984375,59.03
10:09:12,61.49
10:09:12.015625,62.50
10:09:12.031250,62.27
10:09:12.046875,61.05
10:09:12.062500,59.09
10:09:12.078125,56.67
10:09:12.093750,54.01
10:09:12.109375,51.25
10:09:12.125000,48.42
10:09:12.140625,45.50
10:09:12.156250,42.43
10:09:12.171875,39.15
10:09:12.187500,35.74
10:09:12.203125,32.36
10:09:12.218750,29.25
10:09:12.234375,26.59
10:09:12.250000,24.41
10:09:12.265625,22.50
10:09:12.281250,20.51
10:09:12.296875,18.10
10:09:12.312500,15.13
10:09:12.328125,11.71
10:09:12.343750,8.14
10:09:12.359375,4.76
10:09:12.375000,1.81
10:09:12.390625,-0.64
10:09:12.406250,-2.62
10:09:12.421875,-4.17
10:09:12.437500,-5.28
10:09:12.453125,-5.94
10:09:12.468750,-6.20
10:09:12.484375,-6.16
10:09:12.500000,-6.00
10:09:12.515625,-5.79
10:09:12.531250,-5.50
10:09:12.546875,-4.96
10:09:12.562500,-3.98
10:09:12.578125,-2.46
10:09:12.593750,-0.51
10:09:12.609375,1.56
10:09:12.625000,3.40
10:09:12.640625,4.73
10:09:12.656250,5.52
10:09:12.671875,5.94
10:09:12.687500,6.24
10:09:12.703125,6.63
10:09:12.718750,7.13
10:09:12.734375,7.59
10:09:12.750000,7.78
10:09:12.765625,7.54
10:09:12.781250,6.93
10:09:12.796875,6.18
10:09:12.812500,5.55
10:09:12.828125,5.20
10:09:12.843750,5.12
10:09:12.859375,5.10
10:09:12.875000,4.92
10:09:12.890625,4.44
10:09:12.906250,3.69
10:09:12.921875,2.84
10:09:12.937500,2.09
10:09:12.953125,1.53
10:09:12.968750,1.16
10:09:12.984375,0.83
10:09:13,0.35
10:09:13.015625,-0.39
10:09:13.031250,-1.41
10:09:13.046875,-2.61
10:09:13.062500,-3.87
10:09:13.078125,-5.10
10:09:13.093750,-6.30
10:09:13.109375,-7.54
10:09:13.125000,-8.91
10:09:13.140625,-10.44
10:09:13.156250,-12.06
10:09:13.171875,-13.65
10:09:13.187500,-15.09
10:09:13.203125,-16.23
10:09:13.218750,-16.91
10:09:13.234375,-16.99
10:09:13.250000,-16.29
10:09:13.265625,-14.75
10:09:13.281250,-12.45
10:09:13.296875,-9.67
10:09:13.312500,-6.82
10:09:13.328125,-4.28
10:09:13.343750,-2.23
10:09:13.359375,-0.64
10:09:13.375000,0.71
10:09:13.390625,2.02
10:09:13.406250,3.39
10:09:13.421875,4.75
10:09:13.437500,5.98
10:09:13.453125,6.99
10:09:13.468750,7.79
10:09:13.484375,8.47
10:09:13.500000,9.07
10:09:13.515625,9.61
10:09:13.531250,9.99
10:09:13.546875,10.18
10:09:13.562500,10.18
10:09:13.578125,10.08
10:09:13.593750,10.00
10:09:13.609375,10.00
10:09:13.625000,10.04
10:09:13.640625,10.00
10:09:13.656250,9.72
10:09:13.671875,9.12
10:09:13.687500,8.16
10:09:13.703125,6.95
10:09:13.718750,5.63
10:09:13.734375,4.40
10:09:13.750000,3.37
10:09:13.765625,2.56
10:09:13.781250,1.83
10:09:13.796875,0.93
10:09:13.812500,-0.34
10:09:13.828125,-2.08
10:09:13.843750,-4.15
10:09:13.859375,-6.28
10:09:13.875000,-8.16
10:09:13.890625,-9.59
10:09:13.906250,-10.54
10:09:13.921875,-11.16
10:09:13.937500,-11.65
10:09:13.953125,-12.12
10:09:13.968750,-12.61
10:09:13.984375,-13.02
10:09:14,-13.26
10:09:14.015625,-13.19
10:09:14.031250,-12.72
10:09:14.046875,-11.73
10:09:14.062500,-10.17
10:09:14.078125,-8.05
10:09:14.093750,-5.51
10:09:14.109375,-2.90
10:09:14.125000,-0.64
10:09:14.140625,0.82
10:09:14.156250,1.14
10:09:14.171875,0.28
10:09:14.187500,-1.46
10:09:14.203125,-3.51
10:09:14.218750,-5.18
10:09:14.234375,-5.93
10:09:14.250000,-5.58
10:09:14.265625,-4.35
10:09:14.281250,-2.77
10:09:14.296875,-1.32
10:09:14.312500,-0.22
10:09:14.328125,0.70
10:09:14.343750,1.80
10:09:14.359375,3.31
10:09:14.375000,5.10
10:09:14.390625,6.69
10:09:14.406250,7.50
10:09:14.421875,7.25
10:09:14.437500,6.15
10:09:14.453125,4.83
10:09:14.468750,4.00
10:09:14.484375,4.06
10:09:14.500000,4.94
10:09:14.515625,6.13
10:09:14.531250,6.98
10:09:14.546875,7.04
10:09:14.562500,6.24
10:09:14.578125,4.85
10:09:14.593750,3.31
10:09:14.609375,1.97
10:09:14.625000,0.96
10:09:14.640625,0.16
10:09:14.656250,-0.69
10:09:14.671875,-1.79
10:09:14.687500,-3.23
10:09:14.703125,-4.84
10:09:14.718750,-6.42
10:09:14.734375,-7.74
10:09:14.750000,-8.74
10:09:14.765625,-9.45
10:09:14.781250,-9.95
10:09:14.796875,-10.25
10:09:14.812500,-10.26
10:09:14.828125,-9.82
10:09:14.843750,-8.86
10:09:14.859375,-7.43
10:09:14.875000,-5.70
10:09:14.890625,-3.88
10:09:14.906250,-2.10
10:09:14.921875,-0.39
10:09:14.937500,1.27
10:09:14.953125,2.95
10:09:14.968750,4.69
10:09:14.984375,6.53
10:09:15,8.48
10:09:15.015625,10.53
10:09:15.031250,12.53
10:09:15.046875,14.21
10:09:15.062500,15.19
10:09:15.078125,15.15
10:09:15.093750,13.98
10:09:15.109375,11.89
10:09:15.125000,9.38
10:09:15.140625,7.03
10:09:15.156250,5.29
10:09:15.171875,4.37
10:09:15.187500,4.20
10:09:15.203125,4.50
10:09:15.218750,4.93
10:09:15.234375,5.21
10:09:15.250000,5.17
10:09:15.265625,4.73
10:09:15.281250,3.87
10:09:15.296875,2.56
10:09:15.312500,0.84
10:09:15.328125,-1.20
10:09:15.343750,-3.36
10:09:15.359375,-5.38
10:09:15.375000,-7.12
10:09:15.390625,-8.53
10:09:15.406250,-9.82
10:09:15.421875,-11.27
10:09:15.437500,-13.12
10:09:15.453125,-15.42
10:09:15.468750,-17.95
10:09:15.484375,-20.34
10:09:15.500000,-22.21
10:09:15.515625,-23.28
10:09:15.531250,-23.46
10:09:15.546875,-22.72
10:09:15.562500,-21.12
10:09:15.578125,-18.72
10:09:15.593750,-15.65
10:09:15.609375,-12.14
10:09:15.625000,-8.51
10:09:15.640625,-5.08
10:09:15.656250,-2.12
10:09:15.671875,0.25
10:09:15.687500,2.05
10:09:15.703125,3.36
10:09:15.718750,4.32
10:09:15.734375,5.06
10:09:15.750000,5.77
10:09:15.765625,6.62
10:09:15.781250,7.76
10:09:15.796875,9.20
10:09:15.812500,10.83
10:09:15.828125,12.41
10:09:15.843750,13.67
10:09:15.859375,14.44
10:09:15.875000,14.67
10:09:15.890625,14.48
10:09:15.906250,13.98
10:09:15.921875,13.26
10:09:15.937500,12.34
10:09:15.953125,11.18
10:09:15.968750,9.79
10:09:15.984375,8.30
10:09:16,6.92
10:09:16.015625,5.83
10:09:16.031250,5.10
10:09:16.046875,4.61
10:09:16.062500,4.06
10:09:16.078125,3.13
10:09:16.093750,1.60
10:09:16.109375,-0.48
10:09:16.125000,-2.88
10:09:16.140625,-5.28
10:09:16.156250,-7.43
10:09:16.171875,-9.23
10:09:16.187500,-10.79
10:09:16.203125,-12.24
10:09:16.218750,-13.67
10:09:16.234375,-15.08
10:09:16.250000,-16.44
10:09:16.265625,-17.72
10:09:16.281250,-18.93
10:09:16.296875,-20.04
10:09:16.312500,-20.88
10:09:16.328125,-21.12
10:09:16.343750,-20.41
10:09:16.359375,-18.52
10:09:16.375000,-15.54
10:09:16.390625,-11.92
10:09:16.406250,-8.26
10:09:16.421875,-5.13
10:09:16.437500,-2.81
10:09:16.453125,-1.25
10:09:16.468750,-0.17
10:09:16.484375,0.72
10:09:16.500000,1.61
10:09:16.515625,2.55
10:09:16.531250,3.53
10:09:16.546875,4.56
10:09:16.562500,5.70
10:09:16.578125,6.97
10:09:16.593750,8.32
10:09:16.609375,9.57
10:09:16.625000,10.48
10:09:16.640625,10.84
10:09:16.656250,10.58
10:09:16.671875,9.85
10:09:16.687500,8.96
10:09:16.703125,8.24
10:09:16.718750,7.91
10:09:16.734375,8.00
10:09:16.750000,8.32
10:09:16.765625,8.59
10:09:16.781250,8.54
10:09:16.796875,8.06
10:09:16.812500,7.16
10:09:16.828125,5.99
10:09:16.843750,4.70
10:09:16.859375,3.39
10:09:16.875000,2.11
10:09:16.890625,0.89
10:09:16.906250,-0.25
10:09:16.921875,-1.28
10:09:16.937500,-2.20
10:09:16.953125,-3.05
10:09:16.968750,-3.92
10:09:16.984375,-4.88
10:09:17,-5.97
10:09:17.015625,-7.15
10:09:17.031250,-8.36
10:09:17.046875,-9.50
10:09:17.062500,-10.53
10:09:17.078125,-11.43
10:09:17.093750,-12.22
10:09:17.109375,-12.85
10:09:17.125000,-13.19
10:09:17.140625,-13.05
10:09:17.156250,-12.25
10:09:17.171875,-10.72
10:09:17.187500,-8.56
10:09:17.203125,-6.00
10:09:17.218750,-3.33
10:09:17.234375,-0.84
10:09:17.250000,1.29
10:09:17.265625,2.98
10:09:17.281250,4.23
10:09:17.296875,5.10
10:09:17.312500,5.66
10:09:17.328125,6.00
10:09:17.343750,6.27
10:09:17.359375,6.61
10:09:17.375000,7.12
10:09:17.390625,7.79
10:09:17.406250,8.49
10:09:17.421875,9.03
10:09:17.437500,9.26
10:09:17.453125,9.19
10:09:17.468750,8.95
10:09:17.484375,8.76
10:09:17.500000,8.77
10:09:17.515625,8.97
10:09:17.531250,9.24
10:09:17.546875,9.36
10:09:17.562500,9.19
10:09:17.578125,8.69
10:09:17.593750,7.99
10:09:17.609375,7.22
10:09:17.625000,6.52
10:09:17.640625,5.88
10:09:17.656250,5.23
10:09:17.671875,4.47
10:09:17.687500,3.53
10:09:17.703125,2.41
10:09:17.718750,1.17
10:09:17.734375,-0.09
10:09:17.750000,-1.30
10:09:17.765625,-2.43
10:09:17.781250,-3.55
10:09:17.796875,-4.78
10:09:17.812500,-6.26
10:09:17.828125,-8.06
10:09:17.843750,-10.08
10:09:17.859375,-12.14
10:09:17.875000,-13.95
10:09:17.890625,-15.29
10:09:17.906250,-16.06
10:09:17.921875,-16.27
10:09:17.937500,-16.01
10:09:17.953125,-15.33
10:09:17.968750,-14.23
10:09:17.984375,-12.60
10:09:18,-10.42
10:09:18.015625,-7.77
10:09:18.031250,-4.94
10:09:18.046875,-2.31
10:09:18.062500,-0.24
10:09:18.078125,1.09
10:09:18.093750,1.77
10:09:18.109375,2.06
10:09:18.125000,2.33
10:09:18.140625,2.83
10:09:18.156250,3.63
10:09:18.171875,4.65
10:09:18.187500,5.67
10:09:18.203125,6.54
10:09:18.218750,7.19
10:09:18.234375,7.64
10:09:18.250000,7.98
10:09:18.265625,8.27
10:09:18.281250,8.51
10:09:18.296875,8.62
10:09:18.312500,8.49
10:09:18.328125,8.03
10:09:18.343750,7.23
10:09:18.359375,6.19
10:09:18.375000,5.07
10:09:18.390625,4.09
10:09:18.406250,3.42
10:09:18.421875,3.10
10:09:18.437500,3.07
10:09:18.453125,3.15
10:09:18.468750,3.12
10:09:18.484375,2.80
10:09:18.500000,2.11
10:09:18.515625,1.01
10:09:18.531250,-0.47
10:09:18.546875,-2.31
10:09:18.562500,-4.48
10:09:18.578125,-6.87
10:09:18.593750,-9.23
10:09:18.609375,-11.10
10:09:18.625000,-11.93
10:09:18.640625,-11.31
10:09:18.656250,-9.10
10:09:18.671875,-5.57
10:09:18.687500,-1.33
10:09:18.703125,2.93
10:09:18.718750,6.62
10:09:18.734375,9.51
10:09:18.750000,11.67
10:09:18.765625,13.28
10:09:18.781250,14.53
10:09:18.796875,15.43
10:09:18.812500,15.83
10:09:18.828125,15.61
10:09:18.843750,14.68
10:09:18.859375,13.06
10:09:18.875000,10.79
10:09:18.890625,7.82
10:09:18.906250,3.98
10:09:18.921875,-0.95
10:09:18.937500,-6.98
10:09:18.953125,-13.71
10:09:18.968750,-20.26
10:09:18.984375,-25.35
10:09:19,-27.67
10:09:19.015625,-26.38
10:09:19.031250,-21.47
10:09:19.046875,-13.73
10:09:19.062500,-4.55
10:09:19.078125,4.51
10:09:19.093750,12.23
10:09:19.109375,17.91
10:09:19.125000,21.39
10:09:19.140625,22.84
10:09:19.156250,22.60
10:09:19.171875,21.03
10:09:19.187500,18.51
10:09:19.203125,15.42
10:09:19.218750,12.12
10:09:19.234375,8.95
10:09:19.250000,6.09
10:09:19.265625,3.61
10:09:19.281250,1.50
10:09:19.296875,-0.26
10:09:19.312500,-1.61
10:09:19.328125,-2.47
10:09:19.343750,-2.73
10:09:19.359375,-2.32
10:09:19.375000,-1.30
10:09:19.390625,0.16
10:09:19.406250,1.74
10:09:19.421875,3.08
10:09:19.437500,3.85
10:09:19.453125,3.79
10:09:19.468750,2.81
10:09:19.484375,0.98
10:09:19.500000,-1.48
10:09:19.515625,-4.22
10:09:19.531250,-6.83
10:09:19.546875,-8.89
10:09:19.562500,-10.04
10:09:19.578125,-10.03
10:09:19.593750,-8.82
10:09:19.609375,-6.58
10:09:19.625000,-3.74
10:09:19.640625,-0.90
10:09:19.656250,1.26
10:09:19.671875,2.14
10:09:19.687500,1.43
10:09:19.703125,-0.78
10:09:19.718750,-3.96
10:09:19.734375,-7.33
10:09:19.750000,-10.05
10:09:19.765625,-11.57
10:09:19.781250,-11.77
10:09:19.796875,-10.95
10:09:19.812500,-9.62
10:09:19.828125,-8.23
10:09:19.843750,-6.96
10:09:19.859375,-5.66
10:09:19.875000,-4.02
10:09:19.890625,-1.80
10:09:19.906250,1.00
10:09:19.921875,4.12
10:09:19.937500,7.16
10:09:19.953125,9.79
10:09:19.968750,11.84
10:09:19.984375,13.32
10:09:20,14.33
10:09:20.015625,14.92
10:09:20.031250,15.05
10:09:20.046875,14.58
10:09:20.062500,13.38
10:09:20.078125,11.43
10:09:20.093750,8.86
10:09:20.109375,5.94
10:09:20.125000,2.98
10:09:20.140625,0.15
10:09:20.156250,-2.53
10:09:20.171875,-5.14
10:09:20.187500,-7.85
10:09:20.203125,-10.68
10:09:20.218750,-13.53
10:09:20.234375,-16.15
10:09:20.250000,-18.22
10:09:20.265625,-19.48
10:09:20.281250,-19.79
10:09:20.296875,-19.16
10:09:20.312500,-17.73
10:09:20.328125,-15.79
10:09:20.343750,-13.61
10:09:20.359375,-11.49
10:09:20.375000,-9.57
10:09:20.390625,-7.84
10:09:20.406250,-6.09
10:09:20.421875,-4.04
10:09:20.437500,-1.46
10:09:20.453125,1.57
10:09:20.468750,4.66
10:09:20.484375,7.22
10:09:20.500000,8.69
10:09:20.515625,8.87
10:09:20.531250,8.01
10:09:20.546875,6.74
10:09:20.562500,5.70
10:09:20.578125,5.33
10:09:20.593750,5.55
10:09:20.609375,5.90
10:09:20.625000,5.77
10:09:20.640625,4.75
10:09:20.656250,2.85
10:09:20.671875,0.49
10:09:20.687500,-1.73
10:09:20.703125,-3.30
10:09:20.718750,-4.04
10:09:20.734375,-4.13
10:09:20.750000,-3.93
10:09:20.765625,-3.80
10:09:20.781250,-3.91
10:09:20.796875,-4.16
10:09:20.812500,-4.34
10:09:20.828125,-4.27
10:09:20.843750,-3.88
10:09:20.859375,-3.25
10:09:20.875000,-2.50
10:09:20.890625,-1.68
10:09:20.906250,-0.81
10:09:20.921875,0.07
10:09:20.937500,0.83
10:09:20.953125,1.23
10:09:20.968750,1.12
10:09:20.984375,0.53
10:09:21,-0.19
10:09:21.015625,-0.56
10:09:21.031250,-0.14
10:09:21.046875,1.23
10:09:21.062500,3.26
10:09:21.078125,5.42
10:09:21.093750,7.19
10:09:21.109375,8.26
10:09:21.125000,8.71
10:09:21.140625,8.85
10:09:21.156250,8.95
10:09:21.171875,9.17
10:09:21.187500,9.41
10:09:21.203125,9.50
10:09:21.218750,9.29
10:09:21.234375,8.74
10:09:21.250000,7.94
10:09:21.265625,7.02
10:09:21.281250,6.01
10:09:21.296875,4.91
10:09:21.312500,3.73
10:09:21.328125,2.56
10:09:21.343750,1.63
10:09:21.359375,1.23
10:09:21.375000,1.51
10:09:21.390625,2.40
10:09:21.406250,3.54
10:09:21.421875,4.41
10:09:21.437500,4.52
10:09:21.453125,3.61
10:09:21.468750,1.73
10:09:21.484375,-0.87
10:09:21.500000,-3.91
10:09:21.515625,-7.18
10:09:21.531250,-10.63
10:09:21.546875,-14.22
10:09:21.562500,-17.81
10:09:21.578125,-21.08
10:09:21.593750,-23.56
10:09:21.609375,-24.86
10:09:21.625000,-24.84
10:09:21.640625,-23.72
10:09:21.656250,-21.98
10:09:21.671875,-20.15
10:09:21.687500,-18.57
10:09:21.703125,-17.25
10:09:21.718750,-15.89
10:09:21.734375,-14.02
10:09:21.750000,-11.36
10:09:21.765625,-7.92
10:09:21.781250,-4.19
10:09:21.796875,-0.89
10:09:21.812500,1.27
10:09:21.828125,1.93
10:09:21.843750,1.26
10:09:21.859375,-0.01
10:09:21.875000,-0.96
10:09:21.890625,-0.85
10:09:21.906250,0.54
10:09:21.921875,2.73
10:09:21.937500,4.78
10:09:21.953125,5.69
10:09:21.968750,4.85
10:09:21.984375,2.34
10:09:22,-1.07
10:09:22.015625,-4.22
10:09:22.031250,-6.04
10:09:22.046875,-5.92
10:09:22.062500,-4.05
10:09:22.078125,-1.25
10:09:22.093750,1.30
10:09:22.109375,2.54
10:09:22.125000,2.03
10:09:22.140625,0.09
10:09:22.156250,-2.27
10:09:22.171875,-3.82
10:09:22.187500,-3.62
10:09:22.203125,-1.48
10:09:22.218750,1.97
10:09:22.234375,5.58
10:09:22.250000,8.14
10:09:22.265625,8.97
10:09:22.281250,8.22
10:09:22.296875,6.92
10:09:22.312500,6.81
10:09:22.328125,9.85
10:09:22.343750,17.92
10:09:22.359375,32.28
10:09:22.375000,53.01
10:09:22.390625,78.36
10:09:22.406250,104.72
10:09:22.421875,127.38
10:09:22.437500,142.32
10:09:22.453125,148.12
10:09:22.468750,147.02
10:09:22.484375,144.11
10:09:22.500000,145.10
10:09:22.515625,153.49
10:09:22.531250,169.00
10:09:22.546875,187.84
10:09:22.562500,204.77
10:09:22.578125,215.59
10:09:22.593750,218.90
10:09:22.609375,216.09
10:09:22.625000,210.08
10:09:22.640625,203.68
10:09:22.656250,198.33
10:09:22.671875,193.76
10:09:22.687500,188.30
10:09:22.703125,179.56
10:09:22.718750,165.22
10:09:22.734375,143.92
10:09:22.750000,115.87
10:09:22.765625,83.14
10:09:22.781250,48.96
10:09:22.796875,16.46
10:09:22.812500,-12.60
10:09:22.828125,-38.45
10:09:22.843750,-62.90
10:09:22.859375,-88.07
10:09:22.875000,-115.06
10:09:22.890625,-143.22
10:09:22.906250,-170.47
10:09:22.921875,-194.42
10:09:22.937500,-213.43
10:09:22.953125,-227.09
10:09:22.968750,-235.95
10:09:22.984375,-240.75
10:09:23,-241.75
10:09:23.015625,-238.66
10:09:23.031250,-231.13
10:09:23.046875,-219.49
10:09:23.062500,-205.16
10:09:23.078125,-190.49
10:09:23.093750,-177.99
10:09:23.109375,-169.31
10:09:23.125000,-164.46
10:09:23.140625,-161.72
10:09:23.156250,-158.30
10:09:23.171875,-151.55
10:09:23.187500,-140.15
10:09:23.203125,-124.54
10:09:23.218750,-106.52
10:09:23.234375,-88.13
10:09:23.250000,-70.44
10:09:23.265625,-53.04
10:09:23.281250,-34.47
10:09:23.296875,-13.37
10:09:23.312500,10.31
10:09:23.328125,34.85
10:09:23.343750,57.30
10:09:23.359375,74.69
10:09:23.375000,85.18
10:09:23.390625,88.72
10:09:23.406250,86.68
10:09:23.421875,81.05
10:09:23.437500,73.48
10:09:23.453125,64.81
10:09:23.468750,55.04
10:09:23.484375,43.78
10:09:23.500000,30.60
10:09:23.515625,15.45
10:09:23.531250,-1.29
10:09:23.546875,-18.86
10:09:23.562500,-36.09
10:09:23.578125,-51.48
10:09:23.593750,-63.12
10:09:23.609375,-68.98
10:09:23.625000,-67.50
10:09:23.640625,-58.47
10:09:23.656250,-43.57
10:09:23.671875,-26.23
10:09:23.687500,-10.60
10:09:23.703125,0.00
10:09:23.718750,4.40
10:09:23.734375,3.95
10:09:23.750000,1.76
10:09:23.765625,1.21
10:09:23.781250,4.56
10:09:23.796875,12.19
10:09:23.812500,22.71
10:09:23.828125,33.79
10:09:23.843750,43.09
10:09:23.859375,49.00
10:09:23.875000,50.84
10:09:23.890625,48.85
10:09:23.906250,43.81
10:09:23.921875,36.67
10:09:23.937500,28.35
10:09:23.953125,19.58
10:09:23.968750,11.02
10:09:23.984375,3.33
10:09:24,-2.74
10:09:24.015625,-6.52
10:09:24.031250,-7.68
10:09:24.046875,-6.53
10:09:24.062500,-4.04
10:09:24.078125,-1.60
10:09:24.093750,-0.55
10:09:24.109375,-1.67
10:09:24.125000,-4.77
10:09:24.140625,-8.74
10:09:24.156250,-11.79
10:09:24.171875,-12.08
10:09:24.187500,-8.47
10:09:24.203125,-1.16
10:09:24.218750,8.06
10:09:24.234375,16.29
10:09:24.250000,20.56
10:09:24.265625,19.01
10:09:24.281250,11.75
10:09:24.296875,0.65
10:09:24.312500,-11.51
10:09:24.328125,-22.32
10:09:24.343750,-30.61
10:09:24.359375,-36.56
10:09:24.375000,-41.11
10:09:24.390625,-45.10
10:09:24.406250,-48.61
10:09:24.421875,-50.96
10:09:24.437500,-51.23
10:09:24.453125,-48.88
10:09:24.468750,-44.22
10:09:24.484375,-38.41
10:09:24.500000,-33.07
10:09:24.515625,-29.81
10:09:24.531250,-29.94
10:09:24.546875,-34.41
10:09:24.562500,-43.75
10:09:24.578125,-58.00
10:09:24.593750,-76.45
10:09:24.609375,-97.73
10:09:24.625000,-120.08
10:09:24.640625,-142.14
10:09:24.656250,-163.80
10:09:24.671875,-186.60
10:09:24.687500,-213.06
10:09:24.703125,-245.24
10:09:24.718750,-282.85
10:09:24.734375,-322.23
10:09:24.750000,-356.95
10:09:24.765625,-379.79
10:09:24.781250,-385.38
10:09:24.796875,-372.06
10:09:24.812500,-342.02
10:09:24.828125,-299.87
10:09:24.843750,-250.38
10:09:24.859375,-196.63
10:09:24.875000,-139.32
10:09:24.890625,-77.51
10:09:24.906250,-10.18
10:09:24.921875,62.06
10:09:24.937500,136.14
10:09:24.953125,206.94
10:09:24.968750,268.82
10:09:24.984375,317.51
10:09:25,351.58
10:09:25.015625,372.68
10:09:25.031250,384.58
10:09:25.046875,391.40
10:09:25.062500,396.12
10:09:25.078125,400.04
10:09:25.093750,403.19
10:09:25.109375,405.02
10:09:25.125000,404.99
10:09:25.140625,402.34
10:09:25.156250,395.62
10:09:25.171875,382.54
10:09:25.187500,360.51
10:09:25.203125,327.98
10:09:25.218750,285.78
10:09:25.234375,237.45
10:09:25.250000,188.43
10:09:25.265625,144.13
10:09:25.281250,108.06
10:09:25.296875,80.71
10:09:25.312500,59.93
10:09:25.328125,42.26
10:09:25.343750,24.69
10:09:25.359375,5.77
10:09:25.375000,-14.34
10:09:25.390625,-34.59
10:09:25.406250,-53.93
10:09:25.421875,-71.81
10:09:25.437500,-88.01
10:09:25.453125,-102.10
10:09:25.468750,-113.15
10:09:25.484375,-119.99
10:09:25.500000,-121.82
10:09:25.515625,-118.96
10:09:25.531250,-112.91
10:09:25.546875,-105.85
10:09:25.562500,-99.79
10:09:25.578125,-95.76
10:09:25.593750,-93.63
10:09:25.609375,-92.44
10:09:25.625000,-91.00
10:09:25.640625,-88.51
10:09:25.656250,-84.81
10:09:25.671875,-80.35
10:09:25.687500,-75.81
10:09:25.703125,-71.84
10:09:25.718750,-68.75
10:09:25.734375,-66.41
10:09:25.750000,-64.45
10:09:25.765625,-62.46
10:09:25.781250,-60.26
10:09:25.796875,-57.97
10:09:25.812500,-55.93
10:09:25.828125,-54.44
10:09:25.843750,-53.49
10:09:25.859375,-52.64
10:09:25.875000,-51.12
10:09:25.890625,-48.28
10:09:25.906250,-43.90
10:09:25.921875,-38.32
10:09:25.937500,-32.35
10:09:25.953125,-26.82
10:09:25.968750,-22.24
10:09:25.984375,-18.60
10:09:26,-15.52
10:09:26.015625,-12.48
10:09:26.031250,-9.21
10:09:26.046875,-5.67
10:09:26.062500,-2.08
10:09:26.078125,1.34
10:09:26.093750,4.44
10:09:26.109375,7.15
10:09:26.125000,9.41
10:09:26.140625,11.06
10:09:26.156250,11.88
10:09:26.171875,11.70
10:09:26.187500,10.50
10:09:26.203125,8.54
10:09:26.218750,6.25
10:09:26.234375,4.15
10:09:26.250000,2.61
10:09:26.265625,1.76
10:09:26.281250,1.44
10:09:26.296875,1.28
10:09:26.312500,0.83
10:09:26.328125,-0.19
10:09:26.343750,-1.83
10:09:26.359375,-3.88
10:09:26.375000,-5.93
10:09:26.390625,-7.53
10:09:26.406250,-8.38
10:09:26.421875,-8.38
10:09:26.437500,-7.70
10:09:26.453125,-6.70
10:09:26.468750,-5.85
10:09:26.484375,-5.59
10:09:26.500000,-6.13
10:09:26.515625,-7.44
10:09:26.531250,-9.13
10:09:26.546875,-10.66
10:09:26.562500,-11.53
10:09:26.578125,-11.45
10:09:26.593750,-10.43
10:09:26.609375,-8.71
10:09:26.625000,-6.67
10:09:26.640625,-4.62
10:09:26.656250,-2.73
10:09:26.671875,-1.00
10:09:26.687500,0.65
10:09:26.703125,2.36
10:09:26.718750,4.18
10:09:26.734375,6.13
10:09:26.750000,8.15
10:09:26.765625,10.11
10:09:26.781250,11.86
10:09:26.796875,13.28
10:09:26.812500,14.27
10:09:26.828125,14.78
10:09:26.843750,14.81
10:09:26.859375,14.35
10:09:26.875000,13.40
10:09:26.890625,12.03
10:09:26.906250,10.40
10:09:26.921875,8.74
10:09:26.937500,7.35
10:09:26.953125,6.42
10:09:26.968750,5.97
10:09:26.984375,5.84
10:09:27,5.75
10:09:27.015625,5.44
10:09:27.031250,4.72
10:09:27.046875,3.55
10:09:27.062500,1.96
10:09:27.078125,0.03
10:09:27.093750,-2.14
10:09:27.109375,-4.44
10:09:27.125000,-6.71
10:09:27.140625,-8.76
10:09:27.156250,-10.50
10:09:27.171875,-11.97
10:09:27.187500,-13.36
10:09:27.203125,-14.98
10:09:27.218750,-17.02
10:09:27.234375,-19.51
10:09:27.250000,-22.16
10:09:27.265625,-24.52
10:09:27.281250,-26.08
10:09:27.296875,-26.47
10:09:27.312500,-25.64
10:09:27.328125,-23.79
10:09:27.343750,-21.35
10:09:27.359375,-18.74
10:09:27.375000,-16.19
10:09:27.390625,-13.76
10:09:27.406250,-11.33
10:09:27.421875,-8.77
10:09:27.437500,-6.05
10:09:27.453125,-3.29
10:09:27.468750,-0.70
10:09:27.484375,1.55
10:09:27.500000,3.46
10:09:27.515625,5.13
10:09:27.531250,6.71
10:09:27.546875,8.24
10:09:27.562500,9.63
10:09:27.578125,10.68
10:09:27.593750,11.24
10:09:27.609375,11.28
10:09:27.625000,10.98
10:09:27.640625,10.59
10:09:27.656250,10.37
10:09:27.671875,10.45
10:09:27.687500,10.80
10:09:27.703125,11.23
10:09:27.718750,11.53
10:09:27.734375,11.45
10:09:27.750000,10.84
10:09:27.765625,9.64
10:09:27.781250,7.95
10:09:27.796875,6.02
10:09:27.812500,4.26
10:09:27.828125,3.17
10:09:27.843750,3.15
10:09:27.859375,4.36
10:09:27.875000,6.52
10:09:27.890625,9.00
10:09:27.906250,10.91
10:09:27.921875,11.48
10:09:27.937500,10.31
10:09:27.953125,7.50
10:09:27.968750,3.60
10:09:27.984375,-0.67
10:09:28,-4.62
10:09:28.015625,-7.78
10:09:28.031250,-9.92
10:09:28.046875,-10.97
10:09:28.062500,-10.98
10:09:28.078125,-10.05
10:09:28.093750,-8.39
10:09:28.109375,-6.27
10:09:28.125000,-4.00
10:09:28.140625,-1.82
10:09:28.156250,0.16
10:09:28.171875,2.00
10:09:28.187500,3.85
10:09:28.203125,5.82
10:09:28.218750,7.89
10:09:28.234375,9.90
10:09:28.250000,11.62
10:09:28.265625,12.88
10:09:28.281250,13.65
10:09:28.296875,14.04
10:09:28.312500,14.23
10:09:28.328125,14.33
10:09:28.343750,14.33
10:09:28.359375,14.17
10:09:28.375000,13.75
10:09:28.390625,13.10
10:09:28.406250,12.33
10:09:28.421875,11.63
10:09:28.437500,11.14
10:09:28.453125,10.87
10:09:28.468750,10.72
10:09:28.484375,10.45
10:09:28.500000,9.86
10:09:28.515625,8.83
10:09:28.531250,7.33
10:09:28.546875,5.46
10:09:28.562500,3.35
10:09:28.578125,1.15
10:09:28.593750,-1.05
10:09:28.609375,-3.23
10:09:28.625000,-5.40
10:09:28.640625,-7.61
10:09:28.656250,-9.86
10:09:28.671875,-12.11
10:09:28.687500,-14.30
10:09:28.703125,-16.40
10:09:28.718750,-18.39
10:09:28.734375,-20.30
10:09:28.750000,-22.05
10:09:28.765625,-23.49
10:09:28.781250,-24.37
10:09:28.796875,-24.43
10:09:28.812500,-23.56
10:09:28.828125,-21.84
10:09:28.843750,-19.55
10:09:28.859375,-17.04
10:09:28.875000,-14.52
10:09:28.890625,-12.06
10:09:28.906250,-9.55
10:09:28.921875,-6.85
10:09:28.937500,-3.95
10:09:28.953125,-1.02
10:09:28.968750,1.62
10:09:28.984375,3.63
10:09:29,4.90
10:09:29.015625,5.56
10:09:29.031250,5.99
10:09:29.046875,6.61
10:09:29.062500,7.73
10:09:29.078125,9.33
10:09:29.093750,11.09
10:09:29.109375,12.53
10:09:29.125000,13.24
10:09:29.140625,13.07
10:09:29.156250,12.17
10:09:29.171875,10.90
10:09:29.187500,9.63
10:09:29.203125,8.64
10:09:29.218750,7.92
10:09:29.234375,7.32
10:09:29.250000,6.61
10:09:29.265625,5.65
10:09:29.281250,4.41
10:09:29.296875,3.03
10:09:29.312500,1.67
10:09:29.328125,0.46
10:09:29.343750,-0.57
10:09:29.359375,-1.54
10:09:29.375000,-2.63
10:09:29.390625,-4.03
10:09:29.406250,-5.80
10:09:29.421875,-7.90
10:09:29.437500,-10.12
10:09:29.453125,-12.24
10:09:29.468750,-14.04
10:09:29.484375,-15.34
10:09:29.500000,-16.00
10:09:29.515625,-15.91
10:09:29.531250,-15.01
10:09:29.546875,-13.31
10:09:29.562500,-10.99
10:09:29.578125,-8.35
10:09:29.593750,-5.72
10:09:29.609375,-3.39
10:09:29.625000,-1.43
10:09:29.640625,0.27
10:09:29.656250,1.91
10:09:29.671875,3.66
10:09:29.687500,5.55
10:09:29.703125,7.43
10:09:29.718750,9.10
10:09:29.734375,10.38
10:09:29.750000,11.18
10:09:29.765625,11.55
10:09:29.781250,11.56
10:09:29.796875,11.30
10:09:29.812500,10.86
10:09:29.828125,10.29
10:09:29.843750,9.65
10:09:29.859375,9.01
10:09:29.875000,8.43
10:09:29.890625,7.94
10:09:29.906250,7.50
10:09:29.921875,6.99
10:09:29.937500,6.25
10:09:29.953125,5.16
10:09:29.968750,3.71
10:09:29.984375,1.96
10:09:30,0.09
10:09:30.015625,-1.69
10:09:30.031250,-3.28
10:09:30.046875,-4.67
10:09:30.062500,-5.98
10:09:30.078125,-7.39
10:09:30.093750,-9.04
10:09:30.109375,-10.98
10:09:30.125000,-13.08
10:09:30.140625,-15.12
10:09:30.156250,-16.79
10:09:30.171875,-17.87
10:09:30.187500,-18.20
10:09:30.203125,-17.83
10:09:30.218750,-16.85
10:09:30.234375,-15.40
10:09:30.250000,-13.61
10:09:30.265625,-11.53
10:09:30.281250,-9.20
10:09:30.296875,-6.72
10:09:30.312500,-4.20
10:09:30.328125,-1.75
10:09:30.343750,0.57
10:09:30.359375,2.83
10:09:30.375000,5.06
10:09:30.390625,7.25
10:09:30.406250,9.25
10:09:30.421875,10.84
10:09:30.437500,11.84
10:09:30.453125,12.23
10:09:30.468750,12.20
10:09:30.484375,12.04
10:09:30.500000,12.01
10:09:30.515625,12.21
10:09:30.531250,12.55
10:09:30.546875,12.84
10:09:30.562500,12.90
10:09:30.578125,12.67
10:09:30.593750,12.20
10:09:30.609375,11.63
10:09:30.625000,11.07
10:09:30.640625,10.55
10:09:30.656250,10.01
10:09:30.671875,9.29
10:09:30.687500,8.26
10:09:30.703125,6.90
10:09:30.718750,5.28
10:09:30.734375,3.58
10:09:30.750000,1.93
10:09:30.765625,0.37
10:09:30.781250,-1.13
10:09:30.796875,-2.70
10:09:30.812500,-4.43
10:09:30.828125,-6.37
10:09:30.843750,-8.55
10:09:30.859375,-10.95
10:09:30.875000,-13.52
10:09:30.890625,-16.13
10:09:30.906250,-18.52
10:09:30.921875,-20.33
10:09:30.937500,-21.21
10:09:30.953125,-20.97
10:09:30.968750,-19.60
10:09:30.984375,-17.33
10:09:31,-14.51
10:09:31.015625,-11.46
10:09:31.031250,-8.38
10:09:31.046875,-5.35
10:09:31.062500,-2.41
10:09:31.078125,0.36
10:09:31.093750,2.87
10:09:31.109375,5.02
10:09:31.125000,6.80
10:09:31.140625,8.31
10:09:31.156250,9.70
10:09:31.171875,11.10
10:09:31.187500,12.50
10:09:31.203125,13.85
10:09:31.218750,15.02
10:09:31.234375,15.97
10:09:31.250000,16.72
10:09:31.265625,17.36
10:09:31.281250,17.89
10:09:31.296875,18.25
10:09:31.312500,18.32
10:09:31.328125,18.02
10:09:31.343750,17.40
10:09:31.359375,16.60
10:09:31.375000,15.75
10:09:31.390625,14.87
10:09:31.406250,13.83
10:09:31.421875,12.39
10:09:31.437500,10.41
10:09:31.453125,7.97
10:09:31.468750,5.34
10:09:31.484375,2.92
10:09:31.500000,0.99
10:09:31.515625,-0.37
10:09:31.531250,-1.36
10:09:31.546875,-2.28
10:09:31.562500,-3.47
10:09:31.578125,-5.15
10:09:31.593750,-7.40
10:09:31.609375,-10.20
10:09:31.625000,-13.34
10:09:31.640625,-16.50
10:09:31.656250,-19.25
10:09:31.671875,-21.12
10:09:31.687500,-21.72
10:09:31.703125,-20.92
10:09:31.718750,-18.82
10:09:31.734375,-15.81
10:09:31.750000,-12.36
10:09:31.765625,-8.88
10:09:31.781250,-5.63
10:09:31.796875,-2.68
10:09:31.812500,-0.03
10:09:31.828125,2.42
10:09:31.843750,4.69
10:09:31.859375,6.79
10:09:31.875000,8.66
10:09:31.890625,10.23
10:09:31.906250,11.42
10:09:31.921875,12.19
10:09:31.937500,12.53
10:09:31.953125,12.52
10:09:31.968750,12.22
10:09:31.984375,11.71
10:09:32,11.05
10:09:32.015625,10.26
10:09:32.031250,9.36
10:09:32.046875,8.43
10:09:32.062500,7.56
10:09:32.078125,6.84
10:09:32.093750,6.30
10:09:32.109375,5.84
10:09:32.125000,5.26
10:09:32.140625,4.36
10:09:32.156250,3.01
10:09:32.171875,1.30
10:09:32.187500,-0.58
10:09:32.203125,-2.34
10:09:32.218750,-3.78
10:09:32.234375,-4.88
10:09:32.250000,-5.77
10:09:32.265625,-6.68
10:09:32.281250,-7.77
10:09:32.296875,-9.13
10:09:32.312500,-10.77
10:09:32.328125,-12.65
10:09:32.343750,-14.72
10:09:32.359375,-16.87
10:09:32.375000,-18.88
10:09:32.390625,-20.40
10:09:32.406250,-21.03
10:09:32.421875,-20.50
10:09:32.437500,-18.78
10:09:32.453125,-16.11
10:09:32.468750,-12.94
10:09:32.484375,-9.66
10:09:32.500000,-6.50
10:09:32.515625,-3.44
10:09:32.531250,-0.35
10:09:32.546875,2.91
10:09:32.562500,6.33
10:09:32.578125,9.73
10:09:32.593750,12.87
10:09:32.609375,15.52
10:09:32.625000,17.54
10:09:32.640625,18.92
10:09:32.656250,19.69
10:09:32.671875,19.96
10:09:32.687500,19.82
10:09:32.703125,19.41
10:09:32.718750,18.96
10:09:32.734375,18.70
10:09:32.750000,18.87
10:09:32.765625,19.60
10:09:32.781250,20.83
10:09:32.796875,22.32
10:09:32.812500,23.69
10:09:32.828125,24.57
10:09:32.843750,24.70
10:09:32.859375,24.11
10:09:32.875000,23.08
10:09:32.890625,22.09
10:09:32.906250,21.59
10:09:32.921875,21.79
10:09:32.937500,22.57
10:09:32.953125,23.51
10:09:32.968750,24.06
10:09:32.984375,23.63
10:09:33,21.78
10:09:33.015625,18.19
10:09:33.031250,12.78
10:09:33.046875,5.68
10:09:33.062500,-2.57
10:09:33.078125,-11.13
10:09:33.093750,-18.91
10:09:33.109375,-24.91
10:09:33.125000,-28.54
10:09:33.140625,-29.84
10:09:33.156250,-29.39
10:09:33.171875,-28.04
10:09:33.187500,-26.50
10:09:33.203125,-25.11
10:09:33.218750,-23.75
10:09:33.234375,-22.05
10:09:33.250000,-19.63
10:09:33.265625,-16.35
10:09:33.281250,-12.35
10:09:33.296875,-8.03
10:09:33.312500,-3.84
10:09:33.328125,-0.15
10:09:33.343750,2.83
10:09:33.359375,5.01
10:09:33.375000,6.44
10:09:33.390625,7.17
10:09:33.406250,7.28
10:09:33.421875,6.93
10:09:33.437500,6.29
10:09:33.453125,5.62
10:09:33.468750,5.13
10:09:33.484375,4.95
10:09:33.500000,5.05
10:09:33.515625,5.27
10:09:33.531250,5.41
10:09:33.546875,5.26
10:09:33.562500,4.69
10:09:33.578125,3.71
10:09:33.593750,2.38
10:09:33.609375,0.84
10:09:33.625000,-0.76
10:09:33.640625,-2.33
10:09:33.656250,-3.85
10:09:33.671875,-5.45
10:09:33.687500,-7.28
10:09:33.703125,-9.45
10:09:33.718750,-11.88
10:09:33.734375,-14.30
10:09:33.750000,-16.26
10:09:33.765625,-17.37
10:09:33.781250,-17.35
10:09:33.796875,-16.19
10:09:33.812500,-14.07
10:09:33.828125,-11.29
10:09:33.843750,-8.14
10:09:33.859375,-4.86
10:09:33.875000,-1.60
10:09:33.890625,1.50
10:09:33.906250,4.36
10:09:33.921875,6.93
10:09:33.937500,9.15
10:09:33.953125,10.99
10:09:33.968750,12.45
10:09:33.984375,13.57
10:09:34,14.43
10:09:34.015625,15.11
10:09:34.031250,15.66
10:09:34.046875,16.05
10:09:34.062500,16.18
10:09:34.078125,15.96
10:09:34.093750,15.47
10:09:34.109375,14.89
10:09:34.125000,14.52
10:09:34.140625,14.56
10:09:34.156250,15.00
10:09:34.171875,15.53
10:09:34.187500,15.70
10:09:34.203125,15.15
10:09:34.218750,13.73
10:09:34.234375,11.55
10:09:34.250000,8.91
10:09:34.265625,6.15
10:09:34.281250,3.55
10:09:34.296875,1.30
10:09:34.312500,-0.55
10:09:34.328125,-2.11
10:09:34.343750,-3.70
10:09:34.359375,-5.71
10:09:34.375000,-8.52
10:09:34.390625,-12.20
10:09:34.406250,-16.37
10:09:34.421875,-20.27
10:09:34.437500,-23.01
10:09:34.453125,-23.95
10:09:34.468750,-23.00
10:09:34.484375,-20.66
10:09:34.500000,-17.82
10:09:34.515625,-15.32
10:09:34.531250,-13.72
10:09:34.546875,-13.02
10:09:34.562500,-12.79
10:09:34.578125,-12.33
10:09:34.593750,-10.95
10:09:34.609375,-8.25
10:09:34.625000,-4.26
10:09:34.640625,0.49
10:09:34.656250,5.17
10:09:34.671875,8.89
10:09:34.687500,11.08
10:09:34.703125,11.61
10:09:34.718750,10.89
10:09:34.734375,9.63
10:09:34.750000,8.56
10:09:34.765625,8.12
10:09:34.781250,8.40
10:09:34.796875,9.16
10:09:34.812500,10.04
10:09:34.828125,10.71
10:09:34.843750,11.02
10:09:34.859375,10.93
10:09:34.875000,10.41
10:09:34.890625,9.42
10:09:34.906250,7.95
10:09:34.921875,6.05
10:09:34.937500,3.91
10:09:34.953125,1.80
10:09:34.968750,-0.02
10:09:34.984375,-1.47
10:09:35,-2.64
10:09:35.015625,-3.79
10:09:35.031250,-5.24
10:09:35.046875,-7.13
10:09:35.062500,-9.49
10:09:35.078125,-12.09
10:09:35.093750,-14.57
10:09:35.109375,-16.51
10:09:35.125000,-17.52
10:09:35.140625,-17.35
10:09:35.156250,-16.02
10:09:35.171875,-13.79
10:09:35.187500,-11.06
10:09:35.203125,-8.23
10:09:35.218750,-5.56
10:09:35.234375,-3.08
10:09:35.250000,-0.70
10:09:35.265625,1.69
10:09:35.281250,4.11
10:09:35.296875,6.47
10:09:35.312500,8.58
10:09:35.328125,10.26
10:09:35.343750,11.41
10:09:35.359375,12.03
10:09:35.375000,12.16
10:09:35.390625,11.91
10:09:35.406250,11.37
10:09:35.421875,10.70
10:09:35.437500,10.04
10:09:35.453125,9.58
10:09:35.468750,9.43
10:09:35.484375,9.61
10:09:35.500000,10.01
10:09:35.515625,10.40
10:09:35.531250,10.49
10:09:35.546875,9.98
10:09:35.562500,8.71
10:09:35.578125,6.72
10:09:35.593750,4.20
10:09:35.609375,1.53
10:09:35.625000,-0.98
10:09:35.640625,-3.08
10:09:35.656250,-4.75
10:09:35.671875,-6.14
10:09:35.687500,-7.56
10:09:35.703125,-9.31
10:09:35.718750,-11.56
10:09:35.734375,-14.26
10:09:35.750000,-17.08
10:09:35.765625,-19.57
10:09:35.781250,-21.34
10:09:35.796875,-22.15
10:09:35.812500,-22.01
10:09:35.828125,-21.11
10:09:35.843750,-19.65
10:09:35.859375,-17.82
10:09:35.875000,-15.72
10:09:35.890625,-13.38
10:09:35.906250,-10.78
10:09:35.921875,-7.83
10:09:35.937500,-4.36
10:09:35.953125,-0.26
10:09:35.968750,4.37
10:09:35.984375,9.05
10:09:36,12.95
10:09:36.015625,15.17
10:09:36.031250,15.16
10:09:36.046875,13.10
10:09:36.062500,9.91
10:09:36.078125,6.95
10:09:36.093750,5.45
10:09:36.109375,5.95
10:09:36.125000,8.13
10:09:36.140625,11.07
10:09:36.156250,13.63
10:09:36.171875,14.96
10:09:36.187500,14.76
10:09:36.203125,13.22
10:09:36.218750,10.90
10:09:36.234375,8.44
10:09:36.250000,6.36
10:09:36.265625,4.99
10:09:36.281250,4.44
10:09:36.296875,4.63
10:09:36.312500,5.38
10:09:36.328125,6.36
10:09:36.343750,7.18
10:09:36.359375,7.46
10:09:36.375000,6.84
10:09:36.390625,5.16
10:09:36.406250,2.51
10:09:36.421875,-0.77
10:09:36.437500,-4.19
10:09:36.453125,-7.27
10:09:36.468750,-9.65
10:09:36.484375,-11.22
10:09:36.500000,-11.96
10:09:36.515625,-12.00
10:09:36.531250,-11.40
10:09:36.546875,-10.21
10:09:36.562500,-8.52
10:09:36.578125,-6.47
10:09:36.593750,-4.24
10:09:36.609375,-2.01
10:09:36.625000,0.11
10:09:36.640625,2.15
10:09:36.656250,4.16
10:09:36.671875,6.16
10:09:36.687500,8.08
10:09:36.703125,9.75
10:09:36.718750,11.01
10:09:36.734375,11.75
10:09:36.750000,12.04
10:09:36.765625,12.07
10:09:36.781250,12.08
10:09:36.796875,12.24
10:09:36.812500,12.56
10:09:36.828125,12.91
10:09:36.843750,13.04
10:09:36.859375,12.73
10:09:36.875000,11.87
10:09:36.890625,10.55
10:09:36.906250,8.98
10:09:36.921875,7.42
10:09:36.937500,6.01
10:09:36.953125,4.75
10:09:36.968750,3.47
10:09:36.984375,1.92
10:09:37,-0.15
10:09:37.015625,-2.98
10:09:37.031250,-6.82
10:09:37.046875,-11.87
10:09:37.062500,-18.29
10:09:37.078125,-26.00
10:09:37.093750,-34.67
10:09:37.109375,-43.67
10:09:37.125000,-52.25
10:09:37.140625,-59.76
10:09:37.156250,-65.79
10:09:37.171875,-70.24
10:09:37.187500,-73.04
10:09:37.203125,-74.05
10:09:37.218750,-72.89
10:09:37.234375,-69.10
10:09:37.250000,-62.47
10:09:37.265625,-53.28
10:09:37.281250,-42.37
10:09:37.296875,-30.91
10:09:37.312500,-19.99
10:09:37.328125,-10.23
10:09:37.343750,-1.73
10:09:37.359375,5.85
10:09:37.375000,12.98
10:09:37.390625,19.86
10:09:37.406250,26.34
10:09:37.421875,31.94
10:09:37.437500,36.12
10:09:37.453125,38.51
10:09:37.468750,39.20
10:09:37.484375,38.63
10:09:37.500000,37.56
10:09:37.515625,36.70
10:09:37.531250,36.49
10:09:37.546875,36.92
10:09:37.562500,37.57
10:09:37.578125,37.88
10:09:37.593750,37.39
10:09:37.609375,35.97
10:09:37.625000,33.84
10:09:37.640625,31.38
10:09:37.656250,28.97
10:09:37.671875,26.80
10:09:37.687500,24.94
10:09:37.703125,23.38
10:09:37.718750,22.07
10:09:37.734375,20.91
10:09:37.750000,19.75
10:09:37.765625,18.34
10:09:37.781250,16.47
10:09:37.796875,14.04
10:09:37.812500,11.16
10:09:37.828125,8.06
10:09:37.843750,4.96
10:09:37.859375,1.87
10:09:37.875000,-1.31
10:09:37.890625,-4.65
10:09:37.906250,-7.94
10:09:37.921875,-10.59
10:09:37.937500,-11.83
10:09:37.953125,-11.09
10:09:37.968750,-8.44
10:09:37.984375,-4.67
10:09:38,-1.08
10:09:38.015625,1.07
10:09:38.031250,1.12
10:09:38.046875,-0.68
10:09:38.062500,-3.32
10:09:38.078125,-5.52
10:09:38.093750,-6.29
10:09:38.109375,-5.34
10:09:38.125000,-3.07
10:09:38.140625,-0.29
10:09:38.156250,2.25
10:09:38.171875,4.05
10:09:38.187500,4.98
10:09:38.203125,5.15
10:09:38.218750,4.71
10:09:38.234375,3.85
10:09:38.250000,2.76
10:09:38.265625,1.70
10:09:38.281250,1.00
10:09:38.296875,0.85
10:09:38.312500,1.21
10:09:38.328125,1.71
10:09:38.343750,1.83
10:09:38.359375,1.11
10:09:38.375000,-0.55
10:09:38.390625,-2.86
10:09:38.406250,-5.29
10:09:38.421875,-7.27
10:09:38.437500,-8.47
10:09:38.453125,-8.86
10:09:38.468750,-8.71
10:09:38.484375,-8.37
10:09:38.500000,-8.18
10:09:38.515625,-8.32
10:09:38.531250,-8.82
10:09:38.546875,-9.61
10:09:38.562500,-10.59
10:09:38.578125,-11.57
10:09:38.593750,-12.27
10:09:38.609375,-12.34
10:09:38.625000,-11.36
10:09:38.640625,-9.02
10:09:38.656250,-5.29
10:09:38.671875,-0.44
10:09:38.687500,4.98
10:09:38.703125,10.33
10:09:38.718750,15.12
10:09:38.734375,19.10
10:09:38.750000,22.31
10:09:38.765625,24.92
10:09:38.781250,27.13
10:09:38.796875,29.06
10:09:38.812500,30.75
10:09:38.828125,32.18
10:09:38.843750,33.33
10:09:38.859375,34.12
10:09:38.875000,34.46
10:09:38.890625,34.24
10:09:38.906250,33.42
10:09:38.921875,32.08
10:09:38.937500,30.48
10:09:38.953125,28.95
10:09:38.968750,27.81
10:09:38.984375,27.17
10:09:39,26.92
10:09:39.015625,26.73
10:09:39.031250,26.23
10:09:39.046875,25.13
10:09:39.062500,23.34
10:09:39.078125,21.01
10:09:39.093750,18.35
10:09:39.109375,15.49
10:09:39.125000,12.39
10:09:39.140625,8.87
10:09:39.156250,4.72
10:09:39.171875,-0.06
10:09:39.187500,-5.25
10:09:39.203125,-10.44
10:09:39.218750,-15.23
10:09:39.234375,-19.29
10:09:39.250000,-22.47
10:09:39.265625,-24.75
10:09:39.281250,-26.16
10:09:39.296875,-26.79
10:09:39.312500,-26.78
10:09:39.328125,-26.34
10:09:39.343750,-25.70
10:09:39.359375,-24.98
10:09:39.375000,-24.18
10:09:39.390625,-23.19
10:09:39.406250,-21.92
10:09:39.421875,-20.37
10:09:39.437500,-18.69
10:09:39.453125,-17.09
10:09:39.468750,-15.68
10:09:39.484375,-14.44
10:09:39.500000,-13.23
10:09:39.515625,-11.92
10:09:39.531250,-10.53
10:09:39.546875,-9.16
10:09:39.562500,-7.95
10:09:39.578125,-6.95
10:09:39.593750,-6.08
10:09:39.609375,-5.17
10:09:39.625000,-4.08
10:09:39.640625,-2.81
10:09:39.656250,-1.49
10:09:39.671875,-0.36
10:09:39.687500,0.36
10:09:39.703125,0.51
10:09:39.718750,0.06
10:09:39.734375,-0.89
10:09:39.750000,-2.21
10:09:39.765625,-3.76
10:09:39.781250,-5.49
10:09:39.796875,-7.39
10:09:39.812500,-9.49
10:09:39.828125,-11.76
10:09:39.843750,-14.08
10:09:39.859375,-16.17
10:09:39.875000,-17.73
10:09:39.890625,-18.45
10:09:39.906250,-18.22
10:09:39.921875,-17.06
10:09:39.937500,-15.21
10:09:39.953125,-12.94
10:09:39.968750,-10.50
10:09:39.984375,-7.99
10:09:40,-5.38
10:09:40.015625,-2.64
10:09:40.031250,0.20
10:09:40.046875,2.94
10:09:40.062500,5.30
10:09:40.078125,7.04
10:09:40.093750,8.06
10:09:40.109375,8.44
10:09:40.125000,8.42
10:09:40.140625,8.24
10:09:40.156250,8.08
10:09:40.171875,7.98
10:09:40.187500,7.93
10:09:40.203125,7.83
10:09:40.218750,7.64
10:09:40.234375,7.30
10:09:40.250000,6.73
10:09:40.265625,5.84
10:09:40.281250,4.60
10:09:40.296875,3.00
10:09:40.312500,1.18
10:09:40.328125,-0.71
10:09:40.343750,-2.60
10:09:40.359375,-4.49
10:09:40.375000,-6.54
10:09:40.390625,-8.88
10:09:40.406250,-11.65
10:09:40.421875,-14.84
10:09:40.437500,-18.36
10:09:40.453125,-22.06
10:09:40.468750,-25.72
10:09:40.484375,-29.09
10:09:40.500000,-31.89
10:09:40.515625,-33.87
10:09:40.531250,-34.88
10:09:40.546875,-34.93
10:09:40.562500,-34.27
10:09:40.578125,-33.29
10:09:40.593750,-32.42
10:09:40.609375,-31.96
10:09:40.625000,-31.99
10:09:40.640625,-32.36
10:09:40.656250,-32.74
10:09:40.671875,-32.79
10:09:40.687500,-32.17
10:09:40.703125,-30.66
10:09:40.718750,-28.16
10:09:40.734375,-24.60
10:09:40.750000,-19.97
10:09:40.765625,-14.27
10:09:40.781250,-7.54
10:09:40.796875,0.09
10:09:40.812500,8.39
10:09:40.828125,17.04
10:09:40.843750,25.67
10:09:40.859375,33.88
10:09:40.875000,41.27
10:09:40.890625,47.49
10:09:40.906250,52.20
10:09:40.921875,55.14
10:09:40.937500,56.18
10:09:40.953125,55.35
10:09:40.968750,52.92
10:09:40.984375,49.31
10:09:41,44.98
10:09:41.015625,40.36
10:09:41.031250,35.71
10:09:41.046875,31.14
10:09:41.062500,26.60
10:09:41.078125,22.02
10:09:41.093750,17.37
10:09:41.109375,12.72
10:09:41.125000,8.29
10:09:41.140625,4.45
10:09:41.156250,1.55
10:09:41.171875,-0.09
10:09:41.187500,-0.38
10:09:41.203125,0.57
10:09:41.218750,2.48
10:09:41.234375,4.97
10:09:41.250000,7.71
10:09:41.265625,10.49
10:09:41.281250,13.22
10:09:41.296875,15.90
10:09:41.312500,18.58
10:09:41.328125,21.27
10:09:41.343750,23.98
10:09:41.359375,26.67
10:09:41.375000,29.30
10:09:41.390625,31.81
10:09:41.406250,34.17
10:09:41.421875,36.39
10:09:41.437500,38.54
10:09:41.453125,40.72
10:09:41.468750,43.04
10:09:41.484375,45.51
10:09:41.500000,48.05
10:09:41.515625,50.45
10:09:41.531250,52.45
10:09:41.546875,53.84
10:09:41.562500,54.48
10:09:41.578125,54.37
10:09:41.593750,53.60
10:09:41.609375,52.24
10:09:41.625000,50.29
10:09:41.640625,47.68
10:09:41.656250,44.34
10:09:41.671875,40.24
10:09:41.687500,35.49
10:09:41.703125,30.32
10:09:41.718750,25.01
10:09:41.734375,19.82
10:09:41.750000,14.84
10:09:41.765625,9.98
10:09:41.781250,5.06
10:09:41.796875,-0.10
10:09:41.812500,-5.54
10:09:41.828125,-11.09
10:09:41.843750,-16.45
10:09:41.859375,-21.25
10:09:41.875000,-25.21
10:09:41.890625,-28.16
10:09:41.906250,-30.06
10:09:41.921875,-30.95
10:09:41.937500,-30.94
10:09:41.953125,-30.17
10:09:41.968750,-28.80
10:09:41.984375,-27.04
10:09:42,-25.00
10:09:42.015625,-22.63
10:09:42.031250,-19.69
10:09:42.046875,-15.87
10:09:42.062500,-10.98
10:09:42.078125,-5.16
10:09:42.093750,1.08
10:09:42.109375,7.03
10:09:42.125000,12.04
10:09:42.140625,15.83
10:09:42.156250,18.49
10:09:42.171875,20.38
10:09:42.187500,21.87
10:09:42.203125,23.20
10:09:42.218750,24.39
10:09:42.234375,25.37
10:09:42.250000,26.09
10:09:42.265625,26.58
10:09:42.281250,26.85
10:09:42.296875,26.93
10:09:42.312500,26.70
10:09:42.328125,25.97
10:09:42.343750,24.53
10:09:42.359375,22.20
10:09:42.375000,18.92
10:09:42.390625,14.74
10:09:42.406250,9.84
10:09:42.421875,4.52
10:09:42.437500,-0.89
10:09:42.453125,-6.11
10:09:42.468750,-10.98
10:09:42.484375,-15.48
10:09:42.500000,-19.69
10:09:42.515625,-23.66
10:09:42.531250,-27.27
10:09:42.546875,-30.19
10:09:42.562500,-32.02
10:09:42.578125,-32.38
10:09:42.593750,-31.15
10:09:42.609375,-28.50
10:09:42.625000,-24.89
10:09:42.640625,-20.88
10:09:42.656250,-16.95
10:09:42.671875,-13.39
10:09:42.687500,-10.25
10:09:42.703125,-7.44
10:09:42.718750,-4.86
10:09:42.734375,-2.54
10:09:42.750000,-0.63
10:09:42.765625,0.70
10:09:42.781250,1.31
10:09:42.796875,1.26
10:09:42.812500,0.78
10:09:42.828125,0.24
10:09:42.843750,-0.01
10:09:42.859375,0.23
10:09:42.875000,0.90
10:09:42.890625,1.70
10:09:42.906250,2.18
10:09:42.921875,1.93
10:09:42.937500,0.79
10:09:42.953125,-1.08
10:09:42.968750,-3.26
10:09:42.984375,-5.29
10:09:43,-6.83
10:09:43.015625,-7.87
10:09:43.031250,-8.63
10:09:43.046875,-9.42
10:09:43.062500,-10.45
10:09:43.078125,-11.70
10:09:43.093750,-12.99
10:09:43.109375,-14.10
10:09:43.125000,-14.96
10:09:43.140625,-15.64
10:09:43.156250,-16.39
10:09:43.171875,-17.41
10:09:43.187500,-18.79
10:09:43.203125,-20.48
10:09:43.218750,-22.30
10:09:43.234375,-24.04
10:09:43.250000,-25.46
10:09:43.265625,-26.32
10:09:43.281250,-26.38
10:09:43.296875,-25.47
10:09:43.312500,-23.58
10:09:43.328125,-20.91
10:09:43.343750,-17.87
10:09:43.359375,-14.92
10:09:43.375000,-12.38
10:09:43.390625,-10.33
10:09:43.406250,-8.58
10:09:43.421875,-6.84
10:09:43.437500,-4.93
10:09:43.453125,-2.88
10:09:43.468750,-0.90
10:09:43.484375,0.73
10:09:43.500000,1.81
10:09:43.515625,2.32
10:09:43.531250,2.46
10:09:43.546875,2.50
10:09:43.562500,2.71
10:09:43.578125,3.27
10:09:43.593750,4.17
10:09:43.609375,5.25
10:09:43.625000,6.22
10:09:43.640625,6.82
10:09:43.656250,6.84
10:09:43.671875,6.28
10:09:43.687500,5.28
10:09:43.703125,4.10
10:09:43.718750,3.04
10:09:43.734375,2.26
10:09:43.750000,1.75
10:09:43.765625,1.38
10:09:43.781250,0.92
10:09:43.796875,0.19
10:09:43.812500,-0.92
10:09:43.828125,-2.40
10:09:43.843750,-4.16
10:09:43.859375,-6.12
10:09:43.875000,-8.23
10:09:43.890625,-10.44
10:09:43.906250,-12.65
10:09:43.921875,-14.64
10:09:43.937500,-16.08
10:09:43.953125,-16.64
10:09:43.968750,-16.14
10:09:43.984375,-14.67
10:09:44,-12.60
10:09:44.015625,-10.41
10:09:44.031250,-8.50
10:09:44.046875,-7.00
10:09:44.062500,-5.78
10:09:44.078125,-4.57
10:09:44.093750,-3.13
10:09:44.109375,-1.43
10:09:44.125000,0.30
10:09:44.140625,1.77
10:09:44.156250,2.70
10:09:44.171875,2.99
10:09:44.187500,2.74
10:09:44.203125,2.15
10:09:44.218750,1.42
10:09:44.234375,0.73
10:09:44.250000,0.20
10:09:44.265625,-0.07
10:09:44.281250,-0.08
10:09:44.296875,0.08
10:09:44.312500,0.18
10:09:44.328125,-0.09
10:09:44.343750,-0.92
10:09:44.359375,-2.29
10:09:44.375000,-3.94
10:09:44.390625,-5.44
10:09:44.406250,-6.44
10:09:44.421875,-6.79
10:09:44.437500,-6.74
10:09:44.453125,-6.69
10:09:44.468750,-7.08
10:09:44.484375,-8.15
10:09:44.500000,-9.87
10:09:44.515625,-12.00
10:09:44.531250,-14.23
10:09:44.546875,-16.36
10:09:44.562500,-18.30
10:09:44.578125,-20.01
10:09:44.593750,-21.43
10:09:44.609375,-22.29
10:09:44.625000,-22.28
10:09:44.640625,-21.13
10:09:44.656250,-18.88
10:09:44.671875,-15.88
10:09:44.687500,-12.77
10:09:44.703125,-10.11
10:09:44.718750,-8.15
10:09:44.734375,-6.67
10:09:44.750000,-5.18
10:09:44.765625,-3.15
10:09:44.781250,-0.41
10:09:44.796875,2.81
10:09:44.812500,5.94
10:09:44.828125,8.39
10:09:44.843750,9.77
10:09:44.859375,10.06
10:09:44.875000,9.54
10:09:44.890625,8.59
10:09:44.906250,7.64
10:09:44.921875,6.97
10:09:44.937500,6.69
10:09:44.953125,6.76
10:09:44.968750,6.99
10:09:44.984375,7.11
10:09:45,6.88
10:09:45.015625,6.14
10:09:45.031250,4.89
10:09:45.046875,3.23
10:09:45.062500,1.34
10:09:45.078125,-0.61
10:09:45.093750,-2.44
10:09:45.109375,-4.08
10:09:45.125000,-5.49
10:09:45.140625,-6.77
10:09:45.156250,-8.06
10:09:45.171875,-9.55
10:09:45.187500,-11.38
10:09:45.203125,-13.58
10:09:45.218750,-16.09
10:09:45.234375,-18.73
10:09:45.250000,-21.30
10:09:45.265625,-23.54
10:09:45.281250,-25.18
10:09:45.296875,-25.88
10:09:45.312500,-25.33
10:09:45.328125,-23.40
10:09:45.343750,-20.20
10:09:45.359375,-16.17
10:09:45.375000,-11.87
10:09:45.390625,-7.78
10:09:45.406250,-4.15
10:09:45.421875,-0.86
10:09:45.437500,2.36
10:09:45.453125,5.75
10:09:45.468750,9.26
10:09:45.484375,12.57
10:09:45.500000,15.19
10:09:45.515625,16.66
10:09:45.531250,16.79
10:09:45.546875,15.72
10:09:45.562500,13.90
10:09:45.578125,11.94
10:09:45.593750,10.37
10:09:45.609375,9.44
10:09:45.625000,9.15
10:09:45.640625,9.20
10:09:45.656250,9.24
10:09:45.671875,9.02
10:09:45.687500,8.50
10:09:45.703125,7.80
10:09:45.718750,7.09
10:09:45.734375,6.43
10:09:45.750000,5.69
10:09:45.765625,4.62
10:09:45.781250,2.99
10:09:45.796875,0.80
10:09:45.812500,-1.72
10:09:45.828125,-4.14
10:09:45.843750,-6.06
10:09:45.859375,-7.28
10:09:45.875000,-7.90
10:09:45.890625,-8.26
10:09:45.906250,-8.78
10:09:45.921875,-9.86
10:09:45.937500,-11.66
10:09:45.953125,-14.14
10:09:45.968750,-16.96
10:09:45.984375,-19.66
10:09:46,-21.70
10:09:46.015625,-22.64
10:09:46.031250,-22.24
10:09:46.046875,-20.55
10:09:46.062500,-17.91
10:09:46.078125,-14.79
10:09:46.093750,-11.67
10:09:46.109375,-8.88
10:09:46.125000,-6.51
10:09:46.140625,-4.43
10:09:46.156250,-2.43
10:09:46.171875,-0.34
10:09:46.187500,1.91
10:09:46.203125,4.28
10:09:46.218750,6.67
10:09:46.234375,8.93
10:09:46.250000,10.99
10:09:46.265625,12.78
10:09:46.281250,14.29
10:09:46.296875,15.52
10:09:46.312500,16.51
10:09:46.328125,17.28
10:09:46.343750,17.91
10:09:46.359375,18.48
10:09:46.375000,19.07
10:09:46.390625,19.75
10:09:46.406250,20.55
10:09:46.421875,21.45
10:09:46.437500,22.34
10:09:46.453125,23.07
10:09:46.468750,23.52
10:09:46.484375,23.59
10:09:46.500000,23.25
10:09:46.515625,22.52
10:09:46.531250,21.41
10:09:46.546875,19.99
10:09:46.562500,18.30
10:09:46.578125,16.40
10:09:46.593750,14.35
10:09:46.609375,12.19
10:09:46.625000,9.88
10:09:46.640625,7.40
10:09:46.656250,4.70
10:09:46.671875,1.86
10:09:46.687500,-0.95
10:09:46.703125,-3.48
10:09:46.718750,-5.47
10:09:46.734375,-6.72
10:09:46.750000,-7.19
10:09:46.765625,-6.95
10:09:46.781250,-6.15
10:09:46.796875,-4.98
10:09:46.812500,-3.65
10:09:46.828125,-2.33
10:09:46.843750,-1.17
10:09:46.859375,-0.23
10:09:46.875000,0.48
10:09:46.890625,1.01
10:09:46.906250,1.43
10:09:46.921875,1.85
10:09:46.937500,2.34
10:09:46.953125,2.93
10:09:46.968750,3.57
10:09:46.984375,4.12
10:09:47,4.45
10:09:47.015625,4.43
10:09:47.031250,4.06
10:09:47.046875,3.44
10:09:47.062500,2.76
10:09:47.078125,2.20
10:09:47.093750,1.88
10:09:47.109375,1.82
10:09:47.125000,1.98
10:09:47.140625,2.34
10:09:47.156250,2.82
10:09:47.171875,3.34
10:09:47.187500,3.78
10:09:47.203125,4.02
10:09:47.218750,4.03
10:09:47.234375,3.90
10:09:47.250000,3.75
10:09:47.265625,3.68
10:09:47.281250,3.61
10:09:47.296875,3.27
10:09:47.312500,2.34
10:09:47.328125,0.59
10:09:47.343750,-1.94
10:09:47.359375,-4.94
10:09:47.375000,-7.97
10:09:47.390625,-10.60
10:09:47.406250,-12.62
10:09:47.421875,-14.03
10:09:47.437500,-14.98
10:09:47.453125,-15.65
10:09:47.468750,-16.15
10:09:47.484375,-16.50
10:09:47.500000,-16.64
10:09:47.515625,-16.43
10:09:47.531250,-15.77
10:09:47.546875,-14.57
10:09:47.562500,-12.82
10:09:47.578125,-10.55
10:09:47.593750,-7.92
10:09:47.609375,-5.13
10:09:47.625000,-2.43
10:09:47.640625,-0.05
10:09:47.656250,1.86
10:09:47.671875,3.21
10:09:47.687500,4.06
10:09:47.703125,4.53
10:09:47.718750,4.79
10:09:47.734375,4.98
10:09:47.750000,5.19
10:09:47.765625,5.44
10:09:47.781250,5.70
10:09:47.796875,5.88
10:09:47.812500,5.88
10:09:47.828125,5.62
10:09:47.843750,5.07
10:09:47.859375,4.31
10:09:47.875000,3.51
10:09:47.890625,2.79
10:09:47.906250,2.27
10:09:47.921875,1.89
10:09:47.937500,1.51
10:09:47.953125,0.91
10:09:47.968750,-0.05
10:09:47.984375,-1.38
10:09:48,-2.96
10:09:48.015625,-4.58
10:09:48.031250,-6.11
10:09:48.046875,-7.48
10:09:48.062500,-8.78
10:09:48.078125,-10.10
10:09:48.093750,-11.52
10:09:48.109375,-13.02
10:09:48.125000,-14.54
10:09:48.140625,-16.03
10:09:48.156250,-17.50
10:09:48.171875,-18.98
10:09:48.187500,-20.42
10:09:48.203125,-21.64
10:09:48.218750,-22.36
10:09:48.234375,-22.30
10:09:48.250000,-21.37
10:09:48.265625,-19.70
10:09:48.281250,-17.66
10:09:48.296875,-15.60
10:09:48.312500,-13.76
10:09:48.328125,-12.10
10:09:48.343750,-10.35
10:09:48.359375,-8.23
10:09:48.375000,-5.59
10:09:48.390625,-2.56
10:09:48.406250,0.49
10:09:48.421875,3.08
10:09:48.437500,4.87
10:09:48.453125,5.78
10:09:48.468750,6.05
10:09:48.484375,6.08
10:09:48.500000,6.24
10:09:48.515625,6.71
10:09:48.531250,7.39
10:09:48.546875,8.10
10:09:48.562500,8.59
10:09:48.578125,8.82
10:09:48.593750,8.88
10:09:48.609375,8.94
10:09:48.625000,9.16
10:09:48.640625,9.58
10:09:48.656250,10.14
10:09:48.671875,10.71
10:09:48.687500,11.09
10:09:48.703125,11.03
10:09:48.718750,10.31
10:09:48.734375,8.80
10:09:48.750000,6.60
10:09:48.765625,4.07
10:09:48.781250,1.75
10:09:48.796875,0.15
10:09:48.812500,-0.49
10:09:48.828125,-0.41
10:09:48.843750,-0.21
10:09:48.859375,-0.70
10:09:48.875000,-2.53
10:09:48.890625,-5.92
10:09:48.906250,-10.59
10:09:48.921875,-15.78
10:09:48.937500,-20.57
10:09:48.953125,-24.10
10:09:48.968750,-25.80
10:09:48.984375,-25.53
10:09:49,-23.58
10:09:49.015625,-20.52
10:09:49.031250,-17.02
10:09:49.046875,-13.69
10:09:49.062500,-10.93
10:09:49.078125,-8.86
10:09:49.093750,-7.37
10:09:49.109375,-6.14
10:09:49.125000,-4.82
10:09:49.140625,-3.04
10:09:49.156250,-0.64
10:09:49.171875,2.31
10:09:49.187500,5.55
10:09:49.203125,8.64
10:09:49.218750,11.18
10:09:49.234375,12.90
10:09:49.250000,13.74
10:09:49.265625,13.85
10:09:49.281250,13.45
10:09:49.296875,12.76
10:09:49.312500,11.94
10:09:49.328125,11.08
10:09:49.343750,10.27
10:09:49.359375,9.60
10:09:49.375000,9.11
10:09:49.390625,8.83
10:09:49.406250,8.62
10:09:49.421875,8.33
10:09:49.437500,7.80
10:09:49.453125,6.97
10:09:49.468750,5.94
10:09:49.484375,4.88
10:09:49.500000,3.98
10:09:49.515625,3.33
10:09:49.531250,2.85
10:09:49.546875,2.34
10:09:49.562500,1.56
10:09:49.578125,0.37
10:09:49.593750,-1.26
10:09:49.609375,-3.15
10:09:49.625000,-5.10
10:09:49.640625,-6.97
10:09:49.656250,-8.75
10:09:49.671875,-10.57
10:09:49.687500,-12.58
10:09:49.703125,-14.82
10:09:49.718750,-17.16
10:09:49.734375,-19.28
10:09:49.750000,-20.81
10:09:49.765625,-21.47
10:09:49.781250,-21.12
10:09:49.796875,-19.80
10:09:49.812500,-17.69
10:09:49.828125,-15.02
10:09:49.843750,-12.00
10:09:49.859375,-8.85
10:09:49.875000,-5.73
10:09:49.890625,-2.70
10:09:49.906250,0.19
10:09:49.921875,2.93
10:09:49.937500,5.50
10:09:49.953125,7.87
10:09:49.968750,9.93
10:09:49.984375,11.60
10:09:50,12.83
10:09:50.015625,13.61
10:09:50.031250,13.98
10:09:50.046875,14.00
10:09:50.062500,13.73
10:09:50.078125,13.28
10:09:50.093750,12.78
10:09:50.109375,12.37
10:09:50.125000,12.14
10:09:50.140625,12.06
10:09:50.156250,12.00
10:09:50.171875,11.81
10:09:50.187500,11.38
10:09:50.203125,10.71
10:09:50.218750,9.90
10:09:50.234375,9.00
10:09:50.250000,8.01
10:09:50.265625,6.83
10:09:50.281250,5.32
10:09:50.296875,3.44
10:09:50.312500,1.29
10:09:50.328125,-0.91
10:09:50.343750,-2.96
10:09:50.359375,-4.72
10:09:50.375000,-6.22
10:09:50.390625,-7.62
10:09:50.406250,-9.11
10:09:50.421875,-10.87
10:09:50.437500,-12.93
10:09:50.453125,-15.26
10:09:50.468750,-17.72
10:09:50.484375,-20.15
10:09:50.500000,-22.35
10:09:50.515625,-24.12
10:09:50.531250,-25.23
10:09:50.546875,-25.51
10:09:50.562500,-24.79
10:09:50.578125,-23.08
10:09:50.593750,-20.48
10:09:50.609375,-17.29
10:09:50.625000,-13.86
10:09:50.640625,-10.52
10:09:50.656250,-7.50
10:09:50.671875,-4.86
10:09:50.687500,-2.49
10:09:50.703125,-0.24
10:09:50.718750,2.02
10:09:50.734375,4.33
10:09:50.750000,6.62
10:09:50.765625,8.76
10:09:50.781250,10.63
10:09:50.796875,12.15
10:09:50.812500,13.28
10:09:50.828125,14.09
10:09:50.843750,14.63
10:09:50.859375,14.99
10:09:50.875000,15.24
10:09:50.890625,15.41
10:09:50.906250,15.52
10:09:50.921875,15.57
10:09:50.937500,15.52
10:09:50.953125,15.32
10:09:50.968750,14.91
10:09:50.984375,14.25
10:09:51,13.34
10:09:51.015625,12.26
10:09:51.031250,11.10
10:09:51.046875,9.94
10:09:51.062500,8.78
10:09:51.078125,7.57
10:09:51.093750,6.22
10:09:51.109375,4.69
10:09:51.125000,2.98
10:09:51.140625,1.14
10:09:51.156250,-0.78
10:09:51.171875,-2.78
10:09:51.187500,-4.86
10:09:51.203125,-7.00
10:09:51.218750,-9.21
10:09:51.234375,-11.49
10:09:51.250000,-13.85
10:09:51.265625,-16.34
10:09:51.281250,-18.90
10:09:51.296875,-21.37
10:09:51.312500,-23.42
10:09:51.328125,-24.68
10:09:51.343750,-24.84
10:09:51.359375,-23.83
10:09:51.375000,-21.80
10:09:51.390625,-19.10
10:09:51.406250,-16.09
10:09:51.421875,-13.01
10:09:51.437500,-9.98
10:09:51.453125,-7.02
10:09:51.468750,-4.15
10:09:51.484375,-1.40
10:09:51.500000,1.13
10:09:51.515625,3.35
10:09:51.531250,5.25
10:09:51.546875,6.88
10:09:51.562500,8.29
10:09:51.578125,9.54
10:09:51.593750,10.61
10:09:51.609375,11.48
10:09:51.625000,12.08
10:09:51.640625,12.37
10:09:51.656250,12.34
10:09:51.671875,12.04
10:09:51.687500,11.53
10:09:51.703125,10.92
10:09:51.718750,10.28
10:09:51.734375,9.68
10:09:51.750000,9.13
10:09:51.765625,8.56
10:09:51.781250,7.88
10:09:51.796875,6.94
10:09:51.812500,5.64
10:09:51.828125,3.94
10:09:51.843750,1.87
10:09:51.859375,-0.45
10:09:51.875000,-2.82
10:09:51.890625,-5.09
10:09:51.906250,-7.12
10:09:51.921875,-8.89
10:09:51.937500,-10.52
10:09:51.953125,-12.25
10:09:51.968750,-14.34
10:09:51.984375,-16.98
10:09:52,-20.16
10:09:52.015625,-23.65
10:09:52.031250,-26.95
10:09:52.046875,-29.48
10:09:52.062500,-30.78
10:09:52.078125,-30.60
10:09:52.093750,-28.99
10:09:52.109375,-26.26
10:09:52.125000,-22.83
10:09:52.140625,-19.11
10:09:52.156250,-15.46
10:09:52.171875,-12.12
10:09:52.187500,-9.16
10:09:52.203125,-6.51
10:09:52.218750,-3.91
10:09:52.234375,-1.02
10:09:52.250000,2.41
10:09:52.265625,6.43
10:09:52.281250,10.79
10:09:52.296875,15.03
10:09:52.312500,18.66
10:09:52.328125,21.40
10:09:52.343750,23.22
10:09:52.359375,24.29
10:09:52.375000,24.87
10:09:52.390625,25.14
10:09:52.406250,25.21
10:09:52.421875,25.16
10:09:52.437500,25.10
10:09:52.453125,25.16
10:09:52.468750,25.42
10:09:52.484375,25.77
10:09:52.500000,25.99
10:09:52.515625,25.79
10:09:52.531250,24.94
10:09:52.546875,23.39
10:09:52.562500,21.22
10:09:52.578125,18.61
10:09:52.593750,15.71
10:09:52.609375,12.65
10:09:52.625000,9.51
10:09:52.640625,6.35
10:09:52.656250,3.25
10:09:52.671875,0.26
10:09:52.687500,-2.65
10:09:52.703125,-5.58
10:09:52.718750,-8.70
10:09:52.734375,-12.15
10:09:52.750000,-15.97
10:09:52.765625,-20.03
10:09:52.781250,-24.08
10:09:52.796875,-27.74
10:09:52.812500,-30.64
10:09:52.828125,-32.45
10:09:52.843750,-33.00
10:09:52.859375,-32.28
10:09:52.875000,-30.44
10:09:52.890625,-27.72
10:09:52.906250,-24.42
10:09:52.921875,-20.83
10:09:52.937500,-17.22
10:09:52.953125,-13.75
10:09:52.968750,-10.50
10:09:52.984375,-7.48
10:09:53,-4.64
10:09:53.015625,-1.97
10:09:53.031250,0.50
10:09:53.046875,2.68
10:09:53.062500,4.48
10:09:53.078125,5.85
10:09:53.093750,6.84
10:09:53.109375,7.55
10:09:53.125000,8.11
10:09:53.140625,8.62
10:09:53.156250,9.10
10:09:53.171875,9.53
10:09:53.187500,9.92
10:09:53.203125,10.31
10:09:53.218750,10.77
10:09:53.234375,11.37
10:09:53.250000,12.07
10:09:53.265625,12.83
10:09:53.281250,13.52
10:09:53.296875,14.04
10:09:53.312500,14.33
10:09:53.328125,14.39
10:09:53.343750,14.27
10:09:53.359375,13.93
10:09:53.375000,13.37
10:09:53.390625,12.55
10:09:53.406250,11.52
10:09:53.421875,10.37
10:09:53.437500,9.25
10:09:53.453125,8.23
10:09:53.468750,7.21
10:09:53.484375,5.99
10:09:53.500000,4.26
10:09:53.515625,1.81
10:09:53.531250,-1.36
10:09:53.546875,-5.02
10:09:53.562500,-8.76
10:09:53.578125,-12.09
10:09:53.593750,-14.57
10:09:53.609375,-15.90
10:09:53.625000,-15.94
10:09:53.640625,-14.74
10:09:53.656250,-12.52
10:09:53.671875,-9.67
10:09:53.687500,-6.66
10:09:53.703125,-3.96
10:09:53.718750,-1.90
10:09:53.734375,-0.57
10:09:53.750000,0.19
10:09:53.765625,0.64
10:09:53.781250,1.04
10:09:53.796875,1.49
10:09:53.812500,1.92
10:09:53.828125,2.15
10:09:53.843750,2.04
10:09:53.859375,1.50
10:09:53.875000,0.62
10:09:53.890625,-0.49
10:09:53.906250,-1.71
10:09:53.921875,-2.96
10:09:53.937500,-4.21
10:09:53.953125,-5.40
10:09:53.968750,-6.49
10:09:53.984375,-7.46
10:09:54,-8.38
10:09:54.015625,-9.38
10:09:54.031250,-10.63
10:09:54.046875,-12.21
10:09:54.062500,-14.03
10:09:54.078125,-15.76
10:09:54.093750,-16.95
10:09:54.109375,-17.12
10:09:54.125000,-15.91
10:09:54.140625,-13.20
10:09:54.156250,-9.11
10:09:54.171875,-3.99
10:09:54.187500,1.69
10:09:54.203125,7.42
10:09:54.218750,12.66
10:09:54.234375,16.91
10:09:54.250000,19.74
10:09:54.265625,20.91
10:09:54.281250,20.46
10:09:54.296875,18.78
10:09:54.312500,16.56
10:09:54.328125,14.64
10:09:54.343750,13.87
10:09:54.359375,14.81
10:09:54.375000,17.71
10:09:54.390625,22.48
10:09:54.406250,28.81
10:09:54.421875,36.22
10:09:54.437500,44.21
10:09:54.453125,52.41
10:09:54.468750,60.55
10:09:54.484375,68.61
10:09:54.500000,76.77
10:09:54.515625,85.35
10:09:54.531250,94.52
10:09:54.546875,104.26
10:09:54.562500,114.15
10:09:54.578125,123.30
10:09:54.593750,130.40
10:09:54.609375,134.02
10:09:54.625000,132.95
10:09:54.640625,126.65
10:09:54.656250,115.60
10:09:54.671875,101.25
10:09:54.687500,85.63
10:09:54.703125,70.65
10:09:54.718750,57.52
10:09:54.734375,46.46
10:09:54.750000,36.91
10:09:54.765625,28.12
10:09:54.781250,19.59
10:09:54.796875,11.30
10:09:54.812500,3.38
10:09:54.828125,-4.22
10:09:54.843750,-12.06
10:09:54.859375,-21.06
10:09:54.875000,-32.12
10:09:54.890625,-45.62
10:09:54.906250,-61.04
10:09:54.921875,-76.96
10:09:54.937500,-91.26
10:09:54.953125,-101.55
10:09:54.968750,-105.83
10:09:54.984375,-103.05
10:09:55,-93.59
10:09:55.015625,-79.45
10:09:55.031250,-63.89
10:09:55.046875,-50.64
10:09:55.062500,-42.93
10:09:55.078125,-42.52
10:09:55.093750,-49.17
10:09:55.109375,-60.58
10:09:55.125000,-72.92
10:09:55.140625,-81.73
10:09:55.156250,-83.14
10:09:55.171875,-74.98
10:09:55.187500,-57.47
10:09:55.203125,-33.20
10:09:55.218750,-6.31
10:09:55.234375,18.84
10:09:55.250000,38.86
10:09:55.265625,52.10
10:09:55.281250,58.53
10:09:55.296875,59.19
10:09:55.312500,55.36
10:09:55.328125,48.12
10:09:55.343750,38.29
10:09:55.359375,26.72
10:09:55.375000,14.33
10:09:55.390625,1.77
10:09:55.406250,-10.79
10:09:55.421875,-23.61
10:09:55.437500,-36.82
10:09:55.453125,-49.71
10:09:55.468750,-60.45
10:09:55.484375,-66.57
10:09:55.500000,-66.20
10:09:55.515625,-59.16
10:09:55.531250,-47.43
10:09:55.546875,-34.54
10:09:55.562500,-24.16
10:09:55.578125,-18.73
10:09:55.593750,-18.78
10:09:55.609375,-23.20
10:09:55.625000,-30.04
10:09:55.640625,-37.42
10:09:55.656250,-43.90
10:09:55.671875,-48.52
10:09:55.687500,-50.58
10:09:55.703125,-49.64
10:09:55.718750,-45.69
10:09:55.734375,-39.29
10:09:55.750000,-31.57
10:09:55.765625,-23.82
10:09:55.781250,-17.22
10:09:55.796875,-12.47
10:09:55.812500,-9.66
10:09:55.828125,-8.37
10:09:55.843750,-7.92
10:09:55.859375,-7.61
10:09:55.875000,-6.84
10:09:55.890625,-5.30
10:09:55.906250,-2.98
10:09:55.921875,-0.19
10:09:55.937500,2.61
10:09:55.953125,4.95
10:09:55.968750,6.56
10:09:55.984375,7.38
10:09:56,7.62
10:09:56.015625,7.57
10:09:56.031250,7.52
10:09:56.046875,7.59
10:09:56.062500,7.75
10:09:56.078125,7.93
10:09:56.093750,8.01
10:09:56.109375,7.99
10:09:56.125000,7.91
10:09:56.140625,7.81
10:09:56.156250,7.66
10:09:56.171875,7.37
10:09:56.187500,6.79
10:09:56.203125,5.81
10:09:56.218750,4.38
10:09:56.234375,2.56
10:09:56.250000,0.51
10:09:56.265625,-1.60
10:09:56.281250,-3.60
10:09:56.296875,-5.42
10:09:56.312500,-7.11
10:09:56.328125,-8.84
10:09:56.343750,-10.75
10:09:56.359375,-12.88
10:09:56.375000,-15.05
10:09:56.390625,-16.88
10:09:56.406250,-17.87
10:09:56.421875,-17.63
10:09:56.437500,-15.98
10:09:56.453125,-13.11
10:09:56.468750,-9.45
10:09:56.484375,-5.54
10:09:56.500000,-1.78
10:09:56.515625,1.60
10:09:56.531250,4.57
10:09:56.546875,7.19
10:09:56.562500,9.44
10:09:56.578125,11.26
10:09:56.593750,12.53
10:09:56.609375,13.18
10:09:56.625000,13.26
10:09:56.640625,12.93
10:09:56.656250,12.38
10:09:56.671875,11.78
10:09:56.687500,11.22
10:09:56.703125,10.72
10:09:56.718750,10.26
10:09:56.734375,9.82
10:09:56.750000,9.41
10:09:56.765625,9.03
10:09:56.781250,8.66
10:09:56.796875,8.23
10:09:56.812500,7.61
10:09:56.828125,6.65
10:09:56.843750,5.24
10:09:56.859375,3.35
10:09:56.875000,1.10
10:09:56.890625,-1.24
10:09:56.906250,-3.43
10:09:56.921875,-5.27
10:09:56.937500,-6.78
10:09:56.953125,-8.10
10:09:56.968750,-9.51
10:09:56.984375,-11.26
10:09:57,-13.48
10:09:57.015625,-16.13
10:09:57.031250,-19.02
10:09:57.046875,-21.81
10:09:57.062500,-24.06
10:09:57.078125,-25.33
10:09:57.093750,-25.24
10:09:57.109375,-23.53
10:09:57.125000,-20.24
10:09:57.140625,-15.68
10:09:57.156250,-10.37
10:09:57.171875,-4.95
10:09:57.187500,0.10
10:09:57.203125,4.50
10:09:57.218750,8.21
10:09:57.234375,11.35
10:09:57.250000,14.02
10:09:57.265625,16.29
10:09:57.281250,18.11
10:09:57.296875,19.42
10:09:57.312500,20.24
10:09:57.328125,20.65
10:09:57.343750,20.78
10:09:57.359375,20.75
10:09:57.375000,20.62
10:09:57.390625,20.39
10:09:57.406250,20.03
10:09:57.421875,19.54
10:09:57.437500,18.92
10:09:57.453125,18.17
10:09:57.468750,17.22
10:09:57.484375,15.94
10:09:57.500000,14.20
10:09:57.515625,11.88
10:09:57.531250,9.04
10:09:57.546875,5.84
10:09:57.562500,2.55
10:09:57.578125,-0.56
10:09:57.593750,-3.33
10:09:57.609375,-5.72
10:09:57.625000,-7.84
10:09:57.640625,-9.89
10:09:57.656250,-12.15
10:09:57.671875,-14.81
10:09:57.687500,-17.94
10:09:57.703125,-21.40
10:09:57.718750,-24.80
10:09:57.734375,-27.60
10:09:57.750000,-29.23
10:09:57.765625,-29.29
10:09:57.781250,-27.62
10:09:57.796875,-24.46
10:09:57.812500,-20.29
10:09:57.828125,-15.69
10:09:57.843750,-11.13
10:09:57.859375,-6.88
10:09:57.875000,-2.99
10:09:57.890625,0.67
10:09:57.906250,4.22
10:09:57.921875,7.67
10:09:57.937500,10.94
10:09:57.953125,13.84
10:09:57.968750,16.18
10:09:57.984375,17.86
10:09:58,18.91
10:09:58.015625,19.44
10:09:58.031250,19.63
10:09:58.046875,19.61
10:09:58.062500,19.45
10:09:58.078125,19.15
10:09:58.093750,18.63
10:09:58.109375,17.85
10:09:58.125000,16.75
10:09:58.140625,15.34
10:09:58.156250,13.63
10:09:58.171875,11.69
10:09:58.187500,9.57
10:09:58.203125,7.39
10:09:58.218750,5.26
10:09:58.234375,3.23
10:09:58.250000,1.34
10:09:58.265625,-0.56
10:09:58.281250,-2.65
10:09:58.296875,-5.18
10:09:58.312500,-8.30
10:09:58.328125,-11.98
10:09:58.343750,-16.00
10:09:58.359375,-19.95
10:09:58.375000,-23.35
10:09:58.390625,-25.75
10:09:58.406250,-26.78
10:09:58.421875,-26.25
10:09:58.437500,-24.18
10:09:58.453125,-20.76
10:09:58.468750,-16.34
10:09:58.484375,-11.36
10:09:58.500000,-6.29
10:09:58.515625,-1.50
10:09:58.531250,2.81
10:09:58.546875,6.56
10:09:58.562500,9.82
10:09:58.578125,12.67
10:09:58.593750,15.17
10:09:58.609375,17.31
10:09:58.625000,19.05
10:09:58.640625,20.35
10:09:58.656250,21.17
10:09:58.671875,21.47
10:09:58.687500,21.15
10:09:58.703125,20.15
10:09:58.718750,18.49
10:09:58.734375,16.34
10:09:58.750000,14.04
10:09:58.765625,11.97
10:09:58.781250,10.36
10:09:58.796875,9.23
10:09:58.812500,8.35
10:09:58.828125,7.37
10:09:58.843750,6.02
10:09:58.859375,4.21
10:09:58.875000,2.05
10:09:58.890625,-0.26
10:09:58.906250,-2.52
10:09:58.921875,-4.68
10:09:58.937500,-6.82
10:09:58.953125,-9.10
10:09:58.968750,-11.72
10:09:58.984375,-14.80
10:09:59,-18.38
10:09:59.015625,-22.33
10:09:59.031250,-26.37
10:09:59.046875,-30.08
10:09:59.062500,-33.02
10:09:59.078125,-34.78
10:09:59.093750,-35.09
10:09:59.109375,-33.87
10:09:59.125000,-31.24
10:09:59.140625,-27.49
10:09:59.156250,-23.04
10:09:59.171875,-18.31
10:09:59.187500,-13.62
10:09:59.203125,-9.16
10:09:59.218750,-4.96
10:09:59.234375,-1.00
10:09:59.250000,2.71
10:09:59.265625,6.05
10:09:59.281250,8.82
10:09:59.296875,10.89
10:09:59.312500,12.24
10:09:59.328125,13.07
10:09:59.343750,13.66
10:09:59.359375,14.26
10:09:59.375000,14.98
10:09:59.390625,15.75
10:09:59.406250,16.36
10:09:59.421875,16.67
10:09:59.437500,16.59
10:09:59.453125,16.19
10:09:59.468750,15.56
10:09:59.484375,14.78
10:09:59.500000,13.84
10:09:59.515625,12.63
10:09:59.531250,11.04
10:09:59.546875,9.03
10:09:59.562500,6.68
10:09:59.578125,4.14
10:09:59.593750,1.59
10:09:59.609375,-0.85
10:09:59.625000,-3.18
10:09:59.640625,-5.52
10:09:59.656250,-8.04
10:09:59.671875,-10.90
10:09:59.687500,-14.17
10:09:59.703125,-17.78
10:09:59.718750,-21.57
10:09:59.734375,-25.24
10:09:59.750000,-28.36
10:09:59.765625,-30.48
10:09:59.781250,-31.21
10:09:59.796875,-30.30
10:09:59.812500,-27.80
10:09:59.828125,-23.98
10:09:59.843750,-19.33
10:09:59.859375,-14.37
10:09:59.875000,-9.51
10:09:59.890625,-4.92
10:09:59.906250,-0.55
10:09:59.921875,3.77
10:09:59.937500,8.20
10:09:59.953125,12.74
10:09:59.968750,17.13
10:09:59.984375,20.99
10:10:00,23.96
10:10:00.015625,25.90
10:10:00.031250,26.96
10:10:00.046875,27.51
10:10:00.062500,27.96
10:10:00.078125,28.52
10:10:00.093750,29.11
10:10:00.109375,29.44
10:10:00.125000,29.24
10:10:00.140625,28.42
10:10:00.156250,27.16
10:10:00.171875,25.79
10:10:00.187500,24.54
10:10:00.203125,23.48
10:10:00.218750,22.42
10:10:00.234375,21.12
10:10:00.250000,19.37
10:10:00.265625,17.10
10:10:00.281250,14.42
10:10:00.296875,11.49
10:10:00.312500,8.47
10:10:00.328125,5.47
10:10:00.343750,2.57
10:10:00.359375,-0.23
10:10:00.375000,-2.96
10:10:00.390625,-5.70
10:10:00.406250,-8.60
10:10:00.421875,-11.83
10:10:00.437500,-15.51
10:10:00.453125,-19.61
10:10:00.468750,-23.92
10:10:00.484375,-27.99
10:10:00.500000,-31.27
10:10:00.515625,-33.24
10:10:00.531250,-33.58
10:10:00.546875,-32.25
10:10:00.562500,-29.52
10:10:00.578125,-25.81
10:10:00.593750,-21.53
10:10:00.609375,-16.98
10:10:00.625000,-12.27
10:10:00.640625,-7.40
10:10:00.656250,-2.39
10:10:00.671875,2.64
10:10:00.687500,7.50
10:10:00.703125,11.94
10:10:00.718750,15.80
10:10:00.734375,19.03
10:10:00.750000,21.66
10:10:00.765625,23.78
10:10:00.781250,25.44
10:10:00.796875,26.65
10:10:00.812500,27.41
10:10:00.828125,27.72
10:10:00.843750,27.64
10:10:00.859375,27.25
10:10:00.875000,26.64
10:10:00.890625,25.86
10:10:00.906250,25.01
10:10:00.921875,24.12
10:10:00.937500,23.24
10:10:00.953125,22.36
10:10:00.968750,21.39
10:10:00.984375,20.19
10:10:01,18.66
10:10:01.015625,16.78
10:10:01.031250,14.61
10:10:01.046875,12.32
10:10:01.062500,10.02
10:10:01.078125,7.76
10:10:01.093750,5.46
10:10:01.109375,3.02
10:10:01.125000,0.36
10:10:01.140625,-2.57
10:10:01.156250,-5.75
10:10:01.171875,-9.10
10:10:01.187500,-12.55
10:10:01.203125,-16.02
10:10:01.218750,-19.45
10:10:01.234375,-22.81
10:10:01.250000,-26.04
10:10:01.265625,-29.01
10:10:01.281250,-31.44
10:10:01.296875,-32.99
10:10:01.312500,-33.33
10:10:01.328125,-32.24
10:10:01.343750,-29.75
10:10:01.359375,-26.12
10:10:01.375000,-21.73
10:10:01.390625,-16.90
10:10:01.406250,-11.85
10:10:01.421875,-6.64
10:10:01.437500,-1.30
10:10:01.453125,4.06
10:10:01.468750,9.27
10:10:01.484375,14.08
10:10:01.500000,18.26
10:10:01.515625,21.69
10:10:01.531250,24.35
10:10:01.546875,26.31
10:10:01.562500,27.70
10:10:01.578125,28.66
10:10:01.593750,29.32
10:10:01.609375,29.75
10:10:01.625000,29.99
10:10:01.640625,30.00
10:10:01.656250,29.73
10:10:01.671875,29.20
10:10:01.687500,28.45
10:10:01.703125,27.55
10:10:01.718750,26.56
10:10:01.734375,25.45
10:10:01.750000,24.14
10:10:01.765625,22.55
10:10:01.781250,20.64
10:10:01.796875,18.45
10:10:01.812500,16.03
10:10:01.828125,13.42
10:10:01.843750,10.57
10:10:01.859375,7.40
10:10:01.875000,3.87
10:10:01.890625,0.02
10:10:01.906250,-3.97
10:10:01.921875,-7.85
10:10:01.937500,-11.40
10:10:01.953125,-14.50
10:10:01.968750,-17.26
10:10:01.984375,-19.92
10:10:02,-22.79
10:10:02.015625,-26.13
10:10:02.031250,-29.96
10:10:02.046875,-34.01
10:10:02.062500,-37.75
10:10:02.078125,-40.53
10:10:02.093750,-41.76
10:10:02.109375,-41.15
10:10:02.125000,-38.76
10:10:02.140625,-34.94
10:10:02.156250,-30.23
10:10:02.171875,-25.10
10:10:02.187500,-19.87
10:10:02.203125,-14.70
10:10:02.218750,-9.61
10:10:02.234375,-4.63
10:10:02.250000,0.17
10:10:02.265625,4.67
10:10:02.281250,8.74
10:10:02.296875,12.24
10:10:02.312500,15.11
10:10:02.328125,17.37
10:10:02.343750,19.17
10:10:02.359375,20.66
10:10:02.375000,21.98
10:10:02.390625,23.19
10:10:02.406250,24.22
10:10:02.421875,24.94
10:10:02.437500,25.23
10:10:02.453125,25.09
10:10:02.468750,24.62
10:10:02.484375,23.98
10:10:02.500000,23.28
10:10:02.515625,22.55
10:10:02.531250,21.70
10:10:02.546875,20.62
10:10:02.562500,19.21
10:10:02.578125,17.45
10:10:02.593750,15.36
10:10:02.609375,12.97
10:10:02.625000,10.32
10:10:02.640625,7.48
10:10:02.656250,4.52
10:10:02.671875,1.58
10:10:02.687500,-1.21
10:10:02.703125,-3.75
10:10:02.718750,-6.04
10:10:02.734375,-8.15
10:10:02.750000,-10.24
10:10:02.765625,-12.49
10:10:02.781250,-15.08
10:10:02.796875,-18.12
10:10:02.812500,-21.63
10:10:02.828125,-25.50
10:10:02.843750,-29.38
10:10:02.859375,-32.77
10:10:02.875000,-35.10
10:10:02.890625,-35.93
10:10:02.906250,-35.05
10:10:02.921875,-32.58
10:10:02.937500,-28.93
10:10:02.953125,-24.57
10:10:02.968750,-19.92
10:10:02.984375,-15.22
10:10:03,-10.53
10:10:03.015625,-5.89
10:10:03.031250,-1.32
10:10:03.046875,3.04
10:10:03.062500,7.01
10:10:03.078125,10.45
10:10:03.093750,13.29
10:10:03.109375,15.56
10:10:03.125000,17.33
10:10:03.140625,18.67
10:10:03.156250,19.59
10:10:03.171875,20.06
10:10:03.187500,20.07
10:10:03.203125,19.68
10:10:03.218750,19.00
10:10:03.234375,18.20
10:10:03.250000,17.40
10:10:03.265625,16.64
10:10:03.281250,15.83
10:10:03.296875,14.82
10:10:03.312500,13.46
10:10:03.328125,11.67
10:10:03.343750,9.52
10:10:03.359375,7.10
10:10:03.375000,4.54
10:10:03.390625,1.92
10:10:03.406250,-0.68
10:10:03.421875,-3.22
10:10:03.437500,-5.64
10:10:03.453125,-7.90
10:10:03.468750,-10.04
10:10:03.484375,-12.22
10:10:03.500000,-14.65
10:10:03.515625,-17.52
10:10:03.531250,-20.89
10:10:03.546875,-24.64
10:10:03.562500,-28.52
10:10:03.578125,-32.27
10:10:03.593750,-35.73
10:10:03.609375,-38.78
10:10:03.625000,-41.27
10:10:03.640625,-42.95
10:10:03.656250,-43.44
10:10:03.671875,-42.34
10:10:03.687500,-39.46
10:10:03.703125,-34.95
10:10:03.718750,-29.31
10:10:03.734375,-23.25
10:10:03.750000,-17.46
10:10:03.765625,-12.35
10:10:03.781250,-7.98
10:10:03.796875,-4.09
10:10:03.812500,-0.35
10:10:03.828125,3.53
10:10:03.843750,7.56
10:10:03.859375,11.51
10:10:03.875000,15.01
10:10:03.890625,17.70
10:10:03.906250,19.39
10:10:03.921875,20.18
10:10:03.937500,20.40
10:10:03.953125,20.48
10:10:03.968750,20.76
10:10:03.984375,21.39
10:10:04,22.22
10:10:04.015625,22.93
10:10:04.031250,23.18
10:10:04.046875,22.77
10:10:04.062500,21.73
10:10:04.078125,20.32
10:10:04.093750,18.84
10:10:04.109375,17.51
10:10:04.125000,16.37
10:10:04.140625,15.26
10:10:04.156250,13.96
10:10:04.171875,12.30
10:10:04.187500,10.35
10:10:04.203125,8.33
10:10:04.218750,6.55
10:10:04.234375,5.21
10:10:04.250000,4.32
10:10:04.265625,3.67
10:10:04.281250,2.94
10:10:04.296875,1.81
10:10:04.312500,0.10
10:10:04.328125,-2.21
10:10:04.343750,-4.91
10:10:04.359375,-7.68
10:10:04.375000,-10.07
10:10:04.390625,-11.65
10:10:04.406250,-12.07
10:10:04.421875,-11.10
10:10:04.437500,-8.69
10:10:04.453125,-4.96
10:10:04.468750,-0.13
10:10:04.484375,5.49
10:10:04.500000,11.51
10:10:04.515625,17.53
10:10:04.531250,23.18
10:10:04.546875,28.16
10:10:04.562500,32.31
10:10:04.578125,35.65
10:10:04.593750,38.27
10:10:04.609375,40.28
10:10:04.625000,41.73
10:10:04.640625,42.57
10:10:04.656250,42.70
10:10:04.671875,42.04
10:10:04.687500,40.60
10:10:04.703125,38.50
10:10:04.718750,35.96
10:10:04.734375,33.22
10:10:04.750000,30.49
10:10:04.765625,27.88
10:10:04.781250,25.41
10:10:04.796875,22.95
10:10:04.812500,20.35
10:10:04.828125,17.53
10:10:04.843750,14.51
10:10:04.859375,11.46
10:10:04.875000,8.60
10:10:04.890625,6.08
10:10:04.906250,3.86
10:10:04.921875,1.72
10:10:04.937500,-0.62
10:10:04.953125,-3.37
10:10:04.968750,-6.52
10:10:04.984375,-9.87
10:10:05,-13.13
10:10:05.015625,-16.09
10:10:05.031250,-18.73
10:10:05.046875,-21.20
10:10:05.062500,-23.65
10:10:05.078125,-26.17
10:10:05.093750,-28.76
10:10:05.109375,-31.35
10:10:05.125000,-33.95
10:10:05.140625,-36.64
10:10:05.156250,-39.52
10:10:05.171875,-42.52
10:10:05.187500,-45.34
10:10:05.203125,-47.42
10:10:05.218750,-48.13
10:10:05.234375,-47.01
10:10:05.250000,-43.96
10:10:05.265625,-39.28
10:10:05.281250,-33.54
10:10:05.296875,-27.38
10:10:05.312500,-21.28
10:10:05.328125,-15.47
10:10:05.343750,-9.94
10:10:05.359375,-4.61
10:10:05.375000,0.53
10:10:05.390625,5.37
10:10:05.406250,9.71
10:10:05.421875,13.38
10:10:05.437500,16.35
10:10:05.453125,18.73
10:10:05.468750,20.67
10:10:05.484375,22.31
10:10:05.500000,23.61
10:10:05.515625,24.46
10:10:05.531250,24.73
10:10:05.546875,24.37
10:10:05.562500,23.46
10:10:05.578125,22.24
10:10:05.593750,20.93
10:10:05.609375,19.71
10:10:05.625000,18.62
10:10:05.640625,17.59
10:10:05.656250,16.50
10:10:05.671875,15.24
10:10:05.687500,13.76
10:10:05.703125,12.07
10:10:05.718750,10.28
10:10:05.734375,8.49
10:10:05.750000,6.74
10:10:05.765625,4.96
10:10:05.781250,3.02
10:10:05.796875,0.79
10:10:05.812500,-1.77
10:10:05.828125,-4.56
10:10:05.843750,-7.41
10:10:05.859375,-10.14
10:10:05.875000,-12.69
10:10:05.890625,-15.11
10:10:05.906250,-17.52
10:10:05.921875,-20.05
10:10:05.937500,-22.80
10:10:05.953125,-25.82
10:10:05.968750,-29.16
10:10:05.984375,-32.78
10:10:06,-36.56
10:10:06.015625,-40.16
10:10:06.031250,-43.09
10:10:06.046875,-44.79
10:10:06.062500,-44.80
10:10:06.078125,-42.94
10:10:06.093750,-39.34
10:10:06.109375,-34.42
10:10:06.125000,-28.74
10:10:06.140625,-22.81
10:10:06.156250,-16.94
10:10:06.171875,-11.29
10:10:06.187500,-5.86
10:10:06.203125,-0.61
10:10:06.218750,4.45
10:10:06.234375,9.20
10:10:06.250000,13.44
10:10:06.265625,16.95
10:10:06.281250,19.61
10:10:06.296875,21.47
10:10:06.312500,22.73
10:10:06.328125,23.64
10:10:06.343750,24.42
10:10:06.359375,25.10
10:10:06.375000,25.57
10:10:06.390625,25.69
10:10:06.406250,25.43
10:10:06.421875,24.95
10:10:06.437500,24.49
10:10:06.453125,24.29
10:10:06.468750,24.38
10:10:06.484375,24.55
10:10:06.500000,24.43
10:10:06.515625,23.67
10:10:06.531250,22.13
10:10:06.546875,19.90
10:10:06.562500,17.27
10:10:06.578125,14.55
10:10:06.593750,11.92
10:10:06.609375,9.39
10:10:06.625000,6.86
10:10:06.640625,4.20
10:10:06.656250,1.38
10:10:06.671875,-1.60
10:10:06.687500,-4.69
10:10:06.703125,-7.87
10:10:06.718750,-11.15
10:10:06.734375,-14.56
10:10:06.750000,-18.11
10:10:06.765625,-21.76
10:10:06.781250,-25.45
10:10:06.796875,-29.16
10:10:06.812500,-32.81
10:10:06.828125,-36.39
10:10:06.843750,-39.84
10:10:06.859375,-43.03
10:10:06.875000,-45.71
10:10:06.890625,-47.53
10:10:06.906250,-48.13
10:10:06.921875,-47.23
10:10:06.937500,-44.71
10:10:06.953125,-40.66
10:10:06.968750,-35.33
10:10:06.984375,-29.08
10:10:07,-22.31
10:10:07.015625,-15.39
10:10:07.031250,-8.61
10:10:07.046875,-2.16
10:10:07.062500,3.82
10:10:07.078125,9.26
10:10:07.093750,14.14
10:10:07.109375,18.43
10:10:07.125000,22.10
10:10:07.140625,25.10
10:10:07.156250,27.35
10:10:07.171875,28.78
10:10:07.187500,29.40
10:10:07.203125,29.35
10:10:07.218750,28.85
10:10:07.234375,28.19
10:10:07.250000,27.61
10:10:07.265625,27.26
10:10:07.281250,27.13
10:10:07.296875,27.08
10:10:07.312500,26.98
10:10:07.328125,26.73
10:10:07.343750,26.24
10:10:07.359375,25.47
10:10:07.375000,24.35
10:10:07.390625,22.77
10:10:07.406250,20.67
10:10:07.421875,18.06
10:10:07.437500,15.05
10:10:07.453125,11.85
10:10:07.468750,8.61
10:10:07.484375,5.40
10:10:07.500000,2.21
10:10:07.515625,-1.05
10:10:07.531250,-4.45
10:10:07.546875,-8.00
10:10:07.562500,-11.68
10:10:07.578125,-15.44
10:10:07.593750,-19.23
10:10:07.609375,-23.00
10:10:07.625000,-26.72
10:10:07.640625,-30.38
10:10:07.656250,-34.01
10:10:07.671875,-37.70
10:10:07.687500,-41.57
10:10:07.703125,-45.74
10:10:07.718750,-50.21
10:10:07.734375,-54.78
10:10:07.750000,-59.04
10:10:07.765625,-62.41
10:10:07.781250,-64.28
10:10:07.796875,-64.25
10:10:07.812500,-62.21
10:10:07.828125,-58.43
10:10:07.843750,-53.49
10:10:07.859375,-48.05
10:10:07.875000,-42.70
10:10:07.890625,-37.78
10:10:07.906250,-33.35
10:10:07.921875,-29.18
10:10:07.937500,-24.87
10:10:07.953125,-19.83
10:10:07.968750,-13.45
10:10:07.984375,-5.24
10:10:08,4.92
10:10:08.015625,16.52
10:10:08.031250,28.46
10:10:08.046875,39.31
10:10:08.062500,47.86
10:10:08.078125,53.55
10:10:08.093750,56.54
10:10:08.109375,57.42
10:10:08.125000,56.71
10:10:08.140625,54.41
10:10:08.156250,50.07
10:10:08.171875,43.15
10:10:08.187500,33.61
10:10:08.203125,22.15
10:10:08.218750,10.23
10:10:08.234375,-0.60
10:10:08.250000,-9.20
10:10:08.265625,-15.19
10:10:08.281250,-18.93
10:10:08.296875,-21.05
10:10:08.312500,-22.04
10:10:08.328125,-21.95
10:10:08.343750,-20.47
10:10:08.359375,-17.08
10:10:08.375000,-11.38
10:10:08.390625,-3.15
10:10:08.406250,7.74
10:10:08.421875,21.21
10:10:08.437500,36.90
10:10:08.453125,53.68
10:10:08.468750,69.47
10:10:08.484375,81.36
10:10:08.500000,86.42
10:10:08.515625,82.90
10:10:08.531250,71.05
10:10:08.546875,53.28
10:10:08.562500,33.22
10:10:08.578125,14.40
10:10:08.593750,-0.97
10:10:08.609375,-12.47
10:10:08.625000,-20.99
10:10:08.640625,-27.88
10:10:08.656250,-34.27
10:10:08.671875,-40.80
10:10:08.687500,-47.67
10:10:08.703125,-54.84
10:10:08.718750,-61.98
10:10:08.734375,-68.36
10:10:08.750000,-72.88
10:10:08.765625,-74.39
10:10:08.781250,-72.26
10:10:08.796875,-66.96
10:10:08.812500,-60.15
10:10:08.828125,-54.18
10:10:08.843750,-51.30
10:10:08.859375,-52.82
10:10:08.875000,-58.62
10:10:08.890625,-67.11
10:10:08.906250,-75.62
10:10:08.921875,-81.04
10:10:08.937500,-80.63
10:10:08.953125,-72.78
10:10:08.968750,-57.41
10:10:08.984375,-35.96
10:10:09,-10.77
10:10:09.015625,15.81
10:10:09.031250,42.11
10:10:09.046875,67.36
10:10:09.062500,91.37
10:10:09.078125,113.89
10:10:09.093750,134.28
10:10:09.109375,151.46
10:10:09.125000,164.46
10:10:09.140625,172.89
10:10:09.156250,177.17
10:10:09.171875,178.25
10:10:09.187500,176.91
10:10:09.203125,173.22
10:10:09.218750,166.46
10:10:09.234375,155.47
10:10:09.250000,139.46
10:10:09.265625,118.62
10:10:09.281250,94.32
10:10:09.296875,68.78
10:10:09.312500,44.35
10:10:09.328125,22.78
10:10:09.343750,4.75
10:10:09.359375,-9.98
10:10:09.375000,-22.14
10:10:09.390625,-32.34
10:10:09.406250,-40.70
10:10:09.421875,-46.95
10:10:09.437500,-50.77
10:10:09.453125,-52.29
10:10:09.468750,-52.24
10:10:09.484375,-51.74
10:10:09.500000,-51.98
10:10:09.515625,-53.68
10:10:09.531250,-56.97
10:10:09.546875,-61.38
10:10:09.562500,-66.09
10:10:09.578125,-70.16
10:10:09.593750,-72.80
10:10:09.609375,-73.38
10:10:09.625000,-71.51
10:10:09.640625,-67.01
10:10:09.656250,-59.97
10:10:09.671875,-50.77
10:10:09.687500,-40.20
10:10:09.703125,-29.29
10:10:09.718750,-19.18
10:10:09.734375,-10.77
10:10:09.750000,-4.39
10:10:09.765625,0.30
10:10:09.781250,4.30
10:10:09.796875,8.83
10:10:09.812500,14.91
10:10:09.828125,23.00
10:10:09.843750,32.83
10:10:09.859375,43.59
10:10:09.875000,54.24
10:10:09.890625,63.88
10:10:09.906250,71.96
10:10:09.921875,78.33
10:10:09.937500,83.17
10:10:09.953125,86.92
10:10:09.968750,90.04
10:10:09.984375,92.97
10:10:10,95.91
10:10:10.015625,98.73
10:10:10.031250,100.86
10:10:10.046875,101.46
10:10:10.062500,99.62
10:10:10.078125,94.62
10:10:10.093750,86.18
10:10:10.109375,74.46
10:10:10.125000,59.94
10:10:10.140625,43.24
10:10:10.156250,25.05
10:10:10.171875,6.07
10:10:10.187500,-12.83
10:10:10.203125,-30.71
10:10:10.218750,-46.62
10:10:10.234375,-59.82
10:10:10.250000,-69.88
10:10:10.265625,-76.76
10:10:10.281250,-80.66
10:10:10.296875,-81.88
10:10:10.312500,-80.71
10:10:10.328125,-77.44
10:10:10.343750,-72.49
10:10:10.359375,-66.46
10:10:10.375000,-60.11
10:10:10.390625,-54.19
10:10:10.406250,-49.28
10:10:10.421875,-45.63
10:10:10.437500,-43.19
10:10:10.453125,-41.67
10:10:10.468750,-40.68
10:10:10.484375,-39.84
10:10:10.500000,-38.77
10:10:10.515625,-37.16
10:10:10.531250,-34.80
10:10:10.546875,-31.69
10:10:10.562500,-28.02
10:10:10.578125,-24.16
10:10:10.593750,-20.56
10:10:10.609375,-17.55
10:10:10.625000,-15.31
10:10:10.640625,-13.74
10:10:10.656250,-12.62
10:10:10.671875,-11.66
10:10:10.687500,-10.65
10:10:10.703125,-9.49
10:10:10.718750,-8.25
10:10:10.734375,-7.09
10:10:10.750000,-6.27
10:10:10.765625,-5.98
10:10:10.781250,-6.40
10:10:10.796875,-7.64
10:10:10.812500,-9.73
10:10:10.828125,-12.66
10:10:10.843750,-16.36
10:10:10.859375,-20.72
10:10:10.875000,-25.63
10:10:10.890625,-30.98
10:10:10.906250,-36.65
10:10:10.921875,-42.51
10:10:10.937500,-48.35
10:10:10.953125,-53.75
10:10:10.968750,-58.15
10:10:10.984375,-60.93
10:10:11,-61.60
10:10:11.015625,-59.99
10:10:11.031250,-56.27
10:10:11.046875,-50.95
10:10:11.062500,-44.59
10:10:11.078125,-37.70
10:10:11.093750,-30.65
10:10:11.109375,-23.74
10:10:11.125000,-17.34
10:10:11.140625,-11.98
10:10:11.156250,-8.20
10:10:11.171875,-6.31
10:10:11.187500,-6.16
10:10:11.203125,-7.10
10:10:11.218750,-8.13
10:10:11.234375,-8.33
10:10:11.250000,-7.20
10:10:11.265625,-4.78
10:10:11.281250,-1.60
10:10:11.296875,1.70
10:10:11.312500,4.70
10:10:11.328125,7.30
10:10:11.343750,9.67
10:10:11.359375,12.03
10:10:11.375000,14.45
10:10:11.390625,16.75
10:10:11.406250,18.62
10:10:11.421875,19.79
10:10:11.437500,20.11
10:10:11.453125,19.64
10:10:11.468750,18.54
10:10:11.484375,17.00
10:10:11.500000,15.22
10:10:11.515625,13.32
10:10:11.531250,11.44
10:10:11.546875,9.64
10:10:11.562500,7.85
10:10:11.578125,5.93
10:10:11.593750,3.62
10:10:11.609375,0.74
10:10:11.625000,-2.77
10:10:11.640625,-6.73
10:10:11.656250,-10.79
10:10:11.671875,-14.47
10:10:11.687500,-17.29
10:10:11.703125,-18.87
10:10:11.718750,-19.02
10:10:11.734375,-17.76
10:10:11.750000,-15.26
10:10:11.765625,-11.84
10:10:11.781250,-7.88
10:10:11.796875,-3.71
10:10:11.812500,0.44
10:10:11.828125,4.48
10:10:11.843750,8.43
10:10:11.859375,12.37
10:10:11.875000,16.34
10:10:11.890625,20.20
10:10:11.906250,23.61
10:10:11.921875,26.08
10:10:11.937500,27.09
10:10:11.953125,26.32
10:10:11.968750,23.88
10:10:11.984375,20.37
10:10:12,16.79
10:10:12.015625,14.18
10:10:12.031250,13.32
10:10:12.046875,14.36
10:10:12.062500,16.76
10:10:12.078125,19.48
10:10:12.093750,21.31
10:10:12.109375,21.34
10:10:12.125000,19.19
10:10:12.140625,15.15
10:10:12.156250,9.96
10:10:12.171875,4.56
10:10:12.187500,-0.16
10:10:12.203125,-3.62
10:10:12.218750,-5.61
10:10:12.234375,-6.31
10:10:12.250000,-6.18
10:10:12.265625,-5.84
10:10:12.281250,-5.98
10:10:12.296875,-7.16
10:10:12.312500,-9.76
10:10:12.328125,-13.74
10:10:12.343750,-18.65
10:10:12.359375,-23.61
10:10:12.375000,-27.55
10:10:12.390625,-29.54
10:10:12.406250,-29.15
10:10:12.421875,-26.62
10:10:12.437500,-22.79
10:10:12.453125,-18.76
10:10:12.468750,-15.44
10:10:12.484375,-13.19
10:10:12.500000,-11.79
10:10:12.515625,-10.60
10:10:12.531250,-8.92
10:10:12.546875,-6.39
10:10:12.562500,-3.05
10:10:12.578125,0.66
10:10:12.593750,4.19
10:10:12.609375,7.08
10:10:12.625000,9.11
10:10:12.640625,10.37
10:10:12.656250,11.09
10:10:12.671875,11.56
10:10:12.687500,11.93
10:10:12.703125,12.22
10:10:12.718750,12.32
10:10:12.734375,12.14
10:10:12.750000,11.65
10:10:12.765625,10.91
10:10:12.781250,10.09
10:10:12.796875,9.27
10:10:12.812500,8.44
10:10:12.828125,7.42
10:10:12.843750,5.98
10:10:12.859375,3.97
10:10:12.875000,1.43
10:10:12.890625,-1.46
10:10:12.906250,-4.47
10:10:12.921875,-7.46
10:10:12.937500,-10.46
10:10:12.953125,-13.57
10:10:12.968750,-16.85
10:10:12.984375,-20.13
10:10:13,-22.98
10:10:13.015625,-24.82
10:10:13.031250,-25.15
10:10:13.046875,-23.83
10:10:13.062500,-21.06
10:10:13.078125,-17.35
10:10:13.093750,-13.23
10:10:13.109375,-9.12
10:10:13.125000,-5.22
10:10:13.140625,-1.58
10:10:13.156250,1.81
10:10:13.171875,4.94
10:10:13.187500,7.76
10:10:13.203125,10.26
10:10:13.218750,12.43
10:10:13.234375,14.22
10:10:13.250000,15.60
10:10:13.265625,16.47
10:10:13.281250,16.80
10:10:13.296875,16.66
10:10:13.312500,16.24
10:10:13.328125,15.74
10:10:13.343750,15.31
10:10:13.359375,14.96
10:10:13.375000,14.60
10:10:13.390625,14.09
10:10:13.406250,13.36
10:10:13.421875,12.43
10:10:13.437500,11.34
10:10:13.453125,10.06
10:10:13.468750,8.54
10:10:13.484375,6.72
10:10:13.500000,4.61
10:10:13.515625,2.33
10:10:13.531250,0.06
10:10:13.546875,-2.05
10:10:13.562500,-4.01
10:10:13.578125,-5.95
10:10:13.593750,-8.08
10:10:13.609375,-10.54
10:10:13.625000,-13.29
10:10:13.640625,-16.09
10:10:13.656250,-18.53
10:10:13.671875,-20.20
10:10:13.687500,-20.74
10:10:13.703125,-19.99
10:10:13.718750,-18.00
10:10:13.734375,-15.01
10:10:13.750000,-11.36
10:10:13.765625,-7.40
10:10:13.781250,-3.39
10:10:13.796875,0.52
10:10:13.812500,4.23
10:10:13.828125,7.69
10:10:13.843750,10.82
10:10:13.859375,13.53
10:10:13.875000,15.74
10:10:13.890625,17.42
10:10:13.906250,18.63
10:10:13.921875,19.51
10:10:13.937500,20.22
10:10:13.953125,20.87
10:10:13.968750,21.53
10:10:13.984375,22.14
10:10:14,22.61
10:10:14.015625,22.83
10:10:14.031250,22.72
10:10:14.046875,22.25
10:10:14.062500,21.49
10:10:14.078125,20.52
10:10:14.093750,19.45
10:10:14.109375,18.32
10:10:14.125000,17.10
10:10:14.140625,15.69
10:10:14.156250,14.02
10:10:14.171875,12.04
10:10:14.187500,9.84
10:10:14.203125,7.60
10:10:14.218750,5.53
10:10:14.234375,3.86
10:10:14.250000,2.71
10:10:14.265625,2.11
10:10:14.281250,1.96
10:10:14.296875,2.07
10:10:14.312500,2.14
10:10:14.328125,1.88
10:10:14.343750,1.03
10:10:14.359375,-0.51
10:10:14.375000,-2.56
10:10:14.390625,-4.66
10:10:14.406250,-6.17
10:10:14.421875,-6.52
10:10:14.437500,-5.43
10:10:14.453125,-3.06
10:10:14.468750,0.08
10:10:14.484375,3.32
10:10:14.500000,6.16
10:10:14.515625,8.39
10:10:14.531250,10.16
10:10:14.546875,11.75
10:10:14.562500,13.38
10:10:14.578125,15.10
10:10:14.593750,16.83
10:10:14.609375,18.35
10:10:14.625000,19.52
10:10:14.640625,20.24
10:10:14.656250,20.50
10:10:14.671875,20.24
10:10:14.687500,19.46
10:10:14.703125,18.18
10:10:14.718750,16.55
10:10:14.734375,14.81
10:10:14.750000,13.18
10:10:14.765625,11.82
10:10:14.781250,10.68
10:10:14.796875,9.56
10:10:14.812500,8.18
10:10:14.828125,6.39
10:10:14.843750,4.22
10:10:14.859375,1.91
10:10:14.875000,-0.26
10:10:14.890625,-2.12
10:10:14.906250,-3.71
10:10:14.921875,-5.29
10:10:14.937500,-7.15
10:10:14.953125,-9.47
10:10:14.968750,-12.14
10:10:14.984375,-14.83
10:10:15,-17.17
10:10:15.015625,-18.92
10:10:15.031250,-20.16
10:10:15.046875,-21.17
10:10:15.062500,-22.33
10:10:15.078125,-23.86
10:10:15.093750,-25.67
10:10:15.109375,-27.41
10:10:15.125000,-28.60
10:10:15.140625,-28.79
10:10:15.156250,-27.67
10:10:15.171875,-25.15
10:10:15.187500,-21.30
10:10:15.203125,-16.33
10:10:15.218750,-10.54
10:10:15.234375,-4.28
10:10:15.250000,2.03
10:10:15.265625,8.02
10:10:15.281250,13.44
10:10:15.296875,18.22
10:10:15.312500,22.38
10:10:15.328125,26.02
10:10:15.343750,29.18
10:10:15.359375,31.77
10:10:15.375000,33.65
10:10:15.390625,34.66
10:10:15.406250,34.79
10:10:15.421875,34.16
10:10:15.437500,32.96
10:10:15.453125,31.32
10:10:15.468750,29.25
10:10:15.484375,26.65
10:10:15.500000,23.45
10:10:15.515625,19.69
10:10:15.531250,15.59
10:10:15.546875,11.51
10:10:15.562500,7.74
10:10:15.578125,4.44
10:10:15.593750,1.56
10:10:15.609375,-1.10
10:10:15.625000,-3.75
10:10:15.640625,-6.47
10:10:15.656250,-9.19
10:10:15.671875,-11.74
10:10:15.687500,-13.95
10:10:15.703125,-15.71
10:10:15.718750,-17.03
10:10:15.734375,-17.98
10:10:15.750000,-18.72
10:10:15.765625,-19.38
10:10:15.781250,-20.11
10:10:15.796875,-21.02
10:10:15.812500,-22.26
10:10:15.828125,-23.91
10:10:15.843750,-25.99
10:10:15.859375,-28.32
10:10:15.875000,-30.53
10:10:15.890625,-32.16
10:10:15.906250,-32.73
10:10:15.921875,-31.94
10:10:15.937500,-29.82
10:10:15.953125,-26.64
10:10:15.968750,-22.88
10:10:15.984375,-18.99
10:10:16,-15.29
10:10:16.015625,-11.90
10:10:16.031250,-8.78
10:10:16.046875,-5.85
10:10:16.062500,-3.07
10:10:16.078125,-0.50
10:10:16.093750,1.74
10:10:16.109375,3.58
10:10:16.125000,5.05
10:10:16.140625,6.22
10:10:16.156250,7.24
10:10:16.171875,8.16
10:10:16.187500,8.96
10:10:16.203125,9.51
10:10:16.218750,9.69
10:10:16.234375,9.45
10:10:16.250000,8.88
10:10:16.265625,8.19
10:10:16.281250,7.65
10:10:16.296875,7.43
10:10:16.312500,7.53
10:10:16.328125,7.75
10:10:16.343750,7.73
10:10:16.359375,7.13
10:10:16.375000,5.77
10:10:16.390625,3.73
10:10:16.406250,1.33
10:10:16.421875,-1.04
10:10:16.437500,-3.03
10:10:16.453125,-4.54
10:10:16.468750,-5.75
10:10:16.484375,-6.98
10:10:16.500000,-8.59
10:10:16.515625,-10.81
10:10:16.531250,-13.64
10:10:16.546875,-16.95
10:10:16.562500,-20.51
10:10:16.578125,-24.08
10:10:16.593750,-27.38
10:10:16.609375,-30.03
10:10:16.625000,-31.65
10:10:16.640625,-31.87
10:10:16.656250,-30.55
10:10:16.671875,-27.83
10:10:16.687500,-24.13
10:10:16.703125,-19.98
10:10:16.718750,-15.79
10:10:16.734375,-11.72
10:10:16.750000,-7.72
10:10:16.765625,-3.66
10:10:16.781250,0.49
10:10:16.796875,4.57
10:10:16.812500,8.31
10:10:16.828125,11.45
10:10:16.843750,13.84
10:10:16.859375,15.55
10:10:16.875000,16.72
10:10:16.890625,17.50
10:10:16.906250,17.99
10:10:16.921875,18.18
10:10:16.937500,18.07
10:10:16.953125,17.69
10:10:16.968750,17.12
10:10:16.984375,16.47
10:10:17,15.83
10:10:17.015625,15.21
10:10:17.031250,14.55
10:10:17.046875,13.72
10:10:17.062500,12.59
10:10:17.078125,11.09
10:10:17.093750,9.21
10:10:17.109375,7.03
10:10:17.125000,4.66
10:10:17.140625,2.24
10:10:17.156250,-0.09
10:10:17.171875,-2.27
10:10:17.187500,-4.27
10:10:17.203125,-6.13
10:10:17.218750,-7.97
10:10:17.234375,-10.01
10:10:17.250000,-12.41
10:10:17.265625,-15.31
10:10:17.281250,-18.64
10:10:17.296875,-22.09
10:10:17.312500,-25.17
10:10:17.328125,-27.27
10:10:17.343750,-27.91
10:10:17.359375,-26.89
10:10:17.375000,-24.41
10:10:17.390625,-20.91
10:10:17.406250,-16.99
10:10:17.421875,-13.13
10:10:17.437500,-9.53
10:10:17.453125,-6.18
10:10:17.468750,-2.88
10:10:17.484375,0.50
10:10:17.500000,3.96
10:10:17.515625,7.33
10:10:17.531250,10.36
10:10:17.546875,12.84
10:10:17.562500,14.67
10:10:17.578125,15.93
10:10:17.593750,16.74
10:10:17.609375,17.30
10:10:17.625000,17.73
10:10:17.640625,18.10
10:10:17.656250,18.39
10:10:17.671875,18.53
10:10:17.687500,18.48
10:10:17.703125,18.23
10:10:17.718750,17.86
10:10:17.734375,17.45
10:10:17.750000,17.08
10:10:17.765625,16.69
10:10:17.781250,16.12
10:10:17.796875,15.17
10:10:17.812500,13.69
10:10:17.828125,11.73
10:10:17.843750,9.49
10:10:17.859375,7.23
10:10:17.875000,5.19
10:10:17.890625,3.39
10:10:17.906250,1.76
10:10:17.921875,0.09
10:10:17.937500,-1.78
10:10:17.953125,-3.91
10:10:17.968750,-6.28
10:10:17.984375,-8.87
10:10:18,-11.70
10:10:18.015625,-14.82
10:10:18.031250,-18.25
10:10:18.046875,-21.83
10:10:18.062500,-25.24
10:10:18.078125,-27.97
10:10:18.093750,-29.56
10:10:18.109375,-29.70
10:10:18.125000,-28.42
10:10:18.140625,-26.00
10:10:18.156250,-22.89
10:10:18.171875,-19.48
10:10:18.187500,-15.99
10:10:18.203125,-12.45
10:10:18.218750,-8.76
10:10:18.234375,-4.91
10:10:18.250000,-0.98
10:10:18.265625,2.79
10:10:18.281250,6.18
10:10:18.296875,9.06
10:10:18.312500,11.46
10:10:18.328125,13.50
10:10:18.343750,15.31
10:10:18.359375,16.96
10:10:18.375000,18.39
10:10:18.390625,19.54
10:10:18.406250,20.36
10:10:18.421875,20.86
10:10:18.437500,21.11
10:10:18.453125,21.21
10:10:18.468750,21.21
10:10:18.484375,21.11
10:10:18.500000,20.90
10:10:18.515625,20.54
10:10:18.531250,20.04
10:10:18.546875,19.41
10:10:18.562500,18.64
10:10:18.578125,17.70
10:10:18.593750,16.51
10:10:18.609375,14.95
10:10:18.625000,12.92
10:10:18.640625,10.41
10:10:18.656250,7.56
10:10:18.671875,4.62
10:10:18.687500,1.86
10:10:18.703125,-0.52
10:10:18.718750,-2.45
10:10:18.734375,-4.03
10:10:18.750000,-5.45
10:10:18.765625,-6.90
10:10:18.781250,-8.54
10:10:18.796875,-10.49
10:10:18.812500,-12.91
10:10:18.828125,-15.89
10:10:18.843750,-19.43
10:10:18.859375,-23.32
10:10:18.875000,-27.10
10:10:18.890625,-30.15
10:10:18.906250,-31.85
10:10:18.921875,-31.86
10:10:18.937500,-30.17
10:10:18.953125,-27.19
10:10:18.968750,-23.51
10:10:18.984375,-19.68
10:10:19,-16.04
10:10:19.015625,-12.63
10:10:19.031250,-9.31
10:10:19.046875,-5.92
10:10:19.062500,-2.40
10:10:19.078125,1.15
10:10:19.093750,4.46
10:10:19.109375,7.29
10:10:19.125000,9.51
10:10:19.140625,11.17
10:10:19.156250,12.46
10:10:19.171875,13.61
10:10:19.187500,14.77
10:10:19.203125,15.96
10:10:19.218750,17.01
10:10:19.234375,17.75
10:10:19.250000,18.05
10:10:19.265625,17.92
10:10:19.281250,17.53
10:10:19.296875,17.10
10:10:19.312500,16.80
10:10:19.328125,16.63
10:10:19.343750,16.47
10:10:19.359375,16.17
10:10:19.375000,15.62
10:10:19.390625,14.83
10:10:19.406250,13.88
10:10:19.421875,12.87
10:10:19.437500,11.82
10:10:19.453125,10.67
10:10:19.468750,9.34
10:10:19.484375,7.78
10:10:19.500000,6.06
10:10:19.515625,4.26
10:10:19.531250,2.47
10:10:19.546875,0.68
10:10:19.562500,-1.22
10:10:19.578125,-3.35
10:10:19.593750,-5.78
10:10:19.609375,-8.46
10:10:19.625000,-11.32
10:10:19.640625,-14.29
10:10:19.656250,-17.36
10:10:19.671875,-20.54
10:10:19.687500,-23.78
10:10:19.703125,-26.84
10:10:19.718750,-29.35
10:10:19.734375,-30.89
10:10:19.750000,-31.16
10:10:19.765625,-30.08
10:10:19.781250,-27.88
10:10:19.796875,-24.91
10:10:19.812500,-21.60
10:10:19.828125,-18.24
10:10:19.843750,-14.97
10:10:19.859375,-11.76
10:10:19.875000,-8.53
10:10:19.890625,-5.23
10:10:19.906250,-1.87
10:10:19.921875,1.40
10:10:19.937500,4.36
10:10:19.953125,6.81
10:10:19.968750,8.62
10:10:19.984375,9.79
10:10:20,10.46
10:10:20.015625,10.82
10:10:20.031250,11.08
10:10:20.046875,11.38
10:10:20.062500,11.75
10:10:20.078125,12.10
10:10:20.093750,12.28
10:10:20.109375,12.15
10:10:20.125000,11.60
10:10:20.140625,10.69
10:10:20.156250,9.59
10:10:20.171875,8.55
10:10:20.187500,7.78
10:10:20.203125,7.29
10:10:20.218750,6.93
10:10:20.234375,6.42
10:10:20.250000,5.53
10:10:20.265625,4.23
10:10:20.281250,2.62
10:10:20.296875,0.95
10:10:20.312500,-0.57
10:10:20.328125,-1.89
10:10:20.343750,-3.07
10:10:20.359375,-4.31
10:10:20.375000,-5.76
10:10:20.390625,-7.53
10:10:20.406250,-9.68
10:10:20.421875,-12.23
10:10:20.437500,-15.13
10:10:20.453125,-18.22
10:10:20.468750,-21.19
10:10:20.484375,-23.63
10:10:20.500000,-25.07
10:10:20.515625,-25.22
10:10:20.531250,-23.97
10:10:20.546875,-21.46
10:10:20.562500,-18.04
10:10:20.578125,-14.14
10:10:20.593750,-10.17
10:10:20.609375,-6.40
10:10:20.625000,-2.96
10:10:20.640625,0.21
10:10:20.656250,3.25
10:10:20.671875,6.30
10:10:20.687500,9.41
10:10:20.703125,12.45
10:10:20.718750,15.21
10:10:20.734375,17.45
10:10:20.750000,19.01
10:10:20.765625,19.87
10:10:20.781250,20.19
10:10:20.796875,20.21
10:10:20.812500,20.12
10:10:20.828125,20.04
10:10:20.843750,19.98
10:10:20.859375,19.90
10:10:20.875000,19.71
10:10:20.890625,19.36
10:10:20.906250,18.79
10:10:20.921875,17.98
10:10:20.937500,16.94
10:10:20.953125,15.67
10:10:20.968750,14.24
10:10:20.984375,12.73
10:10:21,11.21
10:10:21.015625,9.70
10:10:21.031250,8.18
10:10:21.046875,6.55
10:10:21.062500,4.73
10:10:21.078125,2.69
10:10:21.093750,0.45
10:10:21.109375,-1.94
10:10:21.125000,-4.45
10:10:21.140625,-7.05
10:10:21.156250,-9.77
10:10:21.171875,-12.62
10:10:21.187500,-15.66
10:10:21.203125,-18.95
10:10:21.218750,-22.53
10:10:21.234375,-26.37
10:10:21.250000,-30.25
10:10:21.265625,-33.79
10:10:21.281250,-36.49
10:10:21.296875,-37.89
10:10:21.312500,-37.76
10:10:21.328125,-36.20
10:10:21.343750,-33.54
10:10:21.359375,-30.25
10:10:21.375000,-26.67
10:10:21.390625,-22.94
10:10:21.406250,-19.05
10:10:21.421875,-14.89
10:10:21.437500,-10.46
10:10:21.453125,-5.86
10:10:21.468750,-1.32
10:10:21.484375,2.88
10:10:21.500000,6.52
10:10:21.515625,9.48
10:10:21.531250,11.75
10:10:21.546875,13.42
10:10:21.562500,14.64
10:10:21.578125,15.53
10:10:21.593750,16.24
10:10:21.609375,16.86
10:10:21.625000,17.51
10:10:21.640625,18.20
10:10:21.656250,18.90
10:10:21.671875,19.49
10:10:21.687500,19.78
10:10:21.703125,19.68
10:10:21.718750,19.22
10:10:21.734375,18.59
10:10:21.750000,18.06
10:10:21.765625,17.84
10:10:21.781250,17.94
10:10:21.796875,18.16
10:10:21.812500,18.21
10:10:21.828125,17.91
10:10:21.843750,17.22
10:10:21.859375,16.31
10:10:21.875000,15.36
10:10:21.890625,14.48
10:10:21.906250,13.60
10:10:21.921875,12.54
10:10:21.937500,11.11
10:10:21.953125,9.25
10:10:21.968750,7.01
10:10:21.984375,4.53
10:10:22,1.93
10:10:22.015625,-0.75
10:10:22.031250,-3.43
10:10:22.046875,-5.99
10:10:22.062500,-8.17
10:10:22.078125,-9.64
10:10:22.093750,-10.08
10:10:22.109375,-9.33
10:10:22.125000,-7.51
10:10:22.140625,-4.92
10:10:22.156250,-1.98
10:10:22.171875,0.92
10:10:22.187500,3.57
10:10:22.203125,5.93
10:10:22.218750,8.06
10:10:22.234375,9.98
10:10:22.250000,11.64
10:10:22.265625,12.93
10:10:22.281250,13.72
10:10:22.296875,14.00
10:10:22.312500,13.84
10:10:22.328125,13.38
10:10:22.343750,12.82
10:10:22.359375,12.26
10:10:22.375000,11.74
10:10:22.390625,11.23
10:10:22.406250,10.69
10:10:22.421875,10.07
10:10:22.437500,9.38
10:10:22.453125,8.64
10:10:22.468750,7.88
10:10:22.484375,7.15
10:10:22.500000,6.48
10:10:22.515625,5.86
10:10:22.531250,5.27
10:10:22.546875,4.62
10:10:22.562500,3.78
10:10:22.578125,2.65
10:10:22.593750,1.17
10:10:22.609375,-0.59
10:10:22.625000,-2.49
10:10:22.640625,-4.36
10:10:22.656250,-6.06
10:10:22.671875,-7.59
10:10:22.687500,-9.01
10:10:22.703125,-10.50
10:10:22.718750,-12.20
10:10:22.734375,-14.25
10:10:22.750000,-16.65
10:10:22.765625,-19.35
10:10:22.781250,-22.18
10:10:22.796875,-24.89
10:10:22.812500,-27.19
10:10:22.828125,-28.80
10:10:22.843750,-29.53
10:10:22.859375,-29.32
10:10:22.875000,-28.19
10:10:22.890625,-26.30
10:10:22.906250,-23.80
10:10:22.921875,-20.85
10:10:22.937500,-17.58
10:10:22.953125,-14.11
10:10:22.968750,-10.60
10:10:22.984375,-7.22
10:10:23,-4.14
10:10:23.015625,-1.51
10:10:23.031250,0.53
10:10:23.046875,1.94
10:10:23.062500,2.70
10:10:23.078125,2.91
10:10:23.093750,2.77
10:10:23.109375,2.57
10:10:23.125000,2.53
10:10:23.140625,2.74
10:10:23.156250,3.10
10:10:23.171875,3.40
10:10:23.187500,3.41
10:10:23.203125,3.11
10:10:23.218750,2.65
10:10:23.234375,2.25
10:10:23.250000,2.03
10:10:23.265625,1.88
10:10:23.281250,1.52
10:10:23.296875,0.65
10:10:23.312500,-0.83
10:10:23.328125,-2.74
10:10:23.343750,-4.72
10:10:23.359375,-6.40
10:10:23.375000,-7.63
10:10:23.390625,-8.47
10:10:23.406250,-9.18
10:10:23.421875,-10.04
10:10:23.437500,-11.17
10:10:23.453125,-12.59
10:10:23.468750,-14.18
10:10:23.484375,-15.74
10:10:23.500000,-17.02
10:10:23.515625,-17.74
10:10:23.531250,-17.59
10:10:23.546875,-16.36
10:10:23.562500,-14.04
10:10:23.578125,-10.85
10:10:23.593750,-7.24
10:10:23.609375,-3.71
10:10:23.625000,-0.64
10:10:23.640625,1.79
10:10:23.656250,3.62
10:10:23.671875,5.00
10:10:23.687500,6.06
10:10:23.703125,6.85
10:10:23.718750,7.32
10:10:23.734375,7.45
10:10:23.750000,7.23
10:10:23.765625,6.73
10:10:23.781250,6.07
10:10:23.796875,5.36
10:10:23.812500,4.70
10:10:23.828125,4.17
10:10:23.843750,3.85
10:10:23.859375,3.77
10:10:23.875000,3.98
10:10:23.890625,4.46
10:10:23.906250,5.16
10:10:23.921875,5.93
10:10:23.937500,6.56
10:10:23.953125,6.82
10:10:23.968750,6.53
10:10:23.984375,5.66
10:10:24,4.29
10:10:24.015625,2.68
10:10:24.031250,1.09
10:10:24.046875,-0.27
10:10:24.062500,-1.26
10:10:24.078125,-1.87
10:10:24.093750,-2.17
10:10:24.109375,-2.37
10:10:24.125000,-2.76
10:10:24.140625,-3.66
10:10:24.156250,-5.31
10:10:24.171875,-7.80
10:10:24.187500,-10.89
10:10:24.203125,-14.11
10:10:24.218750,-16.80
10:10:24.234375,-18.33
10:10:24.250000,-18.25
10:10:24.265625,-16.44
10:10:24.281250,-13.08
10:10:24.296875,-8.59
10:10:24.312500,-3.54
10:10:24.328125,1.50
10:10:24.343750,6.06
10:10:24.359375,9.87
10:10:24.375000,12.87
10:10:24.390625,15.24
10:10:24.406250,17.29
10:10:24.421875,19.36
10:10:24.437500,21.66
10:10:24.453125,24.26
10:10:24.468750,27.01
10:10:24.484375,29.59
10:10:24.500000,31.67
10:10:24.515625,32.95
10:10:24.531250,33.31
10:10:24.546875,32.86
10:10:24.562500,31.83
10:10:24.578125,30.55
10:10:24.593750,29.25
10:10:24.609375,28.04
10:10:24.625000,26.91
10:10:24.640625,25.77
10:10:24.656250,24.54
10:10:24.671875,23.20
10:10:24.687500,21.79
10:10:24.703125,20.33
10:10:24.718750,18.80
10:10:24.734375,17.15
10:10:24.750000,15.29
10:10:24.765625,13.18
10:10:24.781250,10.82
10:10:24.796875,8.31
10:10:24.812500,5.73
10:10:24.828125,3.17
10:10:24.843750,0.62
10:10:24.859375,-1.92
10:10:24.875000,-4.50
10:10:24.890625,-7.20
10:10:24.906250,-10.04
10:10:24.921875,-13.04
10:10:24.937500,-16.13
10:10:24.953125,-19.17
10:10:24.968750,-21.88
10:10:24.984375,-23.98
10:10:25,-25.19
10:10:25.015625,-25.31
10:10:25.031250,-24.29
10:10:25.046875,-22.20
10:10:25.062500,-19.21
10:10:25.078125,-15.53
10:10:25.093750,-11.42
10:10:25.109375,-7.11
10:10:25.125000,-2.86
10:10:25.140625,1.12
10:10:25.156250,4.68
10:10:25.171875,7.77
10:10:25.187500,10.40
10:10:25.203125,12.65
10:10:25.218750,14.59
10:10:25.234375,16.27
10:10:25.250000,17.68
10:10:25.265625,18.80
10:10:25.281250,19.56
10:10:25.296875,19.90
10:10:25.312500,19.83
10:10:25.328125,19.41
10:10:25.343750,18.76
10:10:25.359375,18.07
10:10:25.375000,17.51
