17:37:28,-0.00
17:37:28.015625,-0.00
17:37:28.031250,-0.00
17:37:28.046875,-0.00
17:37:28.062500,-0.00
17:37:28.078125,-0.00
17:37:28.093750,-0.00
17:37:28.109375,-0.00
17:37:28.125000,-0.00
17:37:28.140625,-0.00
17:37:28.156250,0.00
17:37:28.171875,0.01
17:37:28.187500,0.01
17:37:28.203125,-0.00
17:37:28.218750,-0.03
17:37:28.234375,-0.05
17:37:28.250000,-0.05
17:37:28.265625,0.00
17:37:28.281250,0.13
17:37:28.296875,0.36
17:37:28.312500,0.66
17:37:28.328125,1.01
17:37:28.343750,1.37
17:37:28.359375,1.72
17:37:28.375000,2.06
17:37:28.390625,2.40
17:37:28.406250,2.79
17:37:28.421875,3.24
17:37:28.437500,3.80
17:37:28.453125,4.42
17:37:28.468750,5.06
17:37:28.484375,5.66
17:37:28.500000,6.20
17:37:28.515625,6.68
17:37:28.531250,7.15
17:37:28.546875,7.68
17:37:28.562500,8.31
17:37:28.578125,9.14
17:37:28.593750,10.09
17:37:28.609375,11.04
17:37:28.625000,11.88
17:37:28.640625,12.56
17:37:28.656250,13.14
17:37:28.671875,13.76
17:37:28.687500,14.65
17:37:28.703125,15.96
17:37:28.718750,17.91
17:37:28.734375,20.32
17:37:28.750000,22.90
17:37:28.765625,25.38
17:37:28.781250,27.58
17:37:28.796875,29.57
17:37:28.812500,31.68
17:37:28.828125,34.32
17:37:28.843750,37.81
17:37:28.859375,42.54
17:37:28.875000,48.15
17:37:28.890625,54.10
17:37:28.906250,59.83
17:37:28.921875,64.97
17:37:28.937500,69.58
17:37:28.953125,74.14
17:37:28.968750,79.34
17:37:28.984375,85.71
17:37:29,93.76
17:37:29.015625,103.00
17:37:29.031250,112.62
17:37:29.046875,121.73
17:37:29.062500,129.77
17:37:29.078125,136.75
17:37:29.093750,143.30
17:37:29.109375,150.75
17:37:29.125000,157.77
17:37:29.140625,166.64
17:37:29.156250,177.95
17:37:29.171875,191.79
17:37:29.187500,206.97
17:37:29.203125,220.57
17:37:29.218750,228.25
17:37:29.234375,225.36
17:37:29.250000,208.53
17:37:29.265625,176.87
17:37:29.281250,132.76
17:37:29.296875,80.05
17:37:29.312500,23.07
17:37:29.328125,-34.94
17:37:29.343750,-92.44
17:37:29.359375,-149.16
17:37:29.375000,-205.23
17:37:29.390625,-260.37
17:37:29.406250,-313.74
17:37:29.421875,-363.87
17:37:29.437500,-409.83
17:37:29.453125,-450.91
17:37:29.468750,-486.50
17:37:29.484375,-515.74
17:37:29.500000,-537.23
17:37:29.515625,-549.22
17:37:29.531250,-549.96
17:37:29.546875,-538.37
17:37:29.562500,-514.21
17:37:29.578125,-478.67
17:37:29.593750,-433.88
17:37:29.609375,-382.45
17:37:29.625000,-327.02
17:37:29.640625,-269.84
17:37:29.656250,-212.63
17:37:29.671875,-156.66
17:37:29.687500,-102.95
17:37:29.703125,-52.37
17:37:29.718750,-5.90
17:37:29.734375,35.58
17:37:29.750000,71.43
17:37:29.765625,101.35
17:37:29.781250,125.50
17:37:29.796875,144.38
17:37:29.812500,158.69
17:37:29.828125,169.15
17:37:29.843750,176.37
17:37:29.859375,180.75
17:37:29.875000,182.57
17:37:29.890625,182.07
17:37:29.906250,179.51
17:37:29.921875,175.23
17:37:29.937500,169.65
17:37:29.953125,163.18
17:37:29.968750,156.15
17:37:29.984375,148.81
17:37:30,141.30
17:37:30.015625,133.69
17:37:30.031250,126.02
17:37:30.046875,118.33
17:37:30.062500,110.69
17:37:30.078125,103.16
17:37:30.093750,95.80
17:37:30.109375,88.68
17:37:30.125000,81.83
17:37:30.140625,75.25
17:37:30.156250,68.95
17:37:30.171875,62.95
17:37:30.187500,57.25
17:37:30.203125,51.86
17:37:30.218750,46.78
17:37:30.234375,42.03
17:37:30.250000,37.59
17:37:30.265625,33.45
17:37:30.281250,29.61
17:37:30.296875,26.07
17:37:30.312500,22.80
17:37:30.328125,19.82
17:37:30.343750,17.11
17:37:30.359375,14.68
17:37:30.375000,12.50
17:37:30.390625,10.57
17:37:30.406250,8.85
17:37:30.421875,7.33
17:37:30.437500,5.99
17:37:30.453125,4.81
17:37:30.468750,3.80
17:37:30.484375,2.96
17:37:30.500000,2.29
17:37:30.515625,1.75
17:37:30.531250,1.33
17:37:30.546875,0.97
17:37:30.562500,0.66
17:37:30.578125,0.37
17:37:30.593750,0.11
17:37:30.609375,-0.11
17:37:30.625000,-0.28
17:37:30.640625,-0.37
17:37:30.656250,-0.41
17:37:30.671875,-0.43
17:37:30.687500,-0.48
17:37:30.703125,-0.58
17:37:30.718750,-0.74
17:37:30.734375,-0.95
17:37:30.750000,-1.14
17:37:30.765625,-1.25
17:37:30.781250,-1.25
17:37:30.796875,-1.17
17:37:30.812500,-1.08
17:37:30.828125,-1.09
17:37:30.843750,-1.29
17:37:30.859375,-1.70
17:37:30.875000,-2.23
17:37:30.890625,-2.75
17:37:30.906250,-3.09
17:37:30.921875,-3.18
17:37:30.937500,-3.05
17:37:30.953125,-2.88
17:37:30.968750,-2.92
17:37:30.984375,-3.33
17:37:31,-4.16
17:37:31.015625,-5.26
17:37:31.031250,-6.34
17:37:31.046875,-7.08
17:37:31.062500,-7.33
17:37:31.078125,-7.15
17:37:31.093750,-6.84
17:37:31.109375,-6.80
17:37:31.125000,-7.36
17:37:31.140625,-8.58
17:37:31.156250,-10.23
17:37:31.171875,-11.86
17:37:31.187500,-13.04
17:37:31.203125,-13.52
17:37:31.218750,-13.33
17:37:31.234375,-12.83
17:37:31.250000,-12.43
17:37:31.265625,-12.54
17:37:31.281250,-13.44
17:37:31.296875,-15.34
17:37:31.312500,-18.18
17:37:31.328125,-21.49
17:37:31.343750,-24.19
17:37:31.359375,-24.79
17:37:31.375000,-21.84
17:37:31.390625,-14.65
17:37:31.406250,-3.72
17:37:31.421875,9.17
17:37:31.437500,21.57
17:37:31.453125,31.31
17:37:31.468750,37.35
17:37:31.484375,39.94
17:37:31.500000,40.26
17:37:31.515625,39.62
17:37:31.531250,38.88
17:37:31.546875,38.22
17:37:31.562500,37.52
17:37:31.578125,36.62
17:37:31.593750,35.68
17:37:31.609375,35.01
17:37:31.625000,34.81
17:37:31.640625,34.89
17:37:31.656250,34.69
17:37:31.671875,33.49
17:37:31.687500,30.77
17:37:31.703125,26.62
17:37:31.718750,21.32
17:37:31.734375,15.53
17:37:31.750000,9.90
17:37:31.765625,4.87
17:37:31.781250,0.57
17:37:31.796875,-3.06
17:37:31.812500,-6.26
17:37:31.828125,-9.29
17:37:31.843750,-12.25
17:37:31.859375,-15.07
17:37:31.875000,-17.50
17:37:31.890625,-19.19
17:37:31.906250,-19.85
17:37:31.921875,-19.32
17:37:31.937500,-17.67
17:37:31.953125,-15.28
17:37:31.968750,-12.70
17:37:31.984375,-10.52
17:37:32,-9.02
17:37:32.015625,-8.19
17:37:32.031250,-7.73
17:37:32.046875,-7.28
17:37:32.062500,-6.60
17:37:32.078125,-5.63
17:37:32.093750,-4.56
17:37:32.109375,-3.69
17:37:32.125000,-3.32
17:37:32.140625,-3.59
17:37:32.156250,-4.41
17:37:32.171875,-5.48
17:37:32.187500,-6.41
17:37:32.203125,-6.88
17:37:32.218750,-6.66
17:37:32.234375,-5.77
17:37:32.250000,-4.46
17:37:32.265625,-3.11
17:37:32.281250,-2.12
17:37:32.296875,-1.74
17:37:32.312500,-1.90
17:37:32.328125,-2.32
17:37:32.343750,-2.69
17:37:32.359375,-2.77
17:37:32.375000,-2.57
17:37:32.390625,-2.19
17:37:32.406250,-1.81
17:37:32.421875,-1.59
17:37:32.437500,-1.56
17:37:32.453125,-1.72
17:37:32.468750,-1.99
17:37:32.484375,-2.34
17:37:32.500000,-2.71
17:37:32.515625,-3.09
17:37:32.531250,-3.47
17:37:32.546875,-3.85
17:37:32.562500,-4.23
17:37:32.578125,-4.56
17:37:32.593750,-4.83
17:37:32.609375,-5.01
17:37:32.625000,-5.15
17:37:32.640625,-5.37
17:37:32.656250,-5.81
17:37:32.671875,-6.58
17:37:32.687500,-7.74
17:37:32.703125,-9.20
17:37:32.718750,-10.75
17:37:32.734375,-12.21
17:37:32.750000,-13.44
17:37:32.765625,-14.37
17:37:32.781250,-14.99
17:37:32.796875,-15.24
17:37:32.812500,-14.95
17:37:32.828125,-13.90
17:37:32.843750,-11.90
17:37:32.859375,-8.97
17:37:32.875000,-5.45
17:37:32.890625,-1.78
17:37:32.906250,1.63
17:37:32.921875,4.56
17:37:32.937500,7.09
17:37:32.953125,9.39
17:37:32.968750,11.59
17:37:32.984375,13.63
17:37:33,15.25
17:37:33.015625,16.13
17:37:33.031250,16.06
17:37:33.046875,15.10
17:37:33.062500,13.62
17:37:33.078125,12.13
17:37:33.093750,11.06
17:37:33.109375,10.65
17:37:33.125000,10.84
17:37:33.140625,11.42
17:37:33.156250,12.02
17:37:33.171875,12.31
17:37:33.187500,12.07
17:37:33.203125,11.20
17:37:33.218750,9.89
17:37:33.234375,8.45
17:37:33.250000,7.20
17:37:33.265625,6.28
17:37:33.281250,5.66
17:37:33.296875,5.16
17:37:33.312500,4.55
17:37:33.328125,3.74
17:37:33.343750,2.77
17:37:33.359375,1.73
17:37:33.375000,0.69
17:37:33.390625,-0.36
17:37:33.406250,-1.47
17:37:33.421875,-2.72
17:37:33.437500,-4.06
17:37:33.453125,-5.40
17:37:33.468750,-6.59
17:37:33.484375,-7.59
17:37:33.500000,-8.45
17:37:33.515625,-9.35
17:37:33.531250,-10.40
17:37:33.546875,-11.71
17:37:33.562500,-13.22
17:37:33.578125,-14.88
17:37:33.593750,-16.58
17:37:33.609375,-18.25
17:37:33.625000,-19.76
17:37:33.640625,-20.97
17:37:33.656250,-21.62
17:37:33.671875,-21.44
17:37:33.687500,-20.25
17:37:33.703125,-18.01
17:37:33.718750,-14.94
17:37:33.734375,-11.43
17:37:33.750000,-7.88
17:37:33.765625,-4.60
17:37:33.781250,-1.65
17:37:33.796875,1.04
17:37:33.812500,3.57
17:37:33.828125,5.95
17:37:33.843750,8.05
17:37:33.859375,9.63
17:37:33.875000,10.43
17:37:33.890625,10.36
17:37:33.906250,9.56
17:37:33.921875,8.41
17:37:33.937500,7.37
17:37:33.953125,6.78
17:37:33.968750,6.78
17:37:33.984375,7.25
17:37:34,7.98
17:37:34.015625,8.76
17:37:34.031250,9.51
17:37:34.046875,10.17
17:37:34.062500,10.72
17:37:34.078125,11.05
17:37:34.093750,11.07
17:37:34.109375,10.76
17:37:34.125000,10.20
17:37:34.140625,9.55
17:37:34.156250,8.93
17:37:34.171875,8.36
17:37:34.187500,7.72
17:37:34.203125,6.86
17:37:34.218750,5.74
17:37:34.234375,4.46
17:37:34.250000,3.23
17:37:34.265625,2.25
17:37:34.281250,1.55
17:37:34.296875,1.03
17:37:34.312500,0.51
17:37:34.328125,-0.16
17:37:34.343750,-1.02
17:37:34.359375,-1.98
17:37:34.375000,-2.92
17:37:34.390625,-3.75
17:37:34.406250,-4.49
17:37:34.421875,-5.35
17:37:34.437500,-6.57
17:37:34.453125,-8.31
17:37:34.468750,-10.48
17:37:34.484375,-12.65
17:37:34.500000,-14.20
17:37:34.515625,-14.55
17:37:34.531250,-13.39
17:37:34.546875,-10.85
17:37:34.562500,-7.53
17:37:34.578125,-4.24
17:37:34.593750,-1.65
17:37:34.609375,-0.02
17:37:34.625000,0.83
17:37:34.640625,1.37
17:37:34.656250,2.06
17:37:34.671875,3.15
17:37:34.687500,4.56
17:37:34.703125,5.99
17:37:34.718750,7.04
17:37:34.734375,7.35
17:37:34.750000,6.66
17:37:34.765625,4.90
17:37:34.781250,2.25
17:37:34.796875,-0.67
17:37:34.812500,-2.75
17:37:34.828125,-2.48
17:37:34.843750,1.58
17:37:34.859375,10.14
17:37:34.875000,22.53
17:37:34.890625,36.66
17:37:34.906250,49.47
17:37:34.921875,57.96
17:37:34.937500,60.31
17:37:34.953125,56.52
17:37:34.968750,48.27
17:37:34.984375,38.12
17:37:35,28.42
17:37:35.015625,20.52
17:37:35.031250,14.56
17:37:35.046875,9.96
17:37:35.062500,6.02
17:37:35.078125,2.43
17:37:35.093750,-0.80
17:37:35.109375,-3.48
17:37:35.125000,-5.68
17:37:35.140625,-7.67
17:37:35.156250,-9.82
17:37:35.171875,-12.32
17:37:35.187500,-15.09
17:37:35.203125,-17.82
17:37:35.218750,-20.15
17:37:35.234375,-21.84
17:37:35.250000,-22.78
17:37:35.265625,-22.98
17:37:35.281250,-22.51
17:37:35.296875,-21.42
17:37:35.312500,-19.80
17:37:35.328125,-17.74
17:37:35.343750,-15.36
17:37:35.359375,-12.66
17:37:35.375000,-9.64
17:37:35.390625,-6.21
17:37:35.406250,-2.23
17:37:35.421875,2.47
17:37:35.437500,8.16
17:37:35.453125,15.02
17:37:35.468750,23.06
17:37:35.484375,31.77
17:37:35.500000,40.14
17:37:35.515625,46.79
17:37:35.531250,50.43
17:37:35.546875,50.34
17:37:35.562500,46.59
17:37:35.578125,40.05
17:37:35.593750,31.85
17:37:35.609375,23.05
17:37:35.625000,14.33
17:37:35.640625,5.99
17:37:35.656250,-1.68
17:37:35.671875,-8.30
17:37:35.687500,-13.41
17:37:35.703125,-16.70
17:37:35.718750,-18.21
17:37:35.734375,-18.37
17:37:35.750000,-17.88
17:37:35.765625,-17.42
17:37:35.781250,-17.44
17:37:35.796875,-18.08
17:37:35.812500,-19.21
17:37:35.828125,-20.55
17:37:35.843750,-21.84
17:37:35.859375,-22.95
17:37:35.875000,-23.86
17:37:35.890625,-24.61
17:37:35.906250,-25.20
17:37:35.921875,-25.52
17:37:35.937500,-25.39
17:37:35.953125,-24.71
17:37:35.968750,-23.45
17:37:35.984375,-21.77
17:37:36,-19.91
17:37:36.015625,-18.20
17:37:36.031250,-16.90
17:37:36.046875,-16.15
17:37:36.062500,-15.91
17:37:36.078125,-15.91
17:37:36.093750,-15.75
17:37:36.109375,-14.99
17:37:36.125000,-13.22
17:37:36.140625,-10.33
17:37:36.156250,-6.59
17:37:36.171875,-2.59
17:37:36.187500,0.87
17:37:36.203125,3.11
17:37:36.218750,3.82
17:37:36.234375,3.16
17:37:36.250000,1.67
17:37:36.265625,0.04
17:37:36.281250,-1.05
17:37:36.296875,-1.15
17:37:36.312500,-0.19
17:37:36.328125,1.52
17:37:36.343750,3.44
17:37:36.359375,5.00
17:37:36.375000,5.85
17:37:36.390625,5.88
17:37:36.406250,5.22
17:37:36.421875,4.10
17:37:36.437500,2.76
17:37:36.453125,1.50
17:37:36.468750,0.57
17:37:36.484375,0.28
17:37:36.500000,0.78
17:37:36.515625,2.06
17:37:36.531250,3.90
17:37:36.546875,5.82
17:37:36.562500,7.38
17:37:36.578125,8.23
17:37:36.593750,8.38
17:37:36.609375,8.07
17:37:36.625000,7.68
17:37:36.640625,7.54
17:37:36.656250,7.80
17:37:36.671875,8.41
17:37:36.687500,9.17
17:37:36.703125,9.77
17:37:36.718750,9.91
17:37:36.734375,9.34
17:37:36.750000,7.98
17:37:36.765625,5.94
17:37:36.781250,3.47
17:37:36.796875,0.87
17:37:36.812500,-1.53
17:37:36.828125,-3.45
17:37:36.843750,-4.76
17:37:36.859375,-5.52
17:37:36.875000,-5.93
17:37:36.890625,-6.32
17:37:36.906250,-6.94
17:37:36.921875,-7.85
17:37:36.937500,-8.88
17:37:36.953125,-9.71
17:37:36.968750,-9.98
17:37:36.984375,-9.46
17:37:37,-8.17
17:37:37.015625,-6.42
17:37:37.031250,-4.60
17:37:37.046875,-3.14
17:37:37.062500,-2.25
17:37:37.078125,-1.96
17:37:37.093750,-2.08
17:37:37.109375,-2.26
17:37:37.125000,-2.13
17:37:37.140625,-1.43
17:37:37.156250,-0.17
17:37:37.171875,1.37
17:37:37.187500,2.74
17:37:37.203125,3.60
17:37:37.218750,3.83
17:37:37.234375,3.61
17:37:37.250000,3.31
17:37:37.265625,3.30
17:37:37.281250,3.75
17:37:37.296875,4.59
17:37:37.312500,5.60
17:37:37.328125,6.55
17:37:37.343750,7.31
17:37:37.359375,7.89
17:37:37.375000,8.38
17:37:37.390625,8.87
17:37:37.406250,9.36
17:37:37.421875,9.73
17:37:37.437500,9.86
17:37:37.453125,9.58
17:37:37.468750,8.90
17:37:37.484375,7.92
17:37:37.500000,6.89
17:37:37.515625,6.02
17:37:37.531250,5.37
17:37:37.546875,4.80
17:37:37.562500,4.03
17:37:37.578125,2.72
17:37:37.593750,0.62
17:37:37.609375,-2.34
17:37:37.625000,-6.05
17:37:37.640625,-10.26
17:37:37.656250,-14.59
17:37:37.671875,-18.69
17:37:37.687500,-22.21
17:37:37.703125,-24.93
17:37:37.718750,-26.71
17:37:37.734375,-27.55
17:37:37.750000,-27.56
17:37:37.765625,-26.92
17:37:37.781250,-25.83
17:37:37.796875,-24.46
17:37:37.812500,-22.97
17:37:37.828125,-21.46
17:37:37.843750,-20.01
17:37:37.859375,-18.69
17:37:37.875000,-17.51
17:37:37.890625,-16.43
17:37:37.906250,-15.33
17:37:37.921875,-14.06
17:37:37.937500,-12.50
17:37:37.953125,-10.60
17:37:37.968750,-8.44
17:37:37.984375,-6.19
17:37:38,-4.11
17:37:38.015625,-2.38
17:37:38.031250,-1.12
17:37:38.046875,-0.32
17:37:38.062500,0.05
17:37:38.078125,0.16
17:37:38.093750,0.23
17:37:38.109375,0.54
17:37:38.125000,1.32
17:37:38.140625,2.66
17:37:38.156250,4.41
17:37:38.171875,6.28
17:37:38.187500,7.97
17:37:38.203125,9.28
17:37:38.218750,10.17
17:37:38.234375,10.75
17:37:38.250000,11.15
17:37:38.265625,11.52
17:37:38.281250,11.95
17:37:38.296875,12.47
17:37:38.312500,13.02
17:37:38.328125,13.43
17:37:38.343750,13.45
17:37:38.359375,12.81
17:37:38.375000,11.35
17:37:38.390625,9.07
17:37:38.406250,6.19
17:37:38.421875,3.09
17:37:38.437500,0.16
17:37:38.453125,-2.25
17:37:38.468750,-4.03
17:37:38.484375,-5.23
17:37:38.500000,-6.07
17:37:38.515625,-6.77
17:37:38.531250,-7.50
17:37:38.546875,-8.33
17:37:38.562500,-9.17
17:37:38.578125,-9.88
17:37:38.593750,-10.31
17:37:38.609375,-10.44
17:37:38.625000,-10.27
17:37:38.640625,-9.89
17:37:38.656250,-9.24
17:37:38.671875,-8.22
17:37:38.687500,-6.59
17:37:38.703125,-4.18
17:37:38.718750,-0.96
17:37:38.734375,3.02
17:37:38.750000,7.76
17:37:38.765625,13.43
17:37:38.781250,20.21
17:37:38.796875,28.07
17:37:38.812500,36.45
17:37:38.828125,44.23
17:37:38.843750,49.97
17:37:38.859375,52.47
17:37:38.875000,51.25
17:37:38.890625,46.80
17:37:38.906250,40.35
17:37:38.921875,33.35
17:37:38.937500,27.06
17:37:38.953125,22.21
17:37:38.968750,19.12
17:37:38.984375,17.80
17:37:39,18.19
17:37:39.015625,20.06
17:37:39.031250,22.99
17:37:39.046875,26.28
17:37:39.062500,28.95
17:37:39.078125,30.02
17:37:39.093750,28.67
17:37:39.109375,24.61
17:37:39.125000,18.18
17:37:39.140625,10.33
17:37:39.156250,2.32
17:37:39.171875,-4.68
17:37:39.187500,-10.01
17:37:39.203125,-13.61
17:37:39.218750,-15.93
17:37:39.234375,-17.67
17:37:39.250000,-19.45
17:37:39.265625,-21.58
17:37:39.281250,-24.06
17:37:39.296875,-26.68
17:37:39.312500,-29.02
17:37:39.328125,-30.66
17:37:39.343750,-31.25
17:37:39.359375,-30.70
17:37:39.375000,-29.32
17:37:39.390625,-27.70
17:37:39.406250,-26.57
17:37:39.421875,-26.55
17:37:39.437500,-27.89
17:37:39.453125,-30.42
17:37:39.468750,-33.51
17:37:39.484375,-36.23
17:37:39.500000,-37.53
17:37:39.515625,-36.60
17:37:39.531250,-33.14
17:37:39.546875,-27.59
17:37:39.562500,-21.11
17:37:39.578125,-15.21
17:37:39.593750,-11.30
17:37:39.609375,-10.22
17:37:39.625000,-12.15
17:37:39.640625,-16.49
17:37:39.656250,-22.16
17:37:39.671875,-27.77
17:37:39.687500,-31.97
17:37:39.703125,-33.83
17:37:39.718750,-33.25
17:37:39.734375,-31.11
17:37:39.750000,-29.00
17:37:39.765625,-28.51
17:37:39.781250,-30.45
17:37:39.796875,-34.44
17:37:39.812500,-39.15
17:37:39.828125,-43.04
17:37:39.843750,-45.11
17:37:39.859375,-45.21
17:37:39.875000,-43.68
17:37:39.890625,-40.75
17:37:39.906250,-36.18
17:37:39.921875,-29.33
17:37:39.937500,-19.79
17:37:39.953125,-7.91
17:37:39.968750,5.07
17:37:39.984375,17.40
17:37:40,27.48
17:37:40.015625,34.37
17:37:40.031250,37.92
17:37:40.046875,38.54
17:37:40.062500,36.88
17:37:40.078125,33.56
17:37:40.093750,29.13
17:37:40.109375,24.12
17:37:40.125000,19.18
17:37:40.140625,15.02
17:37:40.156250,12.32
17:37:40.171875,11.48
17:37:40.187500,12.54
17:37:40.203125,15.17
17:37:40.218750,18.71
17:37:40.234375,22.37
17:37:40.250000,25.22
17:37:40.265625,26.44
17:37:40.281250,25.43
17:37:40.296875,22.05
17:37:40.312500,16.85
17:37:40.328125,10.92
17:37:40.343750,5.76
17:37:40.359375,2.64
17:37:40.375000,2.17
17:37:40.390625,4.01
17:37:40.406250,7.03
17:37:40.421875,9.78
17:37:40.437500,11.12
17:37:40.453125,10.55
17:37:40.468750,8.31
17:37:40.484375,5.12
17:37:40.500000,1.80
17:37:40.515625,-0.96
17:37:40.531250,-2.80
17:37:40.546875,-3.65
17:37:40.562500,-3.62
17:37:40.578125,-2.92
17:37:40.593750,-1.72
17:37:40.609375,-0.19
17:37:40.625000,1.68
17:37:40.640625,3.93
17:37:40.656250,6.67
17:37:40.671875,9.87
17:37:40.687500,13.43
17:37:40.703125,17.04
17:37:40.718750,20.29
17:37:40.734375,22.77
17:37:40.750000,24.12
17:37:40.765625,24.18
17:37:40.781250,22.96
17:37:40.796875,20.64
17:37:40.812500,17.52
17:37:40.828125,13.95
17:37:40.843750,10.27
17:37:40.859375,6.83
17:37:40.875000,3.83
17:37:40.890625,1.38
17:37:40.906250,-0.60
17:37:40.921875,-2.23
17:37:40.937500,-3.57
17:37:40.953125,-4.63
17:37:40.968750,-5.29
17:37:40.984375,-5.44
17:37:41,-5.07
17:37:41.015625,-4.25
17:37:41.031250,-3.11
17:37:41.046875,-1.78
17:37:41.062500,-0.33
17:37:41.078125,1.29
17:37:41.093750,3.15
17:37:41.109375,5.28
17:37:41.125000,7.58
17:37:41.140625,9.85
17:37:41.156250,11.83
17:37:41.171875,13.38
17:37:41.187500,14.55
17:37:41.203125,15.57
17:37:41.218750,16.79
17:37:41.234375,18.49
17:37:41.250000,20.66
17:37:41.265625,23.00
17:37:41.281250,25.03
17:37:41.296875,26.26
17:37:41.312500,26.33
17:37:41.328125,25.13
17:37:41.343750,22.71
17:37:41.359375,19.22
17:37:41.375000,14.86
17:37:41.390625,9.83
17:37:41.406250,4.38
17:37:41.421875,-1.20
17:37:41.437500,-6.60
17:37:41.453125,-11.53
17:37:41.468750,-15.71
17:37:41.484375,-18.88
17:37:41.500000,-20.85
17:37:41.515625,-21.56
17:37:41.531250,-21.20
17:37:41.546875,-20.13
17:37:41.562500,-18.88
17:37:41.578125,-17.91
17:37:41.593750,-17.56
17:37:41.609375,-17.98
17:37:41.625000,-19.14
17:37:41.640625,-20.92
17:37:41.656250,-23.13
17:37:41.671875,-25.56
17:37:41.687500,-27.99
17:37:41.703125,-30.19
17:37:41.718750,-31.96
17:37:41.734375,-33.20
17:37:41.750000,-33.87
17:37:41.765625,-33.97
17:37:41.781250,-33.49
17:37:41.796875,-32.42
17:37:41.812500,-30.82
17:37:41.828125,-28.84
17:37:41.843750,-26.73
17:37:41.859375,-24.72
17:37:41.875000,-22.90
17:37:41.890625,-21.20
17:37:41.906250,-19.37
17:37:41.921875,-17.09
17:37:41.937500,-14.05
17:37:41.953125,-10.01
17:37:41.968750,-4.88
17:37:41.984375,1.28
17:37:42,8.32
17:37:42.015625,15.93
17:37:42.031250,23.67
17:37:42.046875,31.02
17:37:42.062500,37.45
17:37:42.078125,42.56
17:37:42.093750,46.14
17:37:42.109375,48.18
17:37:42.125000,48.76
17:37:42.140625,48.00
17:37:42.156250,46.00
17:37:42.171875,42.85
17:37:42.187500,38.60
17:37:42.203125,33.37
17:37:42.218750,27.37
17:37:42.234375,20.94
17:37:42.250000,14.58
17:37:42.265625,8.76
17:37:42.281250,3.84
17:37:42.296875,-0.10
17:37:42.312500,-3.23
17:37:42.328125,-5.85
17:37:42.343750,-8.26
17:37:42.359375,-10.54
17:37:42.375000,-12.49
17:37:42.390625,-13.68
17:37:42.406250,-13.77
17:37:42.421875,-12.67
17:37:42.437500,-10.65
17:37:42.453125,-8.24
17:37:42.468750,-5.98
17:37:42.484375,-4.29
17:37:42.500000,-3.28
17:37:42.515625,-2.85
17:37:42.531250,-2.81
17:37:42.546875,-3.01
17:37:42.562500,-3.49
17:37:42.578125,-4.39
17:37:42.593750,-5.78
17:37:42.609375,-7.53
17:37:42.625000,-9.27
17:37:42.640625,-10.56
17:37:42.656250,-11.09
17:37:42.671875,-10.70
17:37:42.687500,-9.47
17:37:42.703125,-7.58
17:37:42.718750,-5.34
17:37:42.734375,-3.07
17:37:42.750000,-1.03
17:37:42.765625,0.63
17:37:42.781250,1.89
17:37:42.796875,2.86
17:37:42.812500,3.70
17:37:42.828125,4.53
17:37:42.843750,5.38
17:37:42.859375,6.10
17:37:42.875000,6.49
17:37:42.890625,6.41
17:37:42.906250,5.91
17:37:42.921875,5.25
17:37:42.937500,4.78
17:37:42.953125,4.79
17:37:42.968750,5.42
17:37:42.984375,6.54
17:37:43,7.84
17:37:43.015625,8.88
17:37:43.031250,9.19
17:37:43.046875,8.49
17:37:43.062500,6.79
17:37:43.078125,4.46
17:37:43.093750,2.09
17:37:43.109375,0.24
17:37:43.125000,-0.79
17:37:43.140625,-1.12
17:37:43.156250,-1.19
17:37:43.171875,-1.52
17:37:43.187500,-2.41
17:37:43.203125,-3.79
17:37:43.218750,-5.33
17:37:43.234375,-6.63
17:37:43.250000,-7.49
17:37:43.265625,-8.05
17:37:43.281250,-8.59
17:37:43.296875,-9.41
17:37:43.312500,-10.62
17:37:43.328125,-12.10
17:37:43.343750,-13.66
17:37:43.359375,-15.11
17:37:43.375000,-16.30
17:37:43.390625,-17.11
17:37:43.406250,-17.44
17:37:43.421875,-17.13
17:37:43.437500,-16.11
17:37:43.453125,-14.35
17:37:43.468750,-11.97
17:37:43.484375,-9.16
17:37:43.500000,-6.12
17:37:43.515625,-3.08
17:37:43.531250,-0.16
17:37:43.546875,2.54
17:37:43.562500,4.93
17:37:43.578125,6.89
17:37:43.593750,8.29
17:37:43.609375,9.08
17:37:43.625000,9.31
17:37:43.640625,9.16
17:37:43.656250,8.82
17:37:43.671875,8.50
17:37:43.687500,8.35
17:37:43.703125,8.42
17:37:43.718750,8.75
17:37:43.734375,9.28
17:37:43.750000,9.97
17:37:43.765625,10.75
17:37:43.781250,11.45
17:37:43.796875,11.88
17:37:43.812500,11.87
17:37:43.828125,11.41
17:37:43.843750,10.66
17:37:43.859375,9.87
17:37:43.875000,9.20
17:37:43.890625,8.60
17:37:43.906250,7.89
17:37:43.921875,6.92
17:37:43.937500,5.65
17:37:43.953125,4.22
17:37:43.968750,2.84
17:37:43.984375,1.63
17:37:44,0.60
17:37:44.015625,-0.48
17:37:44.031250,-1.83
17:37:44.046875,-3.62
17:37:44.062500,-5.75
17:37:44.078125,-8.06
17:37:44.093750,-10.34
17:37:44.109375,-12.54
17:37:44.125000,-14.76
17:37:44.140625,-17.13
17:37:44.156250,-19.70
17:37:44.171875,-22.34
17:37:44.187500,-24.72
17:37:44.203125,-26.39
17:37:44.218750,-26.93
17:37:44.234375,-26.13
17:37:44.250000,-24.08
17:37:44.265625,-21.04
17:37:44.281250,-17.37
17:37:44.296875,-13.36
17:37:44.312500,-9.25
17:37:44.328125,-5.16
17:37:44.343750,-1.22
17:37:44.359375,2.40
17:37:44.375000,5.54
17:37:44.390625,8.04
17:37:44.406250,9.81
17:37:44.421875,10.92
17:37:44.437500,11.60
17:37:44.453125,12.16
17:37:44.468750,12.92
17:37:44.484375,14.01
17:37:44.500000,15.39
17:37:44.515625,16.84
17:37:44.531250,18.15
17:37:44.546875,19.10
17:37:44.562500,19.58
17:37:44.578125,19.55
17:37:44.593750,18.96
17:37:44.609375,17.84
17:37:44.625000,16.29
17:37:44.640625,14.50
17:37:44.656250,12.76
17:37:44.671875,11.24
17:37:44.687500,10.02
17:37:44.703125,9.05
17:37:44.718750,8.20
17:37:44.734375,7.35
17:37:44.750000,6.38
17:37:44.765625,5.20
17:37:44.781250,3.74
17:37:44.796875,2.01
17:37:44.812500,0.08
17:37:44.828125,-1.85
17:37:44.843750,-3.55
17:37:44.859375,-4.86
17:37:44.875000,-5.75
17:37:44.890625,-6.41
17:37:44.906250,-7.12
17:37:44.921875,-8.16
17:37:44.937500,-9.68
17:37:44.953125,-11.64
17:37:44.968750,-13.87
17:37:44.984375,-16.09
17:37:45,-18.03
17:37:45.015625,-19.47
17:37:45.031250,-20.23
17:37:45.046875,-20.14
17:37:45.062500,-19.06
17:37:45.078125,-16.90
17:37:45.093750,-13.64
17:37:45.109375,-9.46
17:37:45.125000,-4.71
17:37:45.140625,0.22
17:37:45.156250,4.99
17:37:45.171875,9.42
17:37:45.187500,13.40
17:37:45.203125,16.88
17:37:45.218750,19.70
17:37:45.234375,21.68
17:37:45.250000,22.61
17:37:45.265625,22.44
17:37:45.281250,21.27
17:37:45.296875,19.34
17:37:45.312500,17.02
17:37:45.328125,14.68
17:37:45.343750,12.69
17:37:45.359375,11.31
17:37:45.375000,10.62
17:37:45.390625,10.51
17:37:45.406250,10.68
17:37:45.421875,10.83
17:37:45.437500,10.66
17:37:45.453125,10.11
17:37:45.468750,9.24
17:37:45.484375,8.20
17:37:45.500000,7.19
17:37:45.515625,6.28
17:37:45.531250,5.50
17:37:45.546875,4.82
17:37:45.562500,4.15
17:37:45.578125,3.41
17:37:45.593750,2.48
17:37:45.609375,1.30
17:37:45.625000,-0.11
17:37:45.640625,-1.67
17:37:45.656250,-3.28
17:37:45.671875,-4.80
17:37:45.687500,-6.23
17:37:45.703125,-7.59
17:37:45.718750,-8.92
17:37:45.734375,-10.29
17:37:45.750000,-11.73
17:37:45.765625,-13.29
17:37:45.781250,-15.06
17:37:45.796875,-17.12
17:37:45.812500,-19.41
17:37:45.828125,-21.66
17:37:45.843750,-23.39
17:37:45.859375,-24.06
17:37:45.875000,-23.30
17:37:45.890625,-21.04
17:37:45.906250,-17.54
17:37:45.921875,-13.27
17:37:45.937500,-8.69
17:37:45.953125,-4.10
17:37:45.968750,0.32
17:37:45.984375,4.43
17:37:46,8.03
17:37:46.015625,10.91
17:37:46.031250,12.84
17:37:46.046875,13.81
17:37:46.062500,14.01
17:37:46.078125,13.80
17:37:46.093750,13.52
17:37:46.109375,13.36
17:37:46.125000,13.36
17:37:46.140625,13.42
17:37:46.156250,13.39
17:37:46.171875,13.18
17:37:46.187500,12.82
17:37:46.203125,12.41
17:37:46.218750,12.12
17:37:46.234375,12.00
17:37:46.250000,11.99
17:37:46.265625,11.85
17:37:46.281250,11.37
17:37:46.296875,10.47
17:37:46.312500,9.22
17:37:46.328125,7.86
17:37:46.343750,6.60
17:37:46.359375,5.55
17:37:46.375000,4.70
17:37:46.390625,3.91
17:37:46.406250,3.05
17:37:46.421875,2.01
17:37:46.437500,0.72
17:37:46.453125,-0.82
17:37:46.468750,-2.54
17:37:46.484375,-4.30
17:37:46.500000,-5.96
17:37:46.515625,-7.48
17:37:46.531250,-8.91
17:37:46.546875,-10.36
17:37:46.562500,-11.93
17:37:46.578125,-13.66
17:37:46.593750,-15.63
17:37:46.609375,-17.90
17:37:46.625000,-20.55
17:37:46.640625,-23.53
17:37:46.656250,-26.49
17:37:46.671875,-28.91
17:37:46.687500,-30.17
17:37:46.703125,-29.88
17:37:46.718750,-27.96
17:37:46.734375,-24.66
17:37:46.750000,-20.40
17:37:46.765625,-15.56
17:37:46.781250,-10.40
17:37:46.796875,-5.08
17:37:46.812500,0.19
17:37:46.828125,5.14
17:37:46.843750,9.47
17:37:46.859375,12.95
17:37:46.875000,15.48
17:37:46.890625,17.08
17:37:46.906250,17.85
17:37:46.921875,17.95
17:37:46.937500,17.60
17:37:46.953125,17.08
17:37:46.968750,16.68
17:37:46.984375,16.57
17:37:47,16.76
17:37:47.015625,17.00
17:37:47.031250,17.03
17:37:47.046875,16.69
17:37:47.062500,15.98
17:37:47.078125,15.07
17:37:47.093750,14.11
17:37:47.109375,13.16
17:37:47.125000,12.23
17:37:47.140625,11.27
17:37:47.156250,10.25
17:37:47.171875,9.23
17:37:47.187500,8.25
17:37:47.203125,7.33
17:37:47.218750,6.36
17:37:47.234375,5.24
17:37:47.250000,3.91
17:37:47.265625,2.41
17:37:47.281250,0.84
17:37:47.296875,-0.68
17:37:47.312500,-2.15
17:37:47.328125,-3.59
17:37:47.343750,-5.09
17:37:47.359375,-6.69
17:37:47.375000,-8.42
17:37:47.390625,-10.23
17:37:47.406250,-12.03
17:37:47.421875,-13.68
17:37:47.437500,-15.12
17:37:47.453125,-16.44
17:37:47.468750,-17.88
17:37:47.484375,-19.76
17:37:47.500000,-22.23
17:37:47.515625,-25.11
17:37:47.531250,-27.85
17:37:47.546875,-29.75
17:37:47.562500,-30.20
17:37:47.578125,-28.97
17:37:47.593750,-26.27
17:37:47.609375,-22.60
17:37:47.625000,-18.50
17:37:47.640625,-14.30
17:37:47.656250,-10.12
17:37:47.671875,-5.97
17:37:47.687500,-1.92
17:37:47.703125,1.86
17:37:47.718750,5.12
17:37:47.734375,7.55
17:37:47.750000,8.91
17:37:47.765625,9.10
17:37:47.781250,8.30
17:37:47.796875,6.92
17:37:47.812500,5.50
17:37:47.828125,4.48
17:37:47.843750,4.06
17:37:47.859375,4.15
17:37:47.875000,4.59
17:37:47.890625,5.30
17:37:47.906250,6.34
17:37:47.921875,7.90
17:37:47.937500,10.12
17:37:47.953125,13.09
17:37:47.968750,16.87
17:37:47.984375,21.61
17:37:48,27.48
17:37:48.015625,34.51
17:37:48.031250,42.31
17:37:48.046875,49.93
17:37:48.062500,56.03
17:37:48.078125,59.34
17:37:48.093750,59.11
17:37:48.109375,55.47
17:37:48.125000,49.20
17:37:48.140625,41.46
17:37:48.156250,33.29
17:37:48.171875,25.43
17:37:48.187500,18.32
17:37:48.203125,12.19
17:37:48.218750,7.22
17:37:48.234375,3.51
17:37:48.250000,1.05
17:37:48.265625,-0.37
17:37:48.281250,-1.17
17:37:48.296875,-1.91
17:37:48.312500,-3.17
17:37:48.328125,-5.30
17:37:48.343750,-8.29
17:37:48.359375,-11.80
17:37:48.375000,-15.25
17:37:48.390625,-18.11
17:37:48.406250,-20.05
17:37:48.421875,-21.07
17:37:48.437500,-21.39
17:37:48.453125,-21.25
17:37:48.468750,-20.78
17:37:48.484375,-19.94
17:37:48.500000,-18.59
17:37:48.515625,-16.65
17:37:48.531250,-14.18
17:37:48.546875,-11.41
17:37:48.562500,-8.71
17:37:48.578125,-6.44
17:37:48.593750,-4.87
17:37:48.609375,-4.13
17:37:48.625000,-4.13
17:37:48.640625,-4.62
17:37:48.656250,-5.27
17:37:48.671875,-5.79
17:37:48.687500,-5.93
17:37:48.703125,-5.59
17:37:48.718750,-4.76
17:37:48.734375,-3.63
17:37:48.750000,-2.47
17:37:48.765625,-1.62
17:37:48.781250,-1.29
17:37:48.796875,-1.51
17:37:48.812500,-2.11
17:37:48.828125,-2.82
17:37:48.843750,-3.43
17:37:48.859375,-3.83
17:37:48.875000,-4.05
17:37:48.890625,-4.17
17:37:48.906250,-4.20
17:37:48.921875,-4.09
17:37:48.937500,-3.73
17:37:48.953125,-3.12
17:37:48.968750,-2.34
17:37:48.984375,-1.58
17:37:49,-1.07
17:37:49.015625,-0.92
17:37:49.031250,-1.20
17:37:49.046875,-1.91
17:37:49.062500,-3.01
17:37:49.078125,-4.45
17:37:49.093750,-6.05
17:37:49.109375,-7.61
17:37:49.125000,-8.94
17:37:49.140625,-9.97
17:37:49.156250,-10.72
17:37:49.171875,-11.34
17:37:49.187500,-11.95
17:37:49.203125,-12.57
17:37:49.218750,-13.13
17:37:49.234375,-13.43
17:37:49.250000,-13.21
17:37:49.265625,-12.21
17:37:49.281250,-10.29
17:37:49.296875,-7.47
17:37:49.312500,-3.98
17:37:49.328125,-0.11
17:37:49.343750,3.89
17:37:49.359375,7.96
17:37:49.375000,12.31
17:37:49.390625,17.19
17:37:49.406250,22.66
17:37:49.421875,28.35
17:37:49.437500,33.46
17:37:49.453125,37.00
17:37:49.468750,38.21
17:37:49.484375,36.88
17:37:49.500000,33.47
17:37:49.515625,28.93
17:37:49.531250,24.36
17:37:49.546875,20.62
17:37:49.562500,18.09
17:37:49.578125,16.70
17:37:49.593750,16.08
17:37:49.609375,15.90
17:37:49.625000,16.09
17:37:49.640625,16.93
17:37:49.656250,18.89
17:37:49.671875,22.41
17:37:49.687500,27.55
17:37:49.703125,33.83
17:37:49.718750,40.25
17:37:49.734375,45.62
17:37:49.750000,49.08
17:37:49.765625,50.50
17:37:49.781250,50.63
17:37:49.796875,50.85
17:37:49.812500,52.65
17:37:49.828125,56.96
17:37:49.843750,63.77
17:37:49.859375,72.11
17:37:49.875000,80.29
17:37:49.890625,86.56
17:37:49.906250,89.77
17:37:49.921875,89.91
17:37:49.937500,88.40
17:37:49.953125,87.87
17:37:49.968750,91.63
17:37:49.984375,102.40
17:37:50,120.93
17:37:50.015625,144.93
17:37:50.031250,169.04
17:37:50.046875,186.19
17:37:50.062500,189.99
17:37:50.078125,177.13
17:37:50.093750,148.46
17:37:50.109375,108.37
17:37:50.125000,62.60
17:37:50.140625,15.70
17:37:50.156250,-30.54
17:37:50.171875,-77.17
17:37:50.187500,-127.06
17:37:50.203125,-183.26
17:37:50.218750,-247.35
17:37:50.234375,-318.35
17:37:50.250000,-392.10
17:37:50.265625,-461.54
17:37:50.281250,-518.04
17:37:50.296875,-553.71
17:37:50.312500,-563.81
17:37:50.328125,-548.33
17:37:50.343750,-511.86
17:37:50.359375,-461.55
17:37:50.375000,-404.40
17:37:50.390625,-345.16
17:37:50.406250,-285.72
17:37:50.421875,-225.96
17:37:50.437500,-165.27
17:37:50.453125,-103.82
17:37:50.468750,-43.05
17:37:50.484375,14.60
17:37:50.500000,66.26
17:37:50.515625,109.32
17:37:50.531250,142.05
17:37:50.546875,163.97
17:37:50.562500,176.01
17:37:50.578125,180.14
17:37:50.593750,178.61
17:37:50.609375,173.28
17:37:50.625000,165.37
17:37:50.640625,155.59
17:37:50.656250,144.66
17:37:50.671875,133.53
17:37:50.687500,123.35
17:37:50.703125,114.95
17:37:50.718750,108.37
17:37:50.734375,102.88
17:37:50.750000,97.44
17:37:50.765625,91.35
17:37:50.781250,84.61
17:37:50.796875,77.77
17:37:50.812500,71.52
17:37:50.828125,66.20
17:37:50.843750,61.64
17:37:50.859375,57.16
17:37:50.875000,51.98
17:37:50.890625,45.57
17:37:50.906250,37.98
17:37:50.921875,29.85
17:37:50.937500,22.22
17:37:50.953125,16.21
17:37:50.968750,12.59
17:37:50.984375,11.51
17:37:51,12.51
17:37:51.015625,14.67
17:37:51.031250,16.93
17:37:51.046875,18.47
17:37:51.062500,18.96
17:37:51.078125,18.61
17:37:51.093750,18.04
17:37:51.109375,17.85
17:37:51.125000,18.36
17:37:51.140625,19.42
17:37:51.156250,20.50
17:37:51.171875,20.98
17:37:51.187500,20.54
17:37:51.203125,19.52
17:37:51.218750,18.92
17:37:51.234375,19.99
17:37:51.250000,23.62
17:37:51.265625,29.76
17:37:51.281250,37.35
17:37:51.296875,44.70
17:37:51.312500,50.15
17:37:51.328125,52.58
17:37:51.343750,51.79
17:37:51.359375,48.28
17:37:51.375000,42.98
17:37:51.390625,36.81
17:37:51.406250,30.36
17:37:51.421875,23.87
17:37:51.437500,17.26
17:37:51.453125,10.40
17:37:51.468750,3.39
17:37:51.484375,-3.32
17:37:51.500000,-8.91
17:37:51.515625,-12.33
17:37:51.531250,-12.86
17:37:51.546875,-10.44
17:37:51.562500,-5.87
17:37:51.578125,-0.62
17:37:51.593750,3.69
17:37:51.609375,5.72
17:37:51.625000,4.69
17:37:51.640625,0.40
17:37:51.656250,-6.99
17:37:51.671875,-17.00
17:37:51.687500,-28.88
17:37:51.703125,-41.57
17:37:51.718750,-53.68
17:37:51.734375,-63.64
17:37:51.750000,-70.00
17:37:51.765625,-71.79
17:37:51.781250,-68.76
17:37:51.796875,-61.55
17:37:51.812500,-51.54
17:37:51.828125,-40.51
17:37:51.843750,-30.21
17:37:51.859375,-21.88
17:37:51.875000,-15.92
17:37:51.890625,-11.76
17:37:51.906250,-8.14
17:37:51.921875,-3.69
17:37:51.937500,2.54
17:37:51.953125,10.62
17:37:51.968750,19.66
17:37:51.984375,28.26
17:37:52,34.96
17:37:52.015625,38.87
17:37:52.031250,39.84
17:37:52.046875,38.38
17:37:52.062500,35.33
17:37:52.078125,31.61
17:37:52.093750,27.92
17:37:52.109375,24.82
17:37:52.125000,22.63
17:37:52.140625,21.41
17:37:52.156250,20.86
17:37:52.171875,20.33
17:37:52.187500,19.07
17:37:52.203125,16.51
17:37:52.218750,12.66
17:37:52.234375,8.13
17:37:52.250000,3.99
17:37:52.265625,1.31
17:37:52.281250,0.70
17:37:52.296875,2.10
17:37:52.312500,4.74
17:37:52.328125,7.57
17:37:52.343750,9.74
17:37:52.359375,10.91
17:37:52.375000,11.37
17:37:52.390625,11.69
17:37:52.406250,12.42
17:37:52.421875,13.74
17:37:52.437500,15.50
17:37:52.453125,17.40
17:37:52.468750,19.21
17:37:52.484375,20.85
17:37:52.500000,22.30
17:37:52.515625,23.51
17:37:52.531250,24.24
17:37:52.546875,24.21
17:37:52.562500,23.22
17:37:52.578125,21.35
17:37:52.593750,18.83
17:37:52.609375,15.98
17:37:52.625000,13.00
17:37:52.640625,9.92
17:37:52.656250,6.64
17:37:52.671875,3.09
17:37:52.687500,-0.70
17:37:52.703125,-4.61
17:37:52.718750,-8.32
17:37:52.734375,-11.42
17:37:52.750000,-13.37
17:37:52.765625,-13.58
17:37:52.781250,-11.60
17:37:52.796875,-7.35
17:37:52.812500,-1.32
17:37:52.828125,5.52
17:37:52.843750,11.98
17:37:52.859375,17.05
17:37:52.875000,20.24
17:37:52.890625,21.69
17:37:52.906250,21.98
17:37:52.921875,21.84
17:37:52.937500,21.79
17:37:52.953125,21.98
17:37:52.968750,22.24
17:37:52.984375,22.22
17:37:53,21.57
17:37:53.015625,20.03
17:37:53.031250,17.52
17:37:53.046875,14.10
17:37:53.062500,10.16
17:37:53.078125,6.41
17:37:53.093750,3.75
17:37:53.109375,2.87
17:37:53.125000,3.94
17:37:53.140625,6.40
17:37:53.156250,9.26
17:37:53.171875,11.49
17:37:53.187500,12.44
17:37:53.203125,11.99
17:37:53.218750,10.48
17:37:53.234375,8.65
17:37:53.250000,7.39
17:37:53.265625,7.60
17:37:53.281250,9.88
17:37:53.296875,14.18
17:37:53.312500,19.61
17:37:53.328125,24.42
17:37:53.343750,26.45
17:37:53.359375,23.86
17:37:53.375000,15.80
17:37:53.390625,2.81
17:37:53.406250,-13.39
17:37:53.421875,-30.30
17:37:53.437500,-45.38
17:37:53.453125,-56.53
17:37:53.468750,-62.66
17:37:53.484375,-63.81
17:37:53.500000,-61.23
17:37:53.515625,-56.78
17:37:53.531250,-52.35
17:37:53.546875,-49.09
17:37:53.562500,-47.15
17:37:53.578125,-45.90
17:37:53.593750,-44.51
17:37:53.609375,-42.44
17:37:53.625000,-39.55
17:37:53.640625,-35.94
17:37:53.656250,-31.65
17:37:53.671875,-26.65
17:37:53.687500,-21.05
17:37:53.703125,-15.42
17:37:53.718750,-10.84
17:37:53.734375,-8.77
17:37:53.750000,-10.66
17:37:53.765625,-17.65
17:37:53.781250,-30.36
17:37:53.796875,-48.60
17:37:53.812500,-71.16
17:37:53.828125,-95.61
17:37:53.843750,-118.42
17:37:53.859375,-135.77
17:37:53.875000,-144.63
17:37:53.890625,-143.86
17:37:53.906250,-134.75
17:37:53.921875,-120.53
17:37:53.937500,-105.32
17:37:53.953125,-92.72
17:37:53.968750,-84.82
17:37:53.984375,-81.92
17:37:54,-82.85
17:37:54.015625,-85.64
17:37:54.031250,-88.04
17:37:54.046875,-88.03
17:37:54.062500,-83.94
17:37:54.078125,-74.73
17:37:54.093750,-60.06
17:37:54.109375,-40.46
17:37:54.125000,-17.23
17:37:54.140625,7.79
17:37:54.156250,32.58
17:37:54.171875,55.31
17:37:54.187500,74.58
17:37:54.203125,89.48
17:37:54.218750,99.65
17:37:54.234375,105.23
17:37:54.250000,106.94
17:37:54.265625,105.99
17:37:54.281250,103.83
17:37:54.296875,101.86
17:37:54.312500,100.86
17:37:54.328125,100.81
17:37:54.343750,100.85
17:37:54.359375,99.76
17:37:54.375000,96.45
17:37:54.390625,90.43
17:37:54.406250,81.88
17:37:54.421875,71.40
17:37:54.437500,59.64
17:37:54.453125,46.94
17:37:54.468750,33.36
17:37:54.484375,18.80
17:37:54.500000,3.35
17:37:54.515625,-12.60
17:37:54.531250,-28.33
17:37:54.546875,-42.97
17:37:54.562500,-55.55
17:37:54.578125,-65.26
17:37:54.593750,-71.40
17:37:54.609375,-73.57
17:37:54.625000,-71.64
17:37:54.640625,-65.79
17:37:54.656250,-56.47
17:37:54.671875,-44.41
17:37:54.687500,-30.56
17:37:54.703125,-15.95
17:37:54.718750,-1.65
17:37:54.734375,11.42
17:37:54.750000,22.50
17:37:54.765625,31.15
17:37:54.781250,37.17
17:37:54.796875,40.74
17:37:54.812500,42.30
17:37:54.828125,42.57
17:37:54.843750,42.37
17:37:54.859375,42.36
17:37:54.875000,42.95
17:37:54.890625,44.06
17:37:54.906250,45.22
17:37:54.921875,45.58
17:37:54.937500,44.30
17:37:54.953125,40.73
17:37:54.968750,34.58
17:37:54.984375,25.96
17:37:55,15.31
17:37:55.015625,3.28
17:37:55.031250,-9.31
17:37:55.046875,-21.50
17:37:55.062500,-32.25
17:37:55.078125,-40.68
17:37:55.093750,-46.22
17:37:55.109375,-48.82
17:37:55.125000,-48.86
17:37:55.140625,-47.02
17:37:55.156250,-43.98
17:37:55.171875,-40.20
17:37:55.187500,-35.80
17:37:55.203125,-30.59
17:37:55.218750,-24.30
17:37:55.234375,-16.77
17:37:55.250000,-8.16
17:37:55.265625,1.11
17:37:55.281250,10.37
17:37:55.296875,18.97
17:37:55.312500,26.40
17:37:55.328125,32.42
17:37:55.343750,37.05
17:37:55.359375,40.44
17:37:55.375000,42.81
17:37:55.390625,44.30
17:37:55.406250,44.98
17:37:55.421875,44.89
17:37:55.437500,44.13
17:37:55.453125,42.88
17:37:55.468750,41.29
17:37:55.484375,39.39
17:37:55.500000,37.02
17:37:55.515625,33.94
17:37:55.531250,29.89
17:37:55.546875,24.88
17:37:55.562500,19.23
17:37:55.578125,13.54
17:37:55.593750,8.49
17:37:55.609375,4.52
17:37:55.625000,1.65
17:37:55.640625,-0.58
17:37:55.656250,-2.91
17:37:55.671875,-6.05
17:37:55.687500,-10.39
17:37:55.703125,-15.94
17:37:55.718750,-22.28
17:37:55.734375,-28.77
17:37:55.750000,-34.66
17:37:55.765625,-39.17
17:37:55.781250,-41.54
17:37:55.796875,-41.15
17:37:55.812500,-37.68
17:37:55.828125,-31.25
17:37:55.843750,-22.60
17:37:55.859375,-12.92
17:37:55.875000,-3.49
17:37:55.890625,4.60
17:37:55.906250,10.82
17:37:55.921875,15.14
17:37:55.937500,17.98
17:37:55.953125,19.84
17:37:55.968750,21.18
17:37:55.984375,22.25
17:37:56,23.14
17:37:56.015625,23.79
17:37:56.031250,24.17
17:37:56.046875,24.38
17:37:56.062500,24.59
17:37:56.078125,24.96
17:37:56.093750,25.54
17:37:56.109375,26.20
17:37:56.125000,26.62
17:37:56.140625,26.39
17:37:56.156250,25.11
17:37:56.171875,22.55
17:37:56.187500,18.77
17:37:56.203125,14.05
17:37:56.218750,8.88
17:37:56.234375,3.81
17:37:56.250000,-0.62
17:37:56.265625,-4.06
17:37:56.281250,-6.32
17:37:56.296875,-7.48
17:37:56.312500,-7.83
17:37:56.328125,-7.72
17:37:56.343750,-7.45
17:37:56.359375,-7.13
17:37:56.375000,-6.79
17:37:56.390625,-6.38
17:37:56.406250,-5.88
17:37:56.421875,-5.24
17:37:56.437500,-4.41
17:37:56.453125,-3.34
17:37:56.468750,-1.98
17:37:56.484375,-0.31
17:37:56.500000,1.70
17:37:56.515625,4.03
17:37:56.531250,6.58
17:37:56.546875,9.20
17:37:56.562500,11.71
17:37:56.578125,13.95
17:37:56.593750,15.76
17:37:56.609375,17.05
17:37:56.625000,17.82
17:37:56.640625,18.09
17:37:56.656250,17.95
17:37:56.671875,17.47
17:37:56.687500,16.72
17:37:56.703125,15.79
17:37:56.718750,14.78
17:37:56.734375,13.83
17:37:56.750000,13.05
17:37:56.765625,12.47
17:37:56.781250,12.01
17:37:56.796875,11.56
17:37:56.812500,11.00
17:37:56.828125,10.27
17:37:56.843750,9.34
17:37:56.859375,8.24
17:37:56.875000,7.01
17:37:56.890625,5.70
17:37:56.906250,4.35
17:37:56.921875,2.94
17:37:56.937500,1.53
17:37:56.953125,0.13
17:37:56.968750,-1.20
17:37:56.984375,-2.49
17:37:57,-3.81
17:37:57.015625,-5.26
17:37:57.031250,-6.90
17:37:57.046875,-8.72
17:37:57.062500,-10.55
17:37:57.078125,-12.14
17:37:57.093750,-13.14
17:37:57.109375,-13.29
17:37:57.125000,-12.46
17:37:57.140625,-10.72
17:37:57.156250,-8.25
17:37:57.171875,-5.36
17:37:57.187500,-2.30
17:37:57.203125,0.69
17:37:57.218750,3.41
17:37:57.234375,5.73
17:37:57.250000,7.58
17:37:57.265625,8.96
17:37:57.281250,9.89
17:37:57.296875,10.44
17:37:57.312500,10.66
17:37:57.328125,10.61
17:37:57.343750,10.31
17:37:57.359375,9.82
17:37:57.375000,9.17
17:37:57.390625,8.41
17:37:57.406250,7.58
17:37:57.421875,6.75
17:37:57.437500,5.98
17:37:57.453125,5.30
17:37:57.468750,4.64
17:37:57.484375,3.92
17:37:57.500000,3.06
17:37:57.515625,2.02
17:37:57.531250,0.83
17:37:57.546875,-0.44
17:37:57.562500,-1.69
17:37:57.578125,-2.87
17:37:57.593750,-3.99
17:37:57.609375,-5.10
17:37:57.625000,-6.27
17:37:57.640625,-7.52
17:37:57.656250,-8.83
17:37:57.671875,-10.15
17:37:57.687500,-11.48
17:37:57.703125,-12.83
17:37:57.718750,-14.23
17:37:57.734375,-15.68
17:37:57.750000,-17.03
17:37:57.765625,-18.09
17:37:57.781250,-18.58
17:37:57.796875,-18.32
17:37:57.812500,-17.21
17:37:57.828125,-15.38
17:37:57.843750,-13.05
17:37:57.859375,-10.41
17:37:57.875000,-7.59
17:37:57.890625,-4.64
17:37:57.906250,-1.66
17:37:57.921875,1.14
17:37:57.937500,3.55
17:37:57.953125,5.41
17:37:57.968750,6.68
17:37:57.984375,7.43
17:37:58,7.81
17:37:58.015625,7.96
17:37:58.031250,7.95
17:37:58.046875,7.79
17:37:58.062500,7.48
17:37:58.078125,7.08
17:37:58.093750,6.70
17:37:58.109375,6.48
17:37:58.125000,6.50
17:37:58.140625,6.79
17:37:58.156250,7.24
17:37:58.171875,7.70
17:37:58.187500,7.99
17:37:58.203125,7.98
17:37:58.218750,7.56
17:37:58.234375,6.76
17:37:58.250000,5.67
17:37:58.265625,4.41
17:37:58.281250,3.07
17:37:58.296875,1.63
17:37:58.312500,0.04
17:37:58.328125,-1.73
17:37:58.343750,-3.67
17:37:58.359375,-5.69
17:37:58.375000,-7.64
17:37:58.390625,-9.31
17:37:58.406250,-10.64
17:37:58.421875,-11.64
17:37:58.437500,-12.46
17:37:58.453125,-13.29
17:37:58.468750,-14.20
17:37:58.484375,-15.11
17:37:58.500000,-15.82
17:37:58.515625,-16.05
17:37:58.531250,-15.56
17:37:58.546875,-14.20
17:37:58.562500,-11.99
17:37:58.578125,-9.12
17:37:58.593750,-5.93
17:37:58.609375,-2.75
17:37:58.625000,0.16
17:37:58.640625,2.66
17:37:58.656250,4.73
17:37:58.671875,6.38
17:37:58.687500,7.60
17:37:58.703125,8.39
17:37:58.718750,8.75
17:37:58.734375,8.74
17:37:58.750000,8.48
17:37:58.765625,8.13
17:37:58.781250,7.83
17:37:58.796875,7.61
17:37:58.812500,7.42
17:37:58.828125,7.17
17:37:58.843750,6.82
17:37:58.859375,6.44
17:37:58.875000,6.09
17:37:58.890625,5.75
17:37:58.906250,5.32
17:37:58.921875,4.69
17:37:58.937500,3.87
17:37:58.953125,2.95
17:37:58.968750,2.08
17:37:58.984375,1.34
17:37:59,0.76
17:37:59.015625,0.26
17:37:59.031250,-0.23
17:37:59.046875,-0.79
17:37:59.062500,-1.43
17:37:59.078125,-2.14
17:37:59.093750,-2.87
17:37:59.109375,-3.61
17:37:59.125000,-4.39
17:37:59.140625,-5.29
17:37:59.156250,-6.33
17:37:59.171875,-7.52
17:37:59.187500,-8.78
17:37:59.203125,-10.01
17:37:59.218750,-11.12
17:37:59.234375,-12.04
17:37:59.250000,-12.76
17:37:59.265625,-13.29
17:37:59.281250,-13.58
17:37:59.296875,-13.50
17:37:59.312500,-12.85
17:37:59.328125,-11.47
17:37:59.343750,-9.43
17:37:59.359375,-6.94
17:37:59.375000,-4.31
17:37:59.390625,-1.78
17:37:59.406250,0.56
17:37:59.421875,2.72
17:37:59.437500,4.73
17:37:59.453125,6.58
17:37:59.468750,8.21
17:37:59.484375,9.55
17:37:59.500000,10.56
17:37:59.515625,11.22
17:37:59.531250,11.55
17:37:59.546875,11.57
17:37:59.562500,11.33
17:37:59.578125,10.94
17:37:59.593750,10.54
17:37:59.609375,10.22
17:37:59.625000,10.02
17:37:59.640625,9.88
17:37:59.656250,9.66
17:37:59.671875,9.25
17:37:59.687500,8.64
17:37:59.703125,7.89
17:37:59.718750,7.05
17:37:59.734375,6.12
17:37:59.750000,5.11
17:37:59.765625,4.01
17:37:59.781250,2.93
17:37:59.796875,1.98
17:37:59.812500,1.21
17:37:59.828125,0.58
17:37:59.843750,0.01
17:37:59.859375,-0.64
17:37:59.875000,-1.45
17:37:59.890625,-2.40
17:37:59.906250,-3.47
17:37:59.921875,-4.55
17:37:59.937500,-5.53
17:37:59.953125,-6.34
17:37:59.968750,-6.99
17:37:59.984375,-7.58
17:38:00,-8.25
17:38:00.015625,-9.16
17:38:00.031250,-10.32
17:38:00.046875,-11.61
17:38:00.062500,-12.73
17:38:00.078125,-13.38
17:38:00.093750,-13.31
17:38:00.109375,-12.46
17:38:00.125000,-10.94
17:38:00.140625,-8.96
17:38:00.156250,-6.79
17:38:00.171875,-4.62
17:38:00.187500,-2.62
17:38:00.203125,-0.81
17:38:00.218750,0.86
17:38:00.234375,2.48
17:38:00.250000,4.10
17:38:00.265625,5.58
17:38:00.281250,6.73
17:38:00.296875,7.34
17:38:00.312500,7.38
17:38:00.328125,6.98
17:38:00.343750,6.36
17:38:00.359375,5.72
17:38:00.375000,5.19
17:38:00.390625,4.80
17:38:00.406250,4.52
17:38:00.421875,4.34
17:38:00.437500,4.28
17:38:00.453125,4.31
17:38:00.468750,4.40
17:38:00.484375,4.37
17:38:00.500000,4.06
17:38:00.515625,3.35
17:38:00.531250,2.34
17:38:00.546875,1.23
17:38:00.562500,0.26
17:38:00.578125,-0.44
17:38:00.593750,-0.84
17:38:00.609375,-1.02
17:38:00.625000,-1.13
17:38:00.640625,-1.29
17:38:00.656250,-1.64
17:38:00.671875,-2.24
17:38:00.687500,-3.09
17:38:00.703125,-4.13
17:38:00.718750,-5.26
17:38:00.734375,-6.34
17:38:00.750000,-7.27
17:38:00.765625,-7.96
17:38:00.781250,-8.38
17:38:00.796875,-8.68
17:38:00.812500,-9.04
17:38:00.828125,-9.67
17:38:00.843750,-10.67
17:38:00.859375,-11.99
17:38:00.875000,-13.43
17:38:00.890625,-14.77
17:38:00.906250,-15.76
17:38:00.921875,-16.23
17:38:00.937500,-16.15
17:38:00.953125,-15.56
17:38:00.968750,-14.54
17:38:00.984375,-13.16
17:38:01,-11.45
17:38:01.015625,-9.46
17:38:01.031250,-7.28
17:38:01.046875,-5.00
17:38:01.062500,-2.75
17:38:01.078125,-0.58
17:38:01.093750,1.46
17:38:01.109375,3.35
17:38:01.125000,5.06
17:38:01.140625,6.51
17:38:01.156250,7.59
17:38:01.171875,8.19
17:38:01.187500,8.28
17:38:01.203125,7.93
17:38:01.218750,7.33
17:38:01.234375,6.70
17:38:01.250000,6.19
17:38:01.265625,5.94
17:38:01.281250,5.97
17:38:01.296875,6.23
17:38:01.312500,6.58
17:38:01.328125,6.75
17:38:01.343750,6.54
17:38:01.359375,5.91
17:38:01.375000,5.02
17:38:01.390625,4.16
17:38:01.406250,3.63
17:38:01.421875,3.47
17:38:01.437500,3.53
17:38:01.453125,3.51
17:38:01.468750,3.16
17:38:01.484375,2.44
17:38:01.500000,1.51
17:38:01.515625,0.63
17:38:01.531250,-0.02
17:38:01.546875,-0.45
17:38:01.562500,-0.79
17:38:01.578125,-1.19
17:38:01.593750,-1.71
17:38:01.609375,-2.27
17:38:01.625000,-2.74
17:38:01.640625,-3.09
17:38:01.656250,-3.42
17:38:01.671875,-3.95
17:38:01.687500,-4.86
17:38:01.703125,-6.20
17:38:01.718750,-7.87
17:38:01.734375,-9.61
17:38:01.750000,-11.19
17:38:01.765625,-12.47
17:38:01.781250,-13.45
17:38:01.796875,-14.23
17:38:01.812500,-14.89
17:38:01.828125,-15.45
17:38:01.843750,-15.79
17:38:01.859375,-15.75
17:38:01.875000,-15.09
17:38:01.890625,-13.72
17:38:01.906250,-11.66
17:38:01.921875,-9.12
17:38:01.937500,-6.40
17:38:01.953125,-3.75
17:38:01.968750,-1.32
17:38:01.984375,0.86
17:38:02,2.81
17:38:02.015625,4.55
17:38:02.031250,6.04
17:38:02.046875,7.18
17:38:02.062500,7.91
17:38:02.078125,8.24
17:38:02.093750,8.22
17:38:02.109375,7.98
17:38:02.125000,7.64
17:38:02.140625,7.25
17:38:02.156250,6.84
17:38:02.171875,6.39
17:38:02.187500,5.92
17:38:02.203125,5.46
17:38:02.218750,5.07
17:38:02.234375,4.81
17:38:02.250000,4.71
17:38:02.265625,4.78
17:38:02.281250,5.01
17:38:02.296875,5.38
17:38:02.312500,5.82
17:38:02.328125,6.21
17:38:02.343750,6.42
17:38:02.359375,6.26
17:38:02.375000,5.66
17:38:02.390625,4.65
17:38:02.406250,3.37
17:38:02.421875,2.00
17:38:02.437500,0.75
17:38:02.453125,-0.27
17:38:02.468750,-1.05
17:38:02.484375,-1.66
17:38:02.500000,-2.21
17:38:02.515625,-2.77
17:38:02.531250,-3.37
17:38:02.546875,-4.01
17:38:02.562500,-4.72
17:38:02.578125,-5.55
17:38:02.593750,-6.52
17:38:02.609375,-7.60
17:38:02.625000,-8.72
17:38:02.640625,-9.85
17:38:02.656250,-11.03
17:38:02.671875,-12.26
17:38:02.687500,-13.48
17:38:02.703125,-14.57
17:38:02.718750,-15.39
17:38:02.734375,-15.79
17:38:02.750000,-15.67
17:38:02.765625,-14.99
17:38:02.781250,-13.78
17:38:02.796875,-12.09
17:38:02.812500,-10.07
17:38:02.828125,-7.81
17:38:02.843750,-5.44
17:38:02.859375,-3.05
17:38:02.875000,-0.68
17:38:02.890625,1.75
17:38:02.906250,4.28
17:38:02.921875,6.86
17:38:02.937500,9.29
17:38:02.953125,11.20
17:38:02.968750,12.29
17:38:02.984375,12.47
17:38:03,11.91
17:38:03.015625,10.96
17:38:03.031250,10.04
17:38:03.046875,9.44
17:38:03.062500,9.28
17:38:03.078125,9.48
17:38:03.093750,9.79
17:38:03.109375,9.86
17:38:03.125000,9.46
17:38:03.140625,8.55
17:38:03.156250,7.28
17:38:03.171875,5.97
17:38:03.187500,4.88
17:38:03.203125,4.19
17:38:03.218750,3.88
17:38:03.234375,3.79
17:38:03.250000,3.67
17:38:03.265625,3.38
17:38:03.281250,2.86
17:38:03.296875,2.16
17:38:03.312500,1.30
17:38:03.328125,0.32
17:38:03.343750,-0.73
17:38:03.359375,-1.79
17:38:03.375000,-2.80
17:38:03.390625,-3.74
17:38:03.406250,-4.71
17:38:03.421875,-5.79
17:38:03.437500,-7.00
17:38:03.453125,-8.24
17:38:03.468750,-9.38
17:38:03.484375,-10.36
17:38:03.500000,-11.22
17:38:03.515625,-12.08
17:38:03.531250,-13.03
17:38:03.546875,-14.07
17:38:03.562500,-15.14
17:38:03.578125,-16.13
17:38:03.593750,-16.90
17:38:03.609375,-17.40
17:38:03.625000,-17.53
17:38:03.640625,-17.19
17:38:03.656250,-16.23
17:38:03.671875,-14.58
17:38:03.687500,-12.31
17:38:03.703125,-9.62
17:38:03.718750,-6.82
17:38:03.734375,-4.10
17:38:03.750000,-1.60
17:38:03.765625,0.67
17:38:03.781250,2.70
17:38:03.796875,4.42
17:38:03.812500,5.77
17:38:03.828125,6.71
17:38:03.843750,7.29
17:38:03.859375,7.56
17:38:03.875000,7.67
17:38:03.890625,7.71
17:38:03.906250,7.71
17:38:03.921875,7.69
17:38:03.937500,7.61
17:38:03.953125,7.52
17:38:03.968750,7.43
17:38:03.984375,7.36
17:38:04,7.23
17:38:04.015625,6.98
17:38:04.031250,6.56
17:38:04.046875,6.02
17:38:04.062500,5.48
17:38:04.078125,5.06
17:38:04.093750,4.84
17:38:04.109375,4.84
17:38:04.125000,5.01
17:38:04.140625,5.27
17:38:04.156250,5.53
17:38:04.171875,5.73
17:38:04.187500,5.83
17:38:04.203125,5.74
17:38:04.218750,5.34
17:38:04.234375,4.51
17:38:04.250000,3.22
17:38:04.265625,1.57
17:38:04.281250,-0.27
17:38:04.296875,-2.14
17:38:04.312500,-3.92
17:38:04.328125,-5.63
17:38:04.343750,-7.31
17:38:04.359375,-9.05
17:38:04.375000,-10.85
17:38:04.390625,-12.67
17:38:04.406250,-14.40
17:38:04.421875,-15.93
17:38:04.437500,-17.13
17:38:04.453125,-17.85
17:38:04.468750,-17.91
17:38:04.484375,-17.10
17:38:04.500000,-15.38
17:38:04.515625,-12.86
17:38:04.531250,-9.82
17:38:04.546875,-6.57
17:38:04.562500,-3.34
17:38:04.578125,-0.23
17:38:04.593750,2.76
17:38:04.609375,5.62
17:38:04.625000,8.22
17:38:04.640625,10.35
17:38:04.656250,11.77
17:38:04.671875,12.38
17:38:04.687500,12.33
17:38:04.703125,11.89
17:38:04.718750,11.40
17:38:04.734375,11.05
17:38:04.750000,10.89
17:38:04.765625,10.79
17:38:04.781250,10.60
17:38:04.796875,10.20
17:38:04.812500,9.64
17:38:04.828125,9.02
17:38:04.843750,8.46
17:38:04.859375,7.99
17:38:04.875000,7.52
17:38:04.890625,6.86
17:38:04.906250,5.91
17:38:04.921875,4.61
17:38:04.937500,3.07
17:38:04.953125,1.43
17:38:04.968750,-0.18
17:38:04.984375,-1.64
17:38:05,-2.92
17:38:05.015625,-4.02
17:38:05.031250,-4.95
17:38:05.046875,-5.74
17:38:05.062500,-6.45
17:38:05.078125,-7.14
17:38:05.093750,-7.94
17:38:05.109375,-8.95
17:38:05.125000,-10.23
17:38:05.140625,-11.81
17:38:05.156250,-13.69
17:38:05.171875,-15.82
17:38:05.187500,-18.04
17:38:05.203125,-20.19
17:38:05.218750,-22.07
17:38:05.234375,-23.50
17:38:05.250000,-24.37
17:38:05.265625,-24.55
17:38:05.281250,-23.98
17:38:05.296875,-22.61
17:38:05.312500,-20.52
17:38:05.328125,-17.79
17:38:05.343750,-14.59
17:38:05.359375,-11.03
17:38:05.375000,-7.21
17:38:05.390625,-3.21
17:38:05.406250,0.82
17:38:05.421875,4.60
17:38:05.437500,7.78
17:38:05.453125,10.02
17:38:05.468750,11.27
17:38:05.484375,11.75
17:38:05.500000,11.89
17:38:05.515625,12.08
17:38:05.531250,12.47
17:38:05.546875,12.91
17:38:05.562500,13.11
17:38:05.578125,12.89
17:38:05.593750,12.27
17:38:05.609375,11.49
17:38:05.625000,10.81
17:38:05.640625,10.41
17:38:05.656250,10.24
17:38:05.671875,10.11
17:38:05.687500,9.80
17:38:05.703125,9.24
17:38:05.718750,8.53
17:38:05.734375,7.85
17:38:05.750000,7.37
17:38:05.765625,7.09
17:38:05.781250,6.86
17:38:05.796875,6.49
17:38:05.812500,5.88
17:38:05.828125,5.09
17:38:05.843750,4.27
17:38:05.859375,3.49
17:38:05.875000,2.68
17:38:05.890625,1.66
17:38:05.906250,0.23
17:38:05.921875,-1.64
17:38:05.937500,-3.78
17:38:05.953125,-5.98
17:38:05.968750,-8.04
17:38:05.984375,-9.97
17:38:06,-11.95
17:38:06.015625,-14.11
17:38:06.031250,-16.46
17:38:06.046875,-18.78
17:38:06.062500,-20.79
17:38:06.078125,-22.21
17:38:06.093750,-22.92
17:38:06.109375,-22.88
17:38:06.125000,-22.11
17:38:06.140625,-20.61
17:38:06.156250,-18.32
17:38:06.171875,-15.24
17:38:06.187500,-11.41
17:38:06.203125,-7.03
17:38:06.218750,-2.42
17:38:06.234375,2.00
17:38:06.250000,5.83
17:38:06.265625,8.77
17:38:06.281250,10.72
17:38:06.296875,11.79
17:38:06.312500,12.23
17:38:06.328125,12.40
17:38:06.343750,12.63
17:38:06.359375,13.18
17:38:06.375000,14.14
17:38:06.390625,15.43
17:38:06.406250,16.86
17:38:06.421875,18.21
17:38:06.437500,19.24
17:38:06.453125,19.76
17:38:06.468750,19.64
17:38:06.484375,18.90
17:38:06.500000,17.70
17:38:06.515625,16.24
17:38:06.531250,14.76
17:38:06.546875,13.42
17:38:06.562500,12.29
17:38:06.578125,11.35
17:38:06.593750,10.48
17:38:06.609375,9.50
17:38:06.625000,8.25
17:38:06.640625,6.70
17:38:06.656250,4.98
17:38:06.671875,3.28
17:38:06.687500,1.80
17:38:06.703125,0.64
17:38:06.718750,-0.24
17:38:06.734375,-0.98
17:38:06.750000,-1.79
17:38:06.765625,-2.83
17:38:06.781250,-4.18
17:38:06.796875,-5.83
17:38:06.812500,-7.65
17:38:06.828125,-9.55
17:38:06.843750,-11.48
17:38:06.859375,-13.41
17:38:06.875000,-15.36
17:38:06.890625,-17.33
17:38:06.906250,-19.31
17:38:06.921875,-21.26
17:38:06.937500,-23.05
17:38:06.953125,-24.48
17:38:06.968750,-25.21
17:38:06.984375,-24.99
17:38:07,-23.66
17:38:07.015625,-21.31
17:38:07.031250,-18.15
17:38:07.046875,-14.51
17:38:07.062500,-10.60
17:38:07.078125,-6.52
17:38:07.093750,-2.30
17:38:07.109375,1.97
17:38:07.125000,6.08
17:38:07.140625,9.76
17:38:07.156250,12.76
17:38:07.171875,15.03
17:38:07.187500,16.65
17:38:07.203125,17.76
17:38:07.218750,18.44
17:38:07.234375,18.63
17:38:07.250000,18.32
17:38:07.265625,17.61
17:38:07.281250,16.74
17:38:07.296875,16.02
17:38:07.312500,15.63
17:38:07.328125,15.57
17:38:07.343750,15.71
17:38:07.359375,15.86
17:38:07.375000,15.95
17:38:07.390625,15.97
17:38:07.406250,15.98
17:38:07.421875,15.97
17:38:07.437500,15.91
17:38:07.453125,15.71
17:38:07.468750,15.31
17:38:07.484375,14.67
17:38:07.500000,13.77
17:38:07.515625,12.63
17:38:07.531250,11.29
17:38:07.546875,9.82
17:38:07.562500,8.31
17:38:07.578125,6.76
17:38:07.593750,5.06
17:38:07.609375,3.07
17:38:07.625000,0.76
17:38:07.640625,-1.74
17:38:07.656250,-4.10
17:38:07.671875,-6.07
17:38:07.687500,-7.61
17:38:07.703125,-8.87
17:38:07.718750,-10.16
17:38:07.734375,-11.68
17:38:07.750000,-13.52
17:38:07.765625,-15.60
17:38:07.781250,-17.77
17:38:07.796875,-19.85
17:38:07.812500,-21.66
17:38:07.828125,-23.00
17:38:07.843750,-23.62
17:38:07.859375,-23.31
17:38:07.875000,-21.95
17:38:07.890625,-19.66
17:38:07.906250,-16.73
17:38:07.921875,-13.50
17:38:07.937500,-10.16
17:38:07.953125,-6.73
17:38:07.968750,-3.14
17:38:07.984375,0.64
17:38:08,4.53
17:38:08.015625,8.28
17:38:08.031250,11.57
17:38:08.046875,14.12
17:38:08.062500,15.75
17:38:08.078125,16.48
17:38:08.093750,16.54
17:38:08.109375,16.22
17:38:08.125000,15.83
17:38:08.140625,15.55
17:38:08.156250,15.43
17:38:08.171875,15.48
17:38:08.187500,15.63
17:38:08.203125,15.75
17:38:08.218750,15.67
17:38:08.234375,15.24
17:38:08.250000,14.36
17:38:08.265625,13.05
17:38:08.281250,11.47
17:38:08.296875,9.84
17:38:08.312500,8.38
17:38:08.328125,7.21
17:38:08.343750,6.29
17:38:08.359375,5.42
17:38:08.375000,4.40
17:38:08.390625,3.10
17:38:08.406250,1.54
17:38:08.421875,-0.18
17:38:08.437500,-1.92
17:38:08.453125,-3.61
17:38:08.468750,-5.19
17:38:08.484375,-6.63
17:38:08.500000,-7.92
17:38:08.515625,-9.06
17:38:08.531250,-10.10
17:38:08.546875,-11.10
17:38:08.562500,-12.14
17:38:08.578125,-13.38
17:38:08.593750,-14.97
17:38:08.609375,-17.01
17:38:08.625000,-19.46
17:38:08.640625,-22.14
17:38:08.656250,-24.75
17:38:08.671875,-26.91
17:38:08.687500,-28.30
17:38:08.703125,-28.59
17:38:08.718750,-27.69
17:38:08.734375,-25.62
17:38:08.750000,-22.53
17:38:08.765625,-18.63
17:38:08.781250,-14.16
17:38:08.796875,-9.37
17:38:08.812500,-4.58
17:38:08.828125,-0.06
17:38:08.843750,3.98
17:38:08.859375,7.43
17:38:08.875000,10.24
17:38:08.890625,12.37
17:38:08.906250,13.84
17:38:08.921875,14.67
17:38:08.937500,14.98
17:38:08.953125,14.88
17:38:08.968750,14.49
17:38:08.984375,13.91
17:38:09,13.24
17:38:09.015625,12.60
17:38:09.031250,12.08
17:38:09.046875,11.73
17:38:09.062500,11.59
17:38:09.078125,11.67
17:38:09.093750,11.91
17:38:09.109375,12.19
17:38:09.125000,12.35
17:38:09.140625,12.29
17:38:09.156250,11.98
17:38:09.171875,11.44
17:38:09.187500,10.71
17:38:09.203125,9.80
17:38:09.218750,8.73
17:38:09.234375,7.48
17:38:09.250000,6.08
17:38:09.265625,4.55
17:38:09.281250,2.97
17:38:09.296875,1.42
17:38:09.312500,-0.02
17:38:09.328125,-1.30
17:38:09.343750,-2.47
17:38:09.359375,-3.59
17:38:09.375000,-4.73
17:38:09.390625,-5.88
17:38:09.406250,-7.00
17:38:09.421875,-8.05
17:38:09.437500,-9.01
17:38:09.453125,-9.88
17:38:09.468750,-10.77
17:38:09.484375,-11.81
17:38:09.500000,-13.20
17:38:09.515625,-15.03
17:38:09.531250,-17.20
17:38:09.546875,-19.43
17:38:09.562500,-21.26
17:38:09.578125,-22.30
17:38:09.593750,-22.31
17:38:09.609375,-21.27
17:38:09.625000,-19.32
17:38:09.640625,-16.61
17:38:09.656250,-13.24
17:38:09.671875,-9.26
17:38:09.687500,-4.78
17:38:09.703125,-0.08
17:38:09.718750,4.50
17:38:09.734375,8.57
17:38:09.750000,11.91
17:38:09.765625,14.49
17:38:09.781250,16.39
17:38:09.796875,17.72
17:38:09.812500,18.49
17:38:09.828125,18.73
17:38:09.843750,18.51
17:38:09.859375,17.99
17:38:09.875000,17.38
17:38:09.890625,16.85
17:38:09.906250,16.47
17:38:09.921875,16.13
17:38:09.937500,15.72
17:38:09.953125,15.11
17:38:09.968750,14.31
17:38:09.984375,13.40
17:38:10,12.50
17:38:10.015625,11.68
17:38:10.031250,10.94
17:38:10.046875,10.27
17:38:10.062500,9.61
17:38:10.078125,8.92
17:38:10.093750,8.12
17:38:10.109375,7.18
17:38:10.125000,6.05
17:38:10.140625,4.75
17:38:10.156250,3.34
17:38:10.171875,1.86
17:38:10.187500,0.34
17:38:10.203125,-1.19
17:38:10.218750,-2.66
17:38:10.234375,-3.93
17:38:10.250000,-4.86
17:38:10.265625,-5.38
17:38:10.281250,-5.60
17:38:10.296875,-5.73
17:38:10.312500,-6.03
17:38:10.328125,-6.65
17:38:10.343750,-7.61
17:38:10.359375,-8.84
17:38:10.375000,-10.28
17:38:10.390625,-12.01
17:38:10.406250,-14.09
17:38:10.421875,-16.53
17:38:10.437500,-19.09
17:38:10.453125,-21.31
17:38:10.468750,-22.67
17:38:10.484375,-22.75
17:38:10.500000,-21.44
17:38:10.515625,-18.88
17:38:10.531250,-15.43
17:38:10.546875,-11.47
17:38:10.562500,-7.30
17:38:10.578125,-3.11
17:38:10.593750,0.99
17:38:10.609375,4.89
17:38:10.625000,8.49
17:38:10.640625,11.66
17:38:10.656250,14.30
17:38:10.671875,16.37
17:38:10.687500,17.87
17:38:10.703125,18.80
17:38:10.718750,19.22
17:38:10.734375,19.24
17:38:10.750000,19.00
17:38:10.765625,18.74
17:38:10.781250,18.62
17:38:10.796875,18.72
17:38:10.812500,18.95
17:38:10.828125,19.07
17:38:10.843750,18.91
17:38:10.859375,18.36
17:38:10.875000,17.46
17:38:10.890625,16.36
17:38:10.906250,15.15
17:38:10.921875,13.87
17:38:10.937500,12.49
17:38:10.953125,11.01
17:38:10.968750,9.50
17:38:10.984375,8.06
17:38:11,6.76
17:38:11.015625,5.60
17:38:11.031250,4.53
17:38:11.046875,3.46
17:38:11.062500,2.35
17:38:11.078125,1.19
17:38:11.093750,-0.02
17:38:11.109375,-1.24
17:38:11.125000,-2.48
17:38:11.140625,-3.72
17:38:11.156250,-4.96
17:38:11.171875,-6.20
17:38:11.187500,-7.46
17:38:11.203125,-8.75
17:38:11.218750,-10.11
17:38:11.234375,-11.53
17:38:11.250000,-13.06
17:38:11.265625,-14.77
17:38:11.281250,-16.68
17:38:11.296875,-18.72
17:38:11.312500,-20.60
17:38:11.328125,-21.92
17:38:11.343750,-22.19
17:38:11.359375,-21.10
17:38:11.375000,-18.61
17:38:11.390625,-15.01
17:38:11.406250,-10.83
17:38:11.421875,-6.61
17:38:11.437500,-2.75
17:38:11.453125,0.64
17:38:11.468750,3.61
17:38:11.484375,6.28
17:38:11.500000,8.67
17:38:11.515625,10.69
17:38:11.531250,12.22
17:38:11.546875,13.16
17:38:11.562500,13.55
17:38:11.578125,13.51
17:38:11.593750,13.25
17:38:11.609375,12.87
17:38:11.625000,12.39
17:38:11.640625,11.73
17:38:11.656250,10.83
17:38:11.671875,9.72
17:38:11.687500,8.57
17:38:11.703125,7.50
17:38:11.718750,6.62
17:38:11.734375,5.91
17:38:11.750000,5.35
17:38:11.765625,4.88
17:38:11.781250,4.45
17:38:11.796875,4.02
17:38:11.812500,3.50
17:38:11.828125,2.86
17:38:11.843750,2.04
17:38:11.859375,1.04
17:38:11.875000,-0.12
17:38:11.890625,-1.42
17:38:11.906250,-2.82
17:38:11.921875,-4.33
17:38:11.937500,-5.93
17:38:11.953125,-7.61
17:38:11.968750,-9.25
17:38:11.984375,-10.73
17:38:12,-11.90
17:38:12.015625,-12.77
17:38:12.031250,-13.41
17:38:12.046875,-14.01
17:38:12.062500,-14.78
17:38:12.078125,-15.85
17:38:12.093750,-17.24
17:38:12.109375,-18.81
17:38:12.125000,-20.35
17:38:12.140625,-21.65
17:38:12.156250,-22.54
17:38:12.171875,-22.91
17:38:12.187500,-22.69
17:38:12.203125,-21.76
17:38:12.218750,-20.02
17:38:12.234375,-17.45
17:38:12.250000,-14.16
17:38:12.265625,-10.39
17:38:12.281250,-6.50
17:38:12.296875,-2.73
17:38:12.312500,0.81
17:38:12.328125,4.15
17:38:12.343750,7.39
17:38:12.359375,10.49
17:38:12.375000,13.27
17:38:12.390625,15.46
17:38:12.406250,16.83
17:38:12.421875,17.31
17:38:12.437500,17.03
17:38:12.453125,16.27
17:38:12.468750,15.37
17:38:12.484375,14.64
17:38:12.500000,14.22
17:38:12.515625,14.10
17:38:12.531250,14.21
17:38:12.546875,14.39
17:38:12.562500,14.52
17:38:12.578125,14.53
17:38:12.593750,14.37
17:38:12.609375,14.03
17:38:12.625000,13.59
17:38:12.640625,13.06
17:38:12.656250,12.41
17:38:12.671875,11.55
17:38:12.687500,10.39
17:38:12.703125,8.95
17:38:12.718750,7.32
17:38:12.734375,5.66
17:38:12.750000,4.14
17:38:12.765625,2.83
17:38:12.781250,1.74
17:38:12.796875,0.76
17:38:12.812500,-0.24
17:38:12.828125,-1.40
17:38:12.843750,-2.79
17:38:12.859375,-4.41
17:38:12.875000,-6.24
17:38:12.890625,-8.22
17:38:12.906250,-10.30
17:38:12.921875,-12.43
17:38:12.937500,-14.60
17:38:12.953125,-16.79
17:38:12.968750,-18.88
17:38:12.984375,-20.56
17:38:13,-21.45
17:38:13.015625,-21.20
17:38:13.031250,-19.67
17:38:13.046875,-17.08
17:38:13.062500,-13.85
17:38:13.078125,-10.40
17:38:13.093750,-7.03
17:38:13.109375,-3.74
17:38:13.125000,-0.43
17:38:13.140625,2.98
17:38:13.156250,6.34
17:38:13.171875,9.31
17:38:13.187500,11.47
17:38:13.203125,12.59
17:38:13.218750,12.75
17:38:13.234375,12.34
17:38:13.250000,11.77
17:38:13.265625,11.33
17:38:13.281250,11.11
17:38:13.296875,10.99
17:38:13.312500,10.82
17:38:13.328125,10.49
17:38:13.343750,9.99
17:38:13.359375,9.38
17:38:13.375000,8.69
17:38:13.390625,7.94
17:38:13.406250,7.08
17:38:13.421875,6.10
17:38:13.437500,5.08
17:38:13.453125,4.15
17:38:13.468750,3.43
17:38:13.484375,2.94
17:38:13.500000,2.63
17:38:13.515625,2.35
17:38:13.531250,1.95
17:38:13.546875,1.29
17:38:13.562500,0.30
17:38:13.578125,-0.94
17:38:13.593750,-2.31
17:38:13.609375,-3.63
17:38:13.625000,-4.80
17:38:13.640625,-5.83
17:38:13.656250,-6.84
17:38:13.671875,-7.99
17:38:13.687500,-9.38
17:38:13.703125,-10.99
17:38:13.718750,-12.77
17:38:13.734375,-14.68
17:38:13.750000,-16.74
17:38:13.765625,-19.03
17:38:13.781250,-21.53
17:38:13.796875,-24.08
17:38:13.812500,-26.29
17:38:13.828125,-27.77
17:38:13.843750,-28.18
17:38:13.859375,-27.35
17:38:13.875000,-25.31
17:38:13.890625,-22.23
17:38:13.906250,-18.38
17:38:13.921875,-14.09
17:38:13.937500,-9.64
17:38:13.953125,-5.29
17:38:13.968750,-1.15
17:38:13.984375,2.68
17:38:14,6.16
17:38:14.015625,9.20
17:38:14.031250,11.69
17:38:14.046875,13.48
17:38:14.062500,14.50
17:38:14.078125,14.82
17:38:14.093750,14.65
17:38:14.109375,14.23
17:38:14.125000,13.77
17:38:14.140625,13.36
17:38:14.156250,13.02
17:38:14.171875,12.75
17:38:14.187500,12.56
17:38:14.203125,12.49
17:38:14.218750,12.53
17:38:14.234375,12.58
17:38:14.250000,12.56
17:38:14.265625,12.39
17:38:14.281250,12.12
17:38:14.296875,11.81
17:38:14.312500,11.47
17:38:14.328125,11.04
17:38:14.343750,10.38
17:38:14.359375,9.43
17:38:14.375000,8.24
17:38:14.390625,6.97
17:38:14.406250,5.80
17:38:14.421875,4.78
17:38:14.437500,3.83
17:38:14.453125,2.78
17:38:14.468750,1.49
17:38:14.484375,-0.00
17:38:14.500000,-1.47
17:38:14.515625,-2.67
17:38:14.531250,-3.49
17:38:14.546875,-4.07
17:38:14.562500,-4.74
17:38:14.578125,-5.81
17:38:14.593750,-7.44
17:38:14.609375,-9.54
17:38:14.625000,-11.91
17:38:14.640625,-14.37
17:38:14.656250,-16.84
17:38:14.671875,-19.26
17:38:14.687500,-21.52
17:38:14.703125,-23.35
17:38:14.718750,-24.37
17:38:14.734375,-24.28
17:38:14.750000,-22.98
17:38:14.765625,-20.69
17:38:14.781250,-17.83
17:38:14.796875,-14.85
17:38:14.812500,-12.01
17:38:14.828125,-9.32
17:38:14.843750,-6.65
17:38:14.859375,-3.83
17:38:14.875000,-0.77
17:38:14.890625,2.45
17:38:14.906250,5.66
17:38:14.921875,8.58
17:38:14.937500,11.01
17:38:14.953125,12.82
17:38:14.968750,13.95
17:38:14.984375,14.37
17:38:15,14.13
17:38:15.015625,13.39
17:38:15.031250,12.42
17:38:15.046875,11.53
17:38:15.062500,10.99
17:38:15.078125,10.93
17:38:15.093750,11.29
17:38:15.109375,11.86
17:38:15.125000,12.37
17:38:15.140625,12.59
17:38:15.156250,12.43
17:38:15.171875,11.93
17:38:15.187500,11.27
17:38:15.203125,10.63
17:38:15.218750,10.11
17:38:15.234375,9.69
17:38:15.250000,9.32
17:38:15.265625,8.87
17:38:15.281250,8.25
17:38:15.296875,7.37
17:38:15.312500,6.25
17:38:15.328125,5.02
17:38:15.343750,3.89
17:38:15.359375,3.08
17:38:15.375000,2.72
17:38:15.390625,2.83
17:38:15.406250,3.37
17:38:15.421875,4.19
17:38:15.437500,5.09
17:38:15.453125,5.85
17:38:15.468750,6.23
17:38:15.484375,6.09
17:38:15.500000,5.36
17:38:15.515625,4.08
17:38:15.531250,2.34
17:38:15.546875,0.39
17:38:15.562500,-1.46
17:38:15.578125,-2.77
17:38:15.593750,-3.06
17:38:15.609375,-1.92
17:38:15.625000,0.77
17:38:15.640625,4.73
17:38:15.656250,9.31
17:38:15.671875,13.67
17:38:15.687500,17.11
17:38:15.703125,19.32
17:38:15.718750,20.36
17:38:15.734375,20.51
17:38:15.750000,20.18
17:38:15.765625,19.79
17:38:15.781250,19.86
17:38:15.796875,21.02
17:38:15.812500,23.80
17:38:15.828125,28.41
17:38:15.843750,34.50
17:38:15.859375,41.15
17:38:15.875000,47.18
17:38:15.890625,51.46
17:38:15.906250,53.31
17:38:15.921875,52.61
17:38:15.937500,49.73
17:38:15.953125,45.30
17:38:15.968750,39.92
17:38:15.984375,34.03
17:38:16,27.89
17:38:16.015625,21.65
17:38:16.031250,15.49
17:38:16.046875,9.67
17:38:16.062500,4.53
17:38:16.078125,0.41
17:38:16.093750,-2.35
17:38:16.109375,-3.54
17:38:16.125000,-3.06
17:38:16.140625,-0.90
17:38:16.156250,2.86
17:38:16.171875,8.01
17:38:16.187500,14.30
17:38:16.203125,21.41
17:38:16.218750,29.06
17:38:16.234375,37.13
17:38:16.250000,45.69
17:38:16.265625,54.81
17:38:16.281250,64.37
17:38:16.296875,73.87
17:38:16.312500,82.51
17:38:16.328125,89.48
17:38:16.343750,94.23
17:38:16.359375,96.78
17:38:16.375000,97.57
17:38:16.390625,97.30
17:38:16.406250,96.48
17:38:16.421875,95.19
17:38:16.437500,93.14
17:38:16.453125,89.86
17:38:16.468750,85.12
17:38:16.484375,79.12
17:38:16.500000,72.44
17:38:16.515625,65.64
17:38:16.531250,59.07
17:38:16.546875,52.59
17:38:16.562500,45.54
17:38:16.578125,36.97
17:38:16.593750,25.84
17:38:16.609375,11.23
17:38:16.625000,-7.46
17:38:16.640625,-30.51
17:38:16.656250,-57.70
17:38:16.671875,-88.43
17:38:16.687500,-121.62
17:38:16.703125,-155.73
17:38:16.718750,-188.84
17:38:16.734375,-218.88
17:38:16.750000,-243.94
17:38:16.765625,-262.66
17:38:16.781250,-274.33
17:38:16.796875,-278.67
17:38:16.812500,-275.27
17:38:16.828125,-263.33
17:38:16.843750,-241.89
17:38:16.859375,-210.55
17:38:16.875000,-170.57
17:38:16.890625,-125.45
17:38:16.906250,-80.53
17:38:16.921875,-41.81
17:38:16.937500,-14.23
17:38:16.953125,-0.46
17:38:16.968750,-0.58
17:38:16.984375,-12.59
17:38:17,-33.32
17:38:17.015625,-59.36
17:38:17.031250,-87.20
17:38:17.046875,-113.20
17:38:17.062500,-133.78
17:38:17.078125,-146.05
17:38:17.093750,-148.62
17:38:17.109375,-142.40
17:38:17.125000,-130.39
17:38:17.140625,-116.69
17:38:17.156250,-105.01
17:38:17.171875,-97.43
17:38:17.187500,-93.90
17:38:17.203125,-92.73
17:38:17.218750,-91.46
17:38:17.234375,-87.95
17:38:17.250000,-80.89
17:38:17.265625,-69.93
17:38:17.281250,-55.44
17:38:17.296875,-38.16
17:38:17.312500,-18.95
17:38:17.328125,1.27
17:38:17.343750,21.44
17:38:17.359375,40.39
17:38:17.375000,56.74
17:38:17.390625,69.00
17:38:17.406250,75.77
17:38:17.421875,76.08
17:38:17.437500,69.70
17:38:17.453125,57.41
17:38:17.468750,40.80
17:38:17.484375,22.02
17:38:17.500000,3.30
17:38:17.515625,-13.36
17:38:17.531250,-26.35
17:38:17.546875,-34.54
17:38:17.562500,-37.35
17:38:17.578125,-34.85
17:38:17.593750,-27.83
17:38:17.609375,-17.71
17:38:17.625000,-6.36
17:38:17.640625,4.10
17:38:17.656250,11.64
17:38:17.671875,14.71
17:38:17.687500,12.66
17:38:17.703125,5.90
17:38:17.718750,-4.16
17:38:17.734375,-15.56
17:38:17.750000,-26.31
17:38:17.765625,-34.95
17:38:17.781250,-40.72
17:38:17.796875,-43.52
17:38:17.812500,-43.63
17:38:17.828125,-41.26
17:38:17.843750,-36.47
17:38:17.859375,-29.06
17:38:17.875000,-18.87
17:38:17.890625,-6.01
17:38:17.906250,8.93
17:38:17.921875,24.98
17:38:17.937500,40.98
17:38:17.953125,55.83
17:38:17.968750,68.68
17:38:17.984375,78.95
17:38:18,86.34
17:38:18.015625,90.74
17:38:18.031250,92.26
17:38:18.046875,91.28
17:38:18.062500,88.43
17:38:18.078125,84.59
17:38:18.093750,80.60
17:38:18.109375,77.04
17:38:18.125000,74.03
17:38:18.140625,71.28
17:38:18.156250,68.28
17:38:18.171875,64.52
17:38:18.187500,59.67
17:38:18.203125,53.55
17:38:18.218750,46.04
17:38:18.234375,37.05
17:38:18.250000,26.75
17:38:18.265625,15.67
17:38:18.281250,4.87
17:38:18.296875,-4.25
17:38:18.312500,-10.31
17:38:18.328125,-12.45
17:38:18.343750,-10.60
17:38:18.359375,-5.44
17:38:18.375000,1.99
17:38:18.390625,10.71
17:38:18.406250,20.04
17:38:18.421875,29.52
17:38:18.437500,38.77
17:38:18.453125,47.28
17:38:18.468750,54.51
17:38:18.484375,59.95
17:38:18.500000,63.44
17:38:18.515625,65.14
17:38:18.531250,65.58
17:38:18.546875,65.48
17:38:18.562500,65.49
17:38:18.578125,66.05
17:38:18.593750,67.28
17:38:18.609375,68.95
17:38:18.625000,70.60
17:38:18.640625,71.66
17:38:18.656250,71.65
17:38:18.671875,70.29
17:38:18.687500,67.55
17:38:18.703125,63.67
17:38:18.718750,59.09
17:38:18.734375,54.31
17:38:18.750000,49.87
17:38:18.765625,46.21
17:38:18.781250,43.54
17:38:18.796875,41.79
17:38:18.812500,40.61
17:38:18.828125,39.55
17:38:18.843750,38.21
17:38:18.859375,36.36
17:38:18.875000,33.88
17:38:18.890625,30.80
17:38:18.906250,27.24
17:38:18.921875,23.43
17:38:18.937500,19.79
17:38:18.953125,16.77
17:38:18.968750,14.79
17:38:18.984375,14.10
17:38:19,14.75
17:38:19.015625,16.56
17:38:19.031250,19.25
17:38:19.046875,22.47
17:38:19.062500,25.86
17:38:19.078125,29.14
17:38:19.093750,32.04
17:38:19.109375,34.36
17:38:19.125000,35.94
17:38:19.140625,36.70
17:38:19.156250,36.62
17:38:19.171875,35.65
17:38:19.187500,33.75
17:38:19.203125,30.97
17:38:19.218750,27.51
17:38:19.234375,23.66
17:38:19.250000,19.71
17:38:19.265625,15.87
17:38:19.281250,12.28
17:38:19.296875,9.14
17:38:19.312500,6.73
17:38:19.328125,5.42
17:38:19.343750,5.57
17:38:19.359375,7.27
17:38:19.375000,10.24
17:38:19.390625,13.88
17:38:19.406250,17.48
17:38:19.421875,20.45
17:38:19.437500,22.60
17:38:19.453125,24.13
17:38:19.468750,25.40
17:38:19.484375,26.66
17:38:19.500000,27.79
17:38:19.515625,28.44
17:38:19.531250,28.15
17:38:19.546875,26.55
17:38:19.562500,23.36
17:38:19.578125,18.41
17:38:19.593750,11.69
17:38:19.609375,3.33
17:38:19.625000,-6.32
17:38:19.640625,-16.77
17:38:19.656250,-27.51
17:38:19.671875,-38.17
17:38:19.687500,-48.56
17:38:19.703125,-58.65
17:38:19.718750,-68.35
17:38:19.734375,-77.40
17:38:19.750000,-85.40
17:38:19.765625,-92.03
17:38:19.781250,-97.37
17:38:19.796875,-101.99
17:38:19.812500,-106.83
17:38:19.828125,-112.81
17:38:19.843750,-120.35
17:38:19.859375,-129.16
17:38:19.875000,-138.24
17:38:19.890625,-146.04
17:38:19.906250,-150.91
17:38:19.921875,-151.40
17:38:19.937500,-146.69
17:38:19.953125,-136.84
17:38:19.968750,-122.87
17:38:19.984375,-106.66
17:38:20,-90.40
17:38:20.015625,-76.10
17:38:20.031250,-64.99
17:38:20.046875,-57.33
17:38:20.062500,-52.49
17:38:20.078125,-49.40
17:38:20.093750,-46.96
17:38:20.109375,-44.33
17:38:20.125000,-41.06
17:38:20.140625,-36.99
17:38:20.156250,-32.13
17:38:20.171875,-26.58
17:38:20.187500,-20.57
17:38:20.203125,-14.36
17:38:20.218750,-8.26
17:38:20.234375,-2.55
17:38:20.250000,2.68
17:38:20.265625,7.47
17:38:20.281250,12.05
17:38:20.296875,16.69
17:38:20.312500,21.59
17:38:20.328125,26.77
17:38:20.343750,32.07
17:38:20.359375,37.07
17:38:20.375000,41.27
17:38:20.390625,44.30
17:38:20.406250,46.05
17:38:20.421875,46.81
17:38:20.437500,47.13
17:38:20.453125,47.57
17:38:20.468750,48.46
17:38:20.484375,49.76
17:38:20.500000,51.10
17:38:20.515625,51.97
17:38:20.531250,51.96
17:38:20.546875,50.89
17:38:20.562500,48.88
17:38:20.578125,46.27
17:38:20.593750,43.53
17:38:20.609375,41.07
17:38:20.625000,39.12
17:38:20.640625,37.68
17:38:20.656250,36.55
17:38:20.671875,35.46
17:38:20.687500,34.13
17:38:20.703125,32.35
17:38:20.718750,30.09
17:38:20.734375,27.43
17:38:20.750000,24.58
17:38:20.765625,21.82
17:38:20.781250,19.41
17:38:20.796875,17.53
17:38:20.812500,16.24
17:38:20.828125,15.59
17:38:20.843750,15.54
17:38:20.859375,16.05
17:38:20.875000,16.99
17:38:20.890625,18.11
17:38:20.906250,19.11
17:38:20.921875,19.73
17:38:20.937500,19.86
17:38:20.953125,19.59
17:38:20.968750,19.12
17:38:20.984375,18.60
17:38:21,17.96
17:38:21.015625,17.01
17:38:21.031250,15.59
17:38:21.046875,13.75
17:38:21.062500,11.74
17:38:21.078125,9.85
17:38:21.093750,8.22
17:38:21.109375,6.73
17:38:21.125000,5.16
17:38:21.140625,3.26
17:38:21.156250,0.99
17:38:21.171875,-1.54
17:38:21.187500,-4.15
17:38:21.203125,-6.62
17:38:21.218750,-8.81
17:38:21.234375,-10.59
17:38:21.250000,-11.91
17:38:21.265625,-12.70
17:38:21.281250,-12.89
17:38:21.296875,-12.49
17:38:21.312500,-11.51
17:38:21.328125,-10.07
17:38:21.343750,-8.38
17:38:21.359375,-6.74
17:38:21.375000,-5.48
17:38:21.390625,-4.89
17:38:21.406250,-5.10
17:38:21.421875,-5.98
17:38:21.437500,-7.25
17:38:21.453125,-8.58
17:38:21.468750,-9.70
17:38:21.484375,-10.40
17:38:21.500000,-10.51
17:38:21.515625,-9.86
17:38:21.531250,-8.35
17:38:21.546875,-6.03
17:38:21.562500,-3.19
17:38:21.578125,-0.27
17:38:21.593750,2.29
17:38:21.609375,4.21
17:38:21.625000,5.41
17:38:21.640625,6.03
17:38:21.656250,6.28
17:38:21.671875,6.41
17:38:21.687500,6.56
17:38:21.703125,6.75
17:38:21.718750,6.93
17:38:21.734375,7.05
17:38:21.750000,7.09
17:38:21.765625,7.15
17:38:21.781250,7.37
17:38:21.796875,7.88
17:38:21.812500,8.74
17:38:21.828125,9.83
17:38:21.843750,10.88
17:38:21.859375,11.56
17:38:21.875000,11.70
17:38:21.890625,11.34
17:38:21.906250,10.65
17:38:21.921875,9.78
17:38:21.937500,8.76
17:38:21.953125,7.52
17:38:21.968750,6.02
17:38:21.984375,4.34
17:38:22,2.60
17:38:22.015625,0.95
17:38:22.031250,-0.53
17:38:22.046875,-1.82
17:38:22.062500,-2.96
17:38:22.078125,-3.94
17:38:22.093750,-4.74
17:38:22.109375,-5.28
17:38:22.125000,-5.51
17:38:22.140625,-5.47
17:38:22.156250,-5.31
17:38:22.171875,-5.22
17:38:22.187500,-5.37
17:38:22.203125,-5.86
17:38:22.218750,-6.70
17:38:22.234375,-7.88
17:38:22.250000,-9.30
17:38:22.265625,-10.79
17:38:22.281250,-12.12
17:38:22.296875,-13.07
17:38:22.312500,-13.41
17:38:22.328125,-12.97
17:38:22.343750,-11.61
17:38:22.359375,-9.30
17:38:22.375000,-6.16
17:38:22.390625,-2.47
17:38:22.406250,1.40
17:38:22.421875,5.05
17:38:22.437500,8.13
17:38:22.453125,10.38
17:38:22.468750,11.72
17:38:22.484375,12.20
17:38:22.500000,11.97
17:38:22.515625,11.19
17:38:22.531250,10.00
17:38:22.546875,8.47
17:38:22.562500,6.72
17:38:22.578125,4.86
17:38:22.593750,3.07
17:38:22.609375,1.50
17:38:22.625000,0.29
17:38:22.640625,-0.44
17:38:22.656250,-0.59
17:38:22.671875,-0.16
17:38:22.687500,0.75
17:38:22.703125,1.87
17:38:22.718750,2.83
17:38:22.734375,3.29
17:38:22.750000,3.07
17:38:22.765625,2.27
17:38:22.781250,1.19
17:38:22.796875,0.22
17:38:22.812500,-0.36
17:38:22.828125,-0.49
17:38:22.843750,-0.30
17:38:22.859375,-0.05
17:38:22.875000,0.06
17:38:22.890625,-0.10
17:38:22.906250,-0.54
17:38:22.921875,-1.18
17:38:22.937500,-1.86
17:38:22.953125,-2.45
17:38:22.968750,-2.90
17:38:22.984375,-3.28
17:38:23,-3.76
17:38:23.015625,-4.46
17:38:23.031250,-5.37
17:38:23.046875,-6.38
17:38:23.062500,-7.33
17:38:23.078125,-8.15
17:38:23.093750,-8.87
17:38:23.109375,-9.54
17:38:23.125000,-10.18
17:38:23.140625,-10.68
17:38:23.156250,-10.83
17:38:23.171875,-10.49
17:38:23.187500,-9.60
17:38:23.203125,-8.25
17:38:23.218750,-6.63
17:38:23.234375,-4.92
17:38:23.250000,-3.32
17:38:23.265625,-1.92
17:38:23.281250,-0.80
17:38:23.296875,0.04
17:38:23.312500,0.61
17:38:23.328125,0.99
17:38:23.343750,1.24
17:38:23.359375,1.44
17:38:23.375000,1.60
17:38:23.390625,1.76
17:38:23.406250,1.93
17:38:23.421875,2.16
17:38:23.437500,2.52
17:38:23.453125,3.08
17:38:23.468750,3.86
17:38:23.484375,4.85
17:38:23.500000,5.99
17:38:23.515625,7.20
17:38:23.531250,8.38
17:38:23.546875,9.49
17:38:23.562500,10.54
17:38:23.578125,11.55
17:38:23.593750,12.56
17:38:23.609375,13.51
17:38:23.625000,14.26
17:38:23.640625,14.57
17:38:23.656250,14.24
17:38:23.671875,13.17
17:38:23.687500,11.48
17:38:23.703125,9.42
17:38:23.718750,7.36
17:38:23.734375,5.61
17:38:23.750000,4.39
17:38:23.765625,3.84
17:38:23.781250,3.95
17:38:23.796875,4.59
17:38:23.812500,5.46
17:38:23.828125,6.11
17:38:23.843750,6.07
17:38:23.859375,4.93
17:38:23.875000,2.55
17:38:23.890625,-0.89
17:38:23.906250,-5.01
17:38:23.921875,-9.28
17:38:23.937500,-13.17
17:38:23.953125,-16.21
17:38:23.968750,-18.04
17:38:23.984375,-18.48
17:38:24,-17.55
17:38:24.015625,-15.57
17:38:24.031250,-13.07
17:38:24.046875,-10.58
17:38:24.062500,-8.52
17:38:24.078125,-7.06
17:38:24.093750,-6.11
17:38:24.109375,-5.51
17:38:24.125000,-5.14
17:38:24.140625,-4.95
17:38:24.156250,-4.96
17:38:24.171875,-5.16
17:38:24.187500,-5.41
17:38:24.203125,-5.54
17:38:24.218750,-5.43
17:38:24.234375,-5.08
17:38:24.250000,-4.61
17:38:24.265625,-4.18
17:38:24.281250,-3.90
17:38:24.296875,-3.82
17:38:24.312500,-3.89
17:38:24.328125,-4.05
17:38:24.343750,-4.26
17:38:24.359375,-4.53
17:38:24.375000,-4.87
17:38:24.390625,-5.33
17:38:24.406250,-5.96
17:38:24.421875,-6.88
17:38:24.437500,-8.29
17:38:24.453125,-10.30
17:38:24.468750,-12.79
17:38:24.484375,-15.35
17:38:24.500000,-17.42
17:38:24.515625,-18.55
17:38:24.531250,-18.64
17:38:24.546875,-17.89
17:38:24.562500,-16.72
17:38:24.578125,-15.45
17:38:24.593750,-14.24
17:38:24.609375,-13.10
17:38:24.625000,-12.00
17:38:24.640625,-10.96
17:38:24.656250,-10.12
17:38:24.671875,-9.59
17:38:24.687500,-9.31
17:38:24.703125,-9.06
17:38:24.718750,-8.50
17:38:24.734375,-7.30
17:38:24.750000,-5.25
17:38:24.765625,-2.23
17:38:24.781250,1.82
17:38:24.796875,6.88
17:38:24.812500,12.74
17:38:24.828125,19.00
17:38:24.843750,25.14
17:38:24.859375,30.69
17:38:24.875000,35.32
17:38:24.890625,38.86
17:38:24.906250,41.19
17:38:24.921875,42.24
17:38:24.937500,42.05
17:38:24.953125,40.75
17:38:24.968750,38.69
17:38:24.984375,36.32
17:38:25,34.15
17:38:25.015625,32.63
17:38:25.031250,31.95
17:38:25.046875,32.05
17:38:25.062500,32.59
17:38:25.078125,33.15
17:38:25.093750,33.36
17:38:25.109375,33.07
17:38:25.125000,32.25
17:38:25.140625,30.91
17:38:25.156250,28.99
17:38:25.171875,26.33
17:38:25.187500,22.75
17:38:25.203125,18.13
17:38:25.218750,12.58
17:38:25.234375,6.37
17:38:25.250000,-0.08
17:38:25.265625,-6.40
17:38:25.281250,-12.38
17:38:25.296875,-17.96
17:38:25.312500,-23.22
17:38:25.328125,-28.22
17:38:25.343750,-32.97
17:38:25.359375,-37.43
17:38:25.375000,-41.44
17:38:25.390625,-44.83
17:38:25.406250,-47.44
17:38:25.421875,-49.19
17:38:25.437500,-50.12
17:38:25.453125,-50.26
17:38:25.468750,-49.56
17:38:25.484375,-47.96
17:38:25.500000,-45.47
17:38:25.515625,-42.24
17:38:25.531250,-38.58
17:38:25.546875,-34.79
17:38:25.562500,-31.05
17:38:25.578125,-27.40
17:38:25.593750,-23.87
17:38:25.609375,-20.59
17:38:25.625000,-17.82
17:38:25.640625,-15.87
17:38:25.656250,-14.84
17:38:25.671875,-14.56
17:38:25.687500,-14.54
17:38:25.703125,-14.16
17:38:25.718750,-12.87
17:38:25.734375,-10.39
17:38:25.750000,-6.68
17:38:25.765625,-1.99
17:38:25.781250,3.32
17:38:25.796875,8.68
17:38:25.812500,13.45
17:38:25.828125,17.06
17:38:25.843750,19.25
17:38:25.859375,20.11
17:38:25.875000,20.08
17:38:25.890625,19.65
17:38:25.906250,19.19
17:38:25.921875,18.84
17:38:25.937500,18.54
17:38:25.953125,18.25
17:38:25.968750,17.97
17:38:25.984375,17.80
17:38:26,17.81
17:38:26.015625,17.99
17:38:26.031250,18.19
17:38:26.046875,18.14
17:38:26.062500,17.59
17:38:26.078125,16.32
17:38:26.093750,14.25
17:38:26.109375,11.38
17:38:26.125000,7.85
17:38:26.140625,3.91
17:38:26.156250,-0.08
17:38:26.171875,-3.68
17:38:26.187500,-6.49
17:38:26.203125,-8.20
17:38:26.218750,-8.75
17:38:26.234375,-8.24
17:38:26.250000,-6.95
17:38:26.265625,-5.24
17:38:26.281250,-3.47
17:38:26.296875,-1.95
17:38:26.312500,-0.84
17:38:26.328125,-0.12
17:38:26.343750,0.41
17:38:26.359375,1.03
17:38:26.375000,1.90
17:38:26.390625,3.03
17:38:26.406250,4.18
17:38:26.421875,5.04
17:38:26.437500,5.39
17:38:26.453125,5.25
17:38:26.468750,4.85
17:38:26.484375,4.47
17:38:26.500000,4.27
17:38:26.515625,4.12
17:38:26.531250,3.81
17:38:26.546875,3.15
17:38:26.562500,2.20
17:38:26.578125,1.14
17:38:26.593750,0.20
17:38:26.609375,-0.52
17:38:26.625000,-1.10
17:38:26.640625,-1.74
17:38:26.656250,-2.62
17:38:26.671875,-3.79
17:38:26.687500,-5.19
17:38:26.703125,-6.65
17:38:26.718750,-8.00
17:38:26.734375,-9.15
17:38:26.750000,-10.07
17:38:26.765625,-10.77
17:38:26.781250,-11.26
17:38:26.796875,-11.59
17:38:26.812500,-11.84
17:38:26.828125,-12.16
17:38:26.843750,-12.72
17:38:26.859375,-13.61
17:38:26.875000,-14.84
17:38:26.890625,-16.22
17:38:26.906250,-17.40
17:38:26.921875,-17.91
17:38:26.937500,-17.41
17:38:26.953125,-15.78
17:38:26.968750,-13.21
17:38:26.984375,-10.15
17:38:27,-7.09
17:38:27.015625,-4.39
17:38:27.031250,-2.22
17:38:27.046875,-0.53
17:38:27.062500,0.78
17:38:27.078125,1.78
17:38:27.093750,2.50
17:38:27.109375,2.92
17:38:27.125000,3.08
17:38:27.140625,3.06
17:38:27.156250,2.92
17:38:27.171875,2.67
17:38:27.187500,2.23
17:38:27.203125,1.59
17:38:27.218750,0.88
17:38:27.234375,0.40
17:38:27.250000,0.48
17:38:27.265625,1.35
17:38:27.281250,2.94
17:38:27.296875,4.98
17:38:27.312500,7.06
17:38:27.328125,8.86
17:38:27.343750,10.17
17:38:27.359375,11.02
17:38:27.375000,11.53
17:38:27.390625,11.80
17:38:27.406250,11.83
17:38:27.421875,11.55
17:38:27.437500,10.87
17:38:27.453125,9.69
17:38:27.468750,8.03
17:38:27.484375,6.00
17:38:27.500000,3.81
17:38:27.515625,1.74
17:38:27.531250,0.03
17:38:27.546875,-1.24
17:38:27.562500,-2.11
17:38:27.578125,-2.79
17:38:27.593750,-3.48
17:38:27.609375,-4.42
17:38:27.625000,-5.74
17:38:27.640625,-7.50
17:38:27.656250,-9.58
17:38:27.671875,-11.72
17:38:27.687500,-13.48
17:38:27.703125,-14.45
17:38:27.718750,-14.39
17:38:27.734375,-13.36
17:38:27.750000,-11.67
17:38:27.765625,-9.73
17:38:27.781250,-7.92
17:38:27.796875,-6.39
17:38:27.812500,-5.08
17:38:27.828125,-3.80
17:38:27.843750,-2.36
17:38:27.859375,-0.66
17:38:27.875000,1.24
17:38:27.890625,3.17
17:38:27.906250,4.89
17:38:27.921875,6.18
17:38:27.937500,6.91
17:38:27.953125,7.16
17:38:27.968750,7.15
17:38:27.984375,7.15
17:38:28,7.32
17:38:28.015625,7.61
17:38:28.031250,7.82
17:38:28.046875,7.72
17:38:28.062500,7.23
17:38:28.078125,6.44
17:38:28.093750,5.57
17:38:28.109375,4.73
17:38:28.125000,3.96
17:38:28.140625,3.18
17:38:28.156250,2.37
17:38:28.171875,1.59
17:38:28.187500,0.94
17:38:28.203125,0.51
17:38:28.218750,0.19
17:38:28.234375,-0.29
17:38:28.250000,-1.22
17:38:28.265625,-2.71
17:38:28.281250,-4.62
17:38:28.296875,-6.67
17:38:28.312500,-8.60
17:38:28.328125,-10.29
17:38:28.343750,-11.70
17:38:28.359375,-12.88
17:38:28.375000,-13.82
17:38:28.390625,-14.50
17:38:28.406250,-14.96
17:38:28.421875,-15.27
17:38:28.437500,-15.56
17:38:28.453125,-15.84
17:38:28.468750,-15.99
17:38:28.484375,-15.73
17:38:28.500000,-14.75
17:38:28.515625,-12.90
17:38:28.531250,-10.23
17:38:28.546875,-7.00
17:38:28.562500,-3.53
17:38:28.578125,-0.10
17:38:28.593750,3.11
17:38:28.609375,6.05
17:38:28.625000,8.68
17:38:28.640625,10.99
17:38:28.656250,12.89
17:38:28.671875,14.29
17:38:28.687500,15.07
17:38:28.703125,15.24
17:38:28.718750,14.91
17:38:28.734375,14.28
17:38:28.750000,13.62
17:38:28.765625,13.19
17:38:28.781250,13.12
17:38:28.796875,13.40
17:38:28.812500,13.81
17:38:28.828125,14.10
17:38:28.843750,14.06
17:38:28.859375,13.62
17:38:28.875000,12.88
17:38:28.890625,12.03
17:38:28.906250,11.23
17:38:28.921875,10.52
17:38:28.937500,9.86
17:38:28.953125,9.11
17:38:28.968750,8.16
17:38:28.984375,7.00
17:38:29,5.74
17:38:29.015625,4.51
17:38:29.031250,3.42
17:38:29.046875,2.52
17:38:29.062500,1.81
17:38:29.078125,1.27
17:38:29.093750,0.90
17:38:29.109375,0.61
17:38:29.125000,0.31
17:38:29.140625,-0.10
17:38:29.156250,-0.67
17:38:29.171875,-1.36
17:38:29.187500,-2.09
17:38:29.203125,-2.78
17:38:29.218750,-3.42
17:38:29.234375,-4.13
17:38:29.250000,-5.04
17:38:29.265625,-6.32
17:38:29.281250,-7.98
17:38:29.296875,-9.96
17:38:29.312500,-12.07
17:38:29.328125,-14.10
17:38:29.343750,-15.88
17:38:29.359375,-17.21
17:38:29.375000,-17.91
17:38:29.390625,-17.85
17:38:29.406250,-17.00
17:38:29.421875,-15.40
17:38:29.437500,-13.21
17:38:29.453125,-10.61
17:38:29.468750,-7.77
17:38:29.484375,-4.80
17:38:29.500000,-1.70
17:38:29.515625,1.59
17:38:29.531250,5.10
17:38:29.546875,8.72
17:38:29.562500,12.14
17:38:29.578125,14.97
17:38:29.593750,16.92
17:38:29.609375,17.95
17:38:29.625000,18.28
17:38:29.640625,18.29
17:38:29.656250,18.30
17:38:29.671875,18.42
17:38:29.687500,18.55
17:38:29.703125,18.45
17:38:29.718750,17.86
17:38:29.734375,16.56
17:38:29.750000,14.45
17:38:29.765625,11.48
17:38:29.781250,7.68
17:38:29.796875,3.18
17:38:29.812500,-1.72
17:38:29.828125,-6.54
17:38:29.843750,-10.72
17:38:29.859375,-13.75
17:38:29.875000,-15.31
17:38:29.890625,-15.28
17:38:29.906250,-13.77
17:38:29.921875,-11.07
17:38:29.937500,-7.54
17:38:29.953125,-3.59
17:38:29.968750,0.33
17:38:29.984375,3.78
17:38:30,6.38
17:38:30.015625,7.90
17:38:30.031250,8.33
17:38:30.046875,7.91
17:38:30.062500,7.00
17:38:30.078125,5.97
17:38:30.093750,5.05
17:38:30.109375,4.26
17:38:30.125000,3.49
17:38:30.140625,2.60
17:38:30.156250,1.46
17:38:30.171875,0.04
17:38:30.187500,-1.59
17:38:30.203125,-3.31
17:38:30.218750,-5.00
17:38:30.234375,-6.59
17:38:30.250000,-8.09
17:38:30.265625,-9.53
17:38:30.281250,-10.97
17:38:30.296875,-12.46
17:38:30.312500,-14.02
17:38:30.328125,-15.53
17:38:30.343750,-16.80
17:38:30.359375,-17.63
17:38:30.375000,-17.87
17:38:30.390625,-17.46
17:38:30.406250,-16.31
17:38:30.421875,-14.33
17:38:30.437500,-11.47
17:38:30.453125,-7.86
17:38:30.468750,-3.83
17:38:30.484375,0.15
17:38:30.500000,3.63
17:38:30.515625,6.34
17:38:30.531250,8.21
17:38:30.546875,9.28
17:38:30.562500,9.67
17:38:30.578125,9.49
17:38:30.593750,8.91
17:38:30.609375,8.19
17:38:30.625000,7.63
17:38:30.640625,7.51
17:38:30.656250,7.91
17:38:30.671875,8.70
17:38:30.687500,9.58
17:38:30.703125,10.24
17:38:30.718750,10.50
17:38:30.734375,10.41
17:38:30.750000,10.11
17:38:30.765625,9.79
17:38:30.781250,9.54
17:38:30.796875,9.43
17:38:30.812500,9.45
17:38:30.828125,9.59
17:38:30.843750,9.85
17:38:30.859375,10.15
17:38:30.875000,10.35
17:38:30.890625,10.24
17:38:30.906250,9.68
17:38:30.921875,8.62
17:38:30.937500,7.14
17:38:30.953125,5.45
17:38:30.968750,3.79
17:38:30.984375,2.37
17:38:31,1.32
17:38:31.015625,0.63
17:38:31.031250,0.22
17:38:31.046875,-0.04
17:38:31.062500,-0.29
17:38:31.078125,-0.56
17:38:31.093750,-0.86
17:38:31.109375,-1.18
17:38:31.125000,-1.54
17:38:31.140625,-2.00
17:38:31.156250,-2.62
17:38:31.171875,-3.43
17:38:31.187500,-4.35
17:38:31.203125,-5.26
17:38:31.218750,-6.06
17:38:31.234375,-6.76
17:38:31.250000,-7.48
17:38:31.265625,-8.32
17:38:31.281250,-9.30
17:38:31.296875,-10.28
17:38:31.312500,-11.03
17:38:31.328125,-11.33
17:38:31.343750,-11.06
17:38:31.359375,-10.22
17:38:31.375000,-8.90
17:38:31.390625,-7.15
17:38:31.406250,-5.01
17:38:31.421875,-2.51
17:38:31.437500,0.27
17:38:31.453125,3.13
17:38:31.468750,5.78
17:38:31.484375,7.96
17:38:31.500000,9.54
17:38:31.515625,10.51
17:38:31.531250,10.94
17:38:31.546875,10.94
17:38:31.562500,10.66
17:38:31.578125,10.24
17:38:31.593750,9.79
17:38:31.609375,9.35
17:38:31.625000,8.94
17:38:31.640625,8.56
17:38:31.656250,8.21
17:38:31.671875,7.85
17:38:31.687500,7.42
17:38:31.703125,6.84
17:38:31.718750,6.10
17:38:31.734375,5.28
17:38:31.750000,4.52
17:38:31.765625,3.97
17:38:31.781250,3.71
17:38:31.796875,3.70
17:38:31.812500,3.80
17:38:31.828125,3.78
17:38:31.843750,3.47
17:38:31.859375,2.82
17:38:31.875000,1.93
17:38:31.890625,0.96
17:38:31.906250,0.02
17:38:31.921875,-0.81
17:38:31.937500,-1.54
17:38:31.953125,-2.09
17:38:31.968750,-2.39
17:38:31.984375,-2.43
17:38:32,-2.27
17:38:32.015625,-2.04
17:38:32.031250,-1.87
17:38:32.046875,-1.84
17:38:32.062500,-1.94
17:38:32.078125,-2.08
17:38:32.093750,-2.18
17:38:32.109375,-2.20
17:38:32.125000,-2.19
17:38:32.140625,-2.28
17:38:32.156250,-2.52
17:38:32.171875,-2.94
17:38:32.187500,-3.47
17:38:32.203125,-4.08
17:38:32.218750,-4.78
17:38:32.234375,-5.60
17:38:32.250000,-6.49
17:38:32.265625,-7.32
17:38:32.281250,-7.88
17:38:32.296875,-7.97
17:38:32.312500,-7.42
17:38:32.328125,-6.28
17:38:32.343750,-4.68
17:38:32.359375,-2.87
17:38:32.375000,-1.01
17:38:32.390625,0.84
17:38:32.406250,2.74
17:38:32.421875,4.75
17:38:32.437500,6.81
17:38:32.453125,8.73
17:38:32.468750,10.21
17:38:32.484375,11.02
17:38:32.500000,11.06
17:38:32.515625,10.48
17:38:32.531250,9.71
17:38:32.546875,9.27
17:38:32.562500,9.65
17:38:32.578125,10.99
17:38:32.593750,13.08
17:38:32.609375,15.38
17:38:32.625000,17.36
17:38:32.640625,18.63
17:38:32.656250,19.10
17:38:32.671875,18.91
17:38:32.687500,18.29
17:38:32.703125,17.47
17:38:32.718750,16.66
17:38:32.734375,16.12
17:38:32.750000,16.07
17:38:32.765625,16.51
17:38:32.781250,17.16
17:38:32.796875,17.36
17:38:32.812500,16.35
17:38:32.828125,13.55
17:38:32.843750,8.90
17:38:32.859375,2.88
17:38:32.875000,-3.63
17:38:32.890625,-9.67
17:38:32.906250,-14.55
17:38:32.921875,-18.02
17:38:32.937500,-20.28
17:38:32.953125,-21.86
17:38:32.968750,-23.43
17:38:32.984375,-25.50
17:38:33,-28.28
17:38:33.015625,-31.57
17:38:33.031250,-34.87
17:38:33.046875,-37.57
17:38:33.062500,-39.23
17:38:33.078125,-39.65
17:38:33.093750,-38.82
17:38:33.109375,-36.80
17:38:33.125000,-33.68
17:38:33.140625,-29.66
17:38:33.156250,-25.09
17:38:33.171875,-20.41
17:38:33.187500,-15.98
17:38:33.203125,-11.90
17:38:33.218750,-7.92
17:38:33.234375,-3.61
17:38:33.250000,1.44
17:38:33.265625,7.34
17:38:33.281250,13.78
17:38:33.296875,20.16
17:38:33.312500,25.78
17:38:33.328125,30.17
17:38:33.343750,33.26
17:38:33.359375,35.32
17:38:33.375000,36.79
17:38:33.390625,38.01
17:38:33.406250,39.13
17:38:33.421875,40.04
17:38:33.437500,40.53
17:38:33.453125,40.42
17:38:33.468750,39.67
17:38:33.484375,38.37
17:38:33.500000,36.75
17:38:33.515625,35.07
17:38:33.531250,33.65
17:38:33.546875,32.82
17:38:33.562500,32.90
17:38:33.578125,34.07
17:38:33.593750,36.39
17:38:33.609375,39.70
17:38:33.625000,43.66
17:38:33.640625,47.81
17:38:33.656250,51.50
17:38:33.671875,54.07
17:38:33.687500,55.06
17:38:33.703125,54.38
17:38:33.718750,52.48
17:38:33.734375,50.13
17:38:33.750000,48.10
17:38:33.765625,46.93
17:38:33.781250,46.84
17:38:33.796875,47.87
17:38:33.812500,49.99
17:38:33.828125,53.29
17:38:33.843750,57.87
17:38:33.859375,63.59
17:38:33.875000,69.92
17:38:33.890625,76.00
17:38:33.906250,81.14
17:38:33.921875,85.15
17:38:33.937500,88.52
17:38:33.953125,92.17
17:38:33.968750,97.11
17:38:33.984375,104.00
17:38:34,112.88
17:38:34.015625,122.98
17:38:34.031250,132.57
17:38:34.046875,139.58
17:38:34.062500,141.88
17:38:34.078125,137.83
17:38:34.093750,126.78
17:38:34.109375,109.63
17:38:34.125000,88.94
17:38:34.140625,68.58
17:38:34.156250,52.70
17:38:34.171875,43.85
17:38:34.187500,42.54
17:38:34.203125,46.44
17:38:34.218750,50.58
17:38:34.234375,48.78
17:38:34.250000,36.03
17:38:34.265625,10.35
17:38:34.281250,-26.38
17:38:34.296875,-69.66
17:38:34.312500,-115.10
17:38:34.328125,-158.83
17:38:34.343750,-198.99
17:38:34.359375,-236.24
17:38:34.375000,-273.41
17:38:34.390625,-314.15
17:38:34.406250,-361.72
17:38:34.421875,-417.17
17:38:34.437500,-478.64
17:38:34.453125,-542.16
17:38:34.468750,-599.44
17:38:34.484375,-640.45
17:38:34.500000,-657.28
17:38:34.515625,-647.03
17:38:34.531250,-612.44
17:38:34.546875,-560.69
17:38:34.562500,-499.39
17:38:34.578125,-434.39
17:38:34.593750,-370.00
17:38:34.609375,-305.34
17:38:34.625000,-236.78
17:38:34.640625,-160.86
17:38:34.656250,-76.90
17:38:34.671875,12.72
17:38:34.687500,101.38
17:38:34.703125,181.12
17:38:34.718750,255.79
17:38:34.734375,318.39
17:38:34.750000,360.61
17:38:34.765625,380.36
17:38:34.781250,384.22
17:38:34.796875,381.17
17:38:34.812500,377.44
17:38:34.828125,369.84
17:38:34.843750,356.66
17:38:34.859375,337.21
17:38:34.875000,310.69
17:38:34.890625,278.74
17:38:34.906250,241.71
17:38:34.921875,197.55
17:38:34.937500,146.40
17:38:34.953125,96.42
17:38:34.968750,54.92
17:38:34.984375,28.18
17:38:35,18.07
17:38:35.015625,21.37
17:38:35.031250,34.42
17:38:35.046875,52.31
17:38:35.062500,71.10
17:38:35.078125,80.06
17:38:35.093750,81.14
17:38:35.109375,76.59
17:38:35.125000,68.97
17:38:35.140625,59.72
17:38:35.156250,48.14
17:38:35.171875,32.83
17:38:35.187500,8.42
17:38:35.203125,-23.85
17:38:35.218750,-64.46
17:38:35.234375,-110.99
17:38:35.250000,-161.69
17:38:35.265625,-214.44
17:38:35.281250,-268.11
17:38:35.296875,-322.85
17:38:35.312500,-361.79
17:38:35.328125,-374.33
17:38:35.343750,-359.13
17:38:35.359375,-326.00
17:38:35.375000,-287.19
17:38:35.390625,-251.97
17:38:35.406250,-221.93
17:38:35.421875,-192.37
17:38:35.437500,-155.90
17:38:35.453125,-107.08
17:38:35.468750,-48.35
17:38:35.484375,12.64
17:38:35.500000,65.71
17:38:35.515625,104.06
17:38:35.531250,125.51
17:38:35.546875,133.31
17:38:35.562500,133.76
17:38:35.578125,133.19
17:38:35.593750,134.81
17:38:35.609375,136.25
17:38:35.625000,134.13
17:38:35.640625,126.45
17:38:35.656250,115.35
17:38:35.671875,105.18
17:38:35.687500,100.46
17:38:35.703125,103.83
17:38:35.718750,115.98
17:38:35.734375,135.74
17:38:35.750000,159.47
17:38:35.765625,183.47
17:38:35.781250,203.94
17:38:35.796875,217.43
17:38:35.812500,220.59
17:38:35.828125,211.42
17:38:35.843750,188.42
17:38:35.859375,156.64
17:38:35.875000,123.68
17:38:35.890625,95.87
17:38:35.906250,76.59
17:38:35.921875,65.32
17:38:35.937500,59.02
17:38:35.953125,54.20
17:38:35.968750,48.96
17:38:35.984375,43.20
17:38:36,38.21
17:38:36.015625,34.02
17:38:36.031250,29.06
17:38:36.046875,21.65
17:38:36.062500,11.14
17:38:36.078125,-1.38
17:38:36.093750,-13.52
17:38:36.109375,-22.29
17:38:36.125000,-25.42
17:38:36.140625,-21.73
17:38:36.156250,-12.38
17:38:36.171875,-0.05
17:38:36.187500,12.79
17:38:36.203125,24.52
17:38:36.218750,35.70
17:38:36.234375,45.93
17:38:36.250000,55.36
17:38:36.265625,63.96
17:38:36.281250,71.93
17:38:36.296875,77.82
17:38:36.312500,79.93
17:38:36.328125,77.05
17:38:36.343750,68.82
17:38:36.359375,55.67
17:38:36.375000,38.52
17:38:36.390625,18.85
17:38:36.406250,-2.25
17:38:36.421875,-23.35
17:38:36.437500,-40.65
17:38:36.453125,-53.72
17:38:36.468750,-62.63
17:38:36.484375,-67.45
17:38:36.500000,-68.07
17:38:36.515625,-64.55
17:38:36.531250,-56.90
17:38:36.546875,-49.60
17:38:36.562500,-41.74
17:38:36.578125,-33.03
17:38:36.593750,-23.94
17:38:36.609375,-14.53
17:38:36.625000,-4.60
17:38:36.640625,5.91
17:38:36.656250,16.70
17:38:36.671875,27.25
17:38:36.687500,36.29
17:38:36.703125,43.55
17:38:36.718750,48.70
17:38:36.734375,51.73
17:38:36.750000,53.50
17:38:36.765625,54.96
17:38:36.781250,56.29
17:38:36.796875,56.20
17:38:36.812500,56.20
17:38:36.828125,54.82
17:38:36.843750,50.57
17:38:36.859375,41.81
17:38:36.875000,27.52
17:38:36.890625,7.59
17:38:36.906250,-17.60
17:38:36.921875,-47.85
17:38:36.937500,-83.48
17:38:36.953125,-125.16
17:38:36.968750,-174.22
17:38:36.984375,-231.35
17:38:37,-297.27
17:38:37.015625,-372.16
17:38:37.031250,-454.60
17:38:37.046875,-540.49
17:38:37.062500,-622.57
17:38:37.078125,-691.19
17:38:37.093750,-736.72
17:38:37.109375,-753.18
17:38:37.125000,-739.85
17:38:37.140625,-701.99
17:38:37.156250,-648.72
17:38:37.171875,-589.49
17:38:37.187500,-531.18
17:38:37.203125,-476.92
17:38:37.218750,-426.90
17:38:37.234375,-380.29
17:38:37.250000,-337.04
17:38:37.265625,-297.76
17:38:37.281250,-263.13
17:38:37.296875,-232.98
17:38:37.312500,-205.97
17:38:37.328125,-180.24
17:38:37.343750,-154.40
17:38:37.359375,-128.24
17:38:37.375000,-102.71
17:38:37.390625,-79.69
17:38:37.406250,-60.63
17:38:37.421875,-46.05
17:38:37.437500,-35.18
17:38:37.453125,-26.41
17:38:37.468750,-17.91
17:38:37.484375,-8.35
17:38:37.500000,2.66
17:38:37.515625,14.64
17:38:37.531250,26.54
17:38:37.546875,37.51
17:38:37.562500,47.19
17:38:37.578125,55.92
17:38:37.593750,64.48
17:38:37.609375,73.68
17:38:37.625000,83.99
17:38:37.640625,95.30
17:38:37.656250,107.02
17:38:37.671875,118.33
17:38:37.687500,128.56
17:38:37.703125,137.36
17:38:37.718750,144.78
17:38:37.734375,151.12
17:38:37.750000,156.70
17:38:37.765625,161.71
17:38:37.781250,166.07
17:38:37.796875,169.51
17:38:37.812500,171.70
17:38:37.828125,172.42
17:38:37.843750,171.60
17:38:37.859375,169.32
17:38:37.875000,165.77
17:38:37.890625,161.14
17:38:37.906250,155.58
17:38:37.921875,149.21
17:38:37.937500,142.19
17:38:37.953125,134.79
17:38:37.968750,127.37
17:38:37.984375,120.34
17:38:38,114.04
17:38:38.015625,108.63
17:38:38.031250,104.05
17:38:38.046875,100.07
17:38:38.062500,96.44
17:38:38.078125,92.96
17:38:38.093750,89.71
17:38:38.109375,86.96
17:38:38.125000,85.10
17:38:38.140625,84.43
17:38:38.156250,85.04
17:38:38.171875,86.71
17:38:38.187500,89.02
17:38:38.203125,91.55
17:38:38.218750,94.14
17:38:38.234375,97.02
17:38:38.250000,100.80
17:38:38.265625,106.17
17:38:38.281250,113.65
17:38:38.296875,123.28
17:38:38.312500,134.62
17:38:38.328125,146.99
17:38:38.343750,159.67
17:38:38.359375,172.34
17:38:38.375000,185.11
17:38:38.390625,198.36
17:38:38.406250,212.64
17:38:38.421875,228.51
17:38:38.437500,246.59
17:38:38.453125,267.50
17:38:38.468750,291.46
17:38:38.484375,317.69
17:38:38.500000,343.91
17:38:38.515625,366.42
17:38:38.531250,381.05
17:38:38.546875,384.54
17:38:38.562500,375.84
17:38:38.578125,356.52
17:38:38.593750,330.15
17:38:38.609375,300.90
17:38:38.625000,272.20
17:38:38.640625,246.05
17:38:38.656250,223.07
17:38:38.671875,203.18
17:38:38.687500,186.18
17:38:38.703125,171.87
17:38:38.718750,159.93
17:38:38.734375,149.70
17:38:38.750000,140.31
17:38:38.765625,130.94
17:38:38.781250,121.27
17:38:38.796875,111.75
17:38:38.812500,103.68
17:38:38.828125,98.92
17:38:38.843750,99.09
17:38:38.859375,104.59
17:38:38.875000,114.00
17:38:38.890625,123.93
17:38:38.906250,130.05
17:38:38.921875,128.52
17:38:38.937500,117.49
17:38:38.953125,97.57
17:38:38.968750,71.28
17:38:38.984375,41.70
17:38:39,11.12
17:38:39.015625,-19.37
17:38:39.031250,-49.36
17:38:39.046875,-78.06
17:38:39.062500,-103.62
17:38:39.078125,-123.32
17:38:39.093750,-134.67
17:38:39.109375,-136.51
17:38:39.125000,-129.71
17:38:39.140625,-116.78
17:38:39.156250,-100.88
17:38:39.171875,-84.68
17:38:39.187500,-69.73
17:38:39.203125,-56.42
17:38:39.218750,-44.53
17:38:39.234375,-33.86
17:38:39.250000,-24.51
17:38:39.265625,-16.92
17:38:39.281250,-11.54
17:38:39.296875,-8.61
17:38:39.312500,-7.95
17:38:39.328125,-9.01
17:38:39.343750,-11.08
17:38:39.359375,-13.52
17:38:39.375000,-15.90
17:38:39.390625,-18.15
17:38:39.406250,-20.43
17:38:39.421875,-23.00
17:38:39.437500,-25.92
17:38:39.453125,-28.82
17:38:39.468750,-30.98
17:38:39.484375,-31.59
17:38:39.500000,-30.17
17:38:39.515625,-26.86
17:38:39.531250,-22.48
17:38:39.546875,-18.12
17:38:39.562500,-14.68
17:38:39.578125,-12.47
17:38:39.593750,-11.19
17:38:39.609375,-10.20
17:38:39.625000,-9.01
17:38:39.640625,-7.49
17:38:39.656250,-5.92
17:38:39.671875,-4.76
17:38:39.687500,-4.35
17:38:39.703125,-4.81
17:38:39.718750,-6.04
17:38:39.734375,-7.78
17:38:39.750000,-9.76
17:38:39.765625,-11.81
17:38:39.781250,-13.80
17:38:39.796875,-15.75
17:38:39.812500,-17.67
17:38:39.828125,-19.65
17:38:39.843750,-21.74
17:38:39.859375,-24.03
17:38:39.875000,-26.53
17:38:39.890625,-29.30
17:38:39.906250,-32.39
17:38:39.921875,-35.83
17:38:39.937500,-39.67
17:38:39.953125,-43.75
17:38:39.968750,-47.73
17:38:39.984375,-51.06
17:38:40,-53.13
17:38:40.015625,-53.37
17:38:40.031250,-51.47
17:38:40.046875,-47.48
17:38:40.062500,-41.73
17:38:40.078125,-34.78
17:38:40.093750,-27.25
17:38:40.109375,-19.69
17:38:40.125000,-12.53
17:38:40.140625,-6.06
17:38:40.156250,-0.45
17:38:40.171875,4.23
17:38:40.187500,7.94
17:38:40.203125,10.74
17:38:40.218750,12.63
17:38:40.234375,13.65
17:38:40.250000,13.88
17:38:40.265625,13.49
17:38:40.281250,12.72
17:38:40.296875,11.85
17:38:40.312500,11.12
17:38:40.328125,10.63
17:38:40.343750,10.37
17:38:40.359375,10.24
17:38:40.375000,10.12
17:38:40.390625,9.95
17:38:40.406250,9.74
17:38:40.421875,9.48
17:38:40.437500,9.16
17:38:40.453125,8.63
17:38:40.468750,7.74
17:38:40.484375,6.38
17:38:40.500000,4.55
17:38:40.515625,2.41
17:38:40.531250,0.18
17:38:40.546875,-1.99
17:38:40.562500,-4.04
17:38:40.578125,-6.03
17:38:40.593750,-8.05
17:38:40.609375,-10.16
17:38:40.625000,-12.37
17:38:40.640625,-14.62
17:38:40.656250,-16.89
17:38:40.671875,-19.11
17:38:40.687500,-21.31
17:38:40.703125,-23.49
17:38:40.718750,-25.66
17:38:40.734375,-27.82
17:38:40.750000,-29.98
17:38:40.765625,-32.11
17:38:40.781250,-34.12
17:38:40.796875,-35.78
17:38:40.812500,-36.83
17:38:40.828125,-36.96
17:38:40.843750,-36.01
17:38:40.859375,-33.90
17:38:40.875000,-30.73
17:38:40.890625,-26.69
17:38:40.906250,-22.01
17:38:40.921875,-16.86
17:38:40.937500,-11.37
17:38:40.953125,-5.70
17:38:40.968750,-0.03
17:38:40.984375,5.42
17:38:41,10.39
17:38:41.015625,14.59
17:38:41.031250,17.77
17:38:41.046875,19.78
17:38:41.062500,20.62
17:38:41.078125,20.47
17:38:41.093750,19.63
17:38:41.109375,18.40
17:38:41.125000,17.05
17:38:41.140625,15.73
17:38:41.156250,14.52
17:38:41.171875,13.48
17:38:41.187500,12.71
17:38:41.203125,12.26
17:38:41.218750,12.18
17:38:41.234375,12.41
17:38:41.250000,12.78
17:38:41.265625,13.09
17:38:41.281250,13.14
17:38:41.296875,12.82
17:38:41.312500,12.06
17:38:41.328125,10.86
17:38:41.343750,9.23
17:38:41.359375,7.23
17:38:41.375000,4.88
17:38:41.390625,2.20
17:38:41.406250,-0.83
17:38:41.421875,-4.17
17:38:41.437500,-7.76
17:38:41.453125,-11.44
17:38:41.468750,-15.03
17:38:41.484375,-18.36
17:38:41.500000,-21.38
17:38:41.515625,-24.20
17:38:41.531250,-27.01
17:38:41.546875,-30.09
17:38:41.562500,-33.62
17:38:41.578125,-37.67
17:38:41.593750,-42.12
17:38:41.609375,-46.72
17:38:41.625000,-51.04
17:38:41.640625,-54.60
17:38:41.656250,-56.89
17:38:41.671875,-57.53
17:38:41.687500,-56.32
17:38:41.703125,-53.22
17:38:41.718750,-48.39
17:38:41.734375,-42.15
17:38:41.750000,-34.92
17:38:41.765625,-27.20
17:38:41.781250,-19.46
17:38:41.796875,-12.06
17:38:41.812500,-5.17
17:38:41.828125,1.18
17:38:41.843750,7.03
17:38:41.859375,12.35
17:38:41.875000,17.10
17:38:41.890625,21.19
17:38:41.906250,24.64
17:38:41.921875,27.57
17:38:41.937500,30.16
17:38:41.953125,32.52
17:38:41.968750,34.58
17:38:41.984375,36.15
17:38:42,36.97
17:38:42.015625,36.88
17:38:42.031250,35.89
17:38:42.046875,34.18
17:38:42.062500,31.99
17:38:42.078125,29.54
17:38:42.093750,26.99
17:38:42.109375,24.36
17:38:42.125000,21.59
17:38:42.140625,18.58
17:38:42.156250,15.24
17:38:42.171875,11.56
17:38:42.187500,7.66
17:38:42.203125,3.76
17:38:42.218750,0.09
17:38:42.234375,-3.15
17:38:42.250000,-5.91
17:38:42.265625,-8.25
17:38:42.281250,-10.36
17:38:42.296875,-12.45
17:38:42.312500,-14.68
17:38:42.328125,-17.06
17:38:42.343750,-19.44
17:38:42.359375,-21.56
17:38:42.375000,-23.15
17:38:42.390625,-24.12
17:38:42.406250,-24.56
17:38:42.421875,-24.79
17:38:42.437500,-25.18
17:38:42.453125,-26.07
17:38:42.468750,-27.69
17:38:42.484375,-30.09
17:38:42.500000,-33.18
17:38:42.515625,-36.72
17:38:42.531250,-40.30
17:38:42.546875,-43.38
17:38:42.562500,-45.32
17:38:42.578125,-45.57
17:38:42.593750,-43.80
17:38:42.609375,-40.02
17:38:42.625000,-34.59
17:38:42.640625,-28.08
17:38:42.656250,-21.03
17:38:42.671875,-13.83
17:38:42.687500,-6.66
17:38:42.703125,0.43
17:38:42.718750,7.35
17:38:42.734375,13.90
17:38:42.750000,19.73
17:38:42.765625,24.46
17:38:42.781250,27.88
17:38:42.796875,30.03
17:38:42.812500,31.22
17:38:42.828125,31.96
17:38:42.843750,32.72
17:38:42.859375,33.91
17:38:42.875000,35.74
17:38:42.890625,38.27
17:38:42.906250,41.45
17:38:42.921875,45.10
17:38:42.937500,48.92
17:38:42.953125,52.46
17:38:42.968750,55.22
17:38:42.984375,56.74
17:38:43,56.75
17:38:43.015625,55.23
17:38:43.031250,52.43
17:38:43.046875,48.72
17:38:43.062500,44.44
17:38:43.078125,39.85
17:38:43.093750,35.01
17:38:43.109375,29.92
17:38:43.125000,24.61
17:38:43.140625,19.16
17:38:43.156250,13.80
17:38:43.171875,8.81
17:38:43.187500,4.44
17:38:43.203125,0.80
17:38:43.218750,-2.16
17:38:43.234375,-4.64
17:38:43.250000,-6.89
17:38:43.265625,-9.11
17:38:43.281250,-11.46
17:38:43.296875,-13.92
17:38:43.312500,-16.44
17:38:43.328125,-18.90
17:38:43.343750,-21.21
17:38:43.359375,-23.36
17:38:43.375000,-25.42
17:38:43.390625,-27.50
17:38:43.406250,-29.73
17:38:43.421875,-32.20
17:38:43.437500,-35.01
17:38:43.453125,-38.14
17:38:43.468750,-41.49
17:38:43.484375,-44.77
17:38:43.500000,-47.54
17:38:43.515625,-49.32
17:38:43.531250,-49.66
17:38:43.546875,-48.38
17:38:43.562500,-45.55
17:38:43.578125,-41.50
17:38:43.593750,-36.69
17:38:43.609375,-31.55
17:38:43.625000,-26.44
17:38:43.640625,-21.58
17:38:43.656250,-17.17
17:38:43.671875,-13.44
17:38:43.687500,-10.58
17:38:43.703125,-8.68
17:38:43.718750,-7.69
17:38:43.734375,-7.49
17:38:43.750000,-7.94
17:38:43.765625,-9.00
17:38:43.781250,-10.63
17:38:43.796875,-12.79
17:38:43.812500,-15.26
17:38:43.828125,-17.77
17:38:43.843750,-19.96
17:38:43.859375,-21.56
17:38:43.875000,-22.39
17:38:43.890625,-22.36
17:38:43.906250,-21.41
17:38:43.921875,-19.48
17:38:43.937500,-16.63
17:38:43.953125,-13.15
17:38:43.968750,-9.62
17:38:43.984375,-6.78
17:38:44,-5.27
17:38:44.015625,-5.30
17:38:44.031250,-6.58
17:38:44.046875,-8.38
17:38:44.062500,-9.83
17:38:44.078125,-10.32
17:38:44.093750,-9.68
17:38:44.109375,-8.20
17:38:44.125000,-6.43
17:38:44.140625,-4.90
17:38:44.156250,-3.85
17:38:44.171875,-3.16
17:38:44.187500,-2.54
17:38:44.203125,-1.66
17:38:44.218750,-0.42
17:38:44.234375,0.99
17:38:44.250000,2.17
17:38:44.265625,2.67
17:38:44.281250,2.23
17:38:44.296875,0.90
17:38:44.312500,-1.10
17:38:44.328125,-3.48
17:38:44.343750,-6.11
17:38:44.359375,-9.04
17:38:44.375000,-12.31
17:38:44.390625,-15.73
17:38:44.406250,-18.76
17:38:44.421875,-20.63
17:38:44.437500,-20.61
17:38:44.453125,-18.40
17:38:44.468750,-14.32
17:38:44.484375,-9.18
17:38:44.500000,-4.03
17:38:44.515625,0.36
17:38:44.531250,3.83
17:38:44.546875,6.66
17:38:44.562500,9.31
17:38:44.578125,12.06
17:38:44.593750,14.74
17:38:44.609375,17.06
17:38:44.625000,18.64
17:38:44.640625,19.15
17:38:44.656250,18.49
17:38:44.671875,17.07
17:38:44.687500,15.51
17:38:44.703125,14.43
17:38:44.718750,14.28
17:38:44.734375,15.04
17:38:44.750000,16.50
17:38:44.765625,18.16
17:38:44.781250,19.34
17:38:44.796875,19.44
17:38:44.812500,18.53
17:38:44.828125,17.10
17:38:44.843750,15.88
17:38:44.859375,15.59
17:38:44.875000,16.33
17:38:44.890625,18.09
17:38:44.906250,20.48
17:38:44.921875,22.74
17:38:44.937500,23.93
17:38:44.953125,24.27
17:38:44.968750,24.32
17:38:44.984375,24.74
17:38:45,26.49
17:38:45.015625,30.21
17:38:45.031250,38.21
17:38:45.046875,52.66
17:38:45.062500,73.91
17:38:45.078125,100.12
17:38:45.093750,129.70
17:38:45.109375,160.20
17:38:45.125000,188.91
17:38:45.140625,213.13
17:38:45.156250,228.80
17:38:45.171875,235.19
17:38:45.187500,233.65
17:38:45.203125,226.85
17:38:45.218750,218.64
17:38:45.234375,216.02
17:38:45.250000,223.88
17:38:45.265625,243.49
17:38:45.281250,272.45
17:38:45.296875,304.16
17:38:45.312500,336.95
17:38:45.328125,371.67
17:38:45.343750,408.60
17:38:45.359375,445.57
17:38:45.375000,481.02
17:38:45.390625,510.91
17:38:45.406250,531.21
17:38:45.421875,540.21
17:38:45.437500,536.05
17:38:45.453125,524.64
17:38:45.468750,513.40
17:38:45.484375,506.55
17:38:45.500000,477.06
17:38:45.515625,407.10
17:38:45.531250,294.05
17:38:45.546875,154.47
17:38:45.562500,35.42
17:38:45.578125,-55.89
17:38:45.593750,-124.97
17:38:45.609375,-179.44
17:38:45.625000,-228.19
17:38:45.640625,-270.36
17:38:45.656250,-296.56
17:38:45.671875,-298.31
17:38:45.687500,-273.48
17:38:45.703125,-229.23
17:38:45.718750,-185.55
17:38:45.734375,-158.23
17:38:45.750000,-155.94
17:38:45.765625,-178.56
17:38:45.781250,-217.95
17:38:45.796875,-260.63
17:38:45.812500,-296.42
17:38:45.828125,-321.83
17:38:45.843750,-339.46
17:38:45.859375,-360.10
17:38:45.875000,-387.99
17:38:45.890625,-420.93
17:38:45.906250,-453.17
17:38:45.921875,-479.09
17:38:45.937500,-496.00
17:38:45.953125,-506.54
17:38:45.968750,-516.70
17:38:45.984375,-532.24
17:38:46,-562.20
17:38:46.015625,-609.08
17:38:46.031250,-670.69
17:38:46.046875,-743.05
17:38:46.062500,-822.07
17:38:46.078125,-904.15
17:38:46.093750,-985.70
17:38:46.109375,-1061.25
17:38:46.125000,-1092.72
17:38:46.140625,-1051.97
17:38:46.156250,-929.18
17:38:46.171875,-741.95
17:38:46.187500,-527.43
17:38:46.203125,-323.01
17:38:46.218750,-152.63
17:38:46.234375,-23.11
17:38:46.250000,70.85
17:38:46.265625,139.70
17:38:46.281250,187.91
17:38:46.296875,215.87
17:38:46.312500,225.29
17:38:46.328125,219.08
17:38:46.343750,202.93
17:38:46.359375,183.59
17:38:46.375000,167.77
17:38:46.390625,159.72
17:38:46.406250,160.78
17:38:46.421875,165.94
17:38:46.437500,169.00
17:38:46.453125,165.96
17:38:46.468750,155.30
17:38:46.484375,139.89
17:38:46.500000,124.35
17:38:46.515625,114.30
17:38:46.531250,113.45
17:38:46.546875,122.94
17:38:46.562500,139.00
17:38:46.578125,156.35
17:38:46.593750,170.75
17:38:46.609375,180.58
17:38:46.625000,187.44
17:38:46.640625,194.57
17:38:46.656250,207.28
17:38:46.671875,229.85
17:38:46.687500,264.63
17:38:46.703125,310.22
17:38:46.718750,363.24
17:38:46.734375,420.06
17:38:46.750000,478.14
17:38:46.765625,536.92
17:38:46.781250,583.15
17:38:46.796875,605.70
17:38:46.812500,597.04
17:38:46.828125,557.04
17:38:46.843750,492.54
17:38:46.859375,414.04
17:38:46.875000,331.28
17:38:46.890625,251.02
17:38:46.906250,177.28
17:38:46.921875,111.96
17:38:46.937500,57.82
17:38:46.953125,16.63
17:38:46.968750,-11.31
17:38:46.984375,-27.73
17:38:47,-36.17
17:38:47.015625,-40.76
17:38:47.031250,-44.88
17:38:47.046875,-50.44
17:38:47.062500,-57.87
17:38:47.078125,-65.07
17:38:47.093750,-69.76
17:38:47.109375,-70.24
17:38:47.125000,-65.88
17:38:47.140625,-57.23
17:38:47.156250,-45.93
17:38:47.171875,-34.80
17:38:47.187500,-27.69
17:38:47.203125,-28.72
17:38:47.218750,-39.67
17:38:47.234375,-59.37
17:38:47.250000,-83.54
17:38:47.265625,-106.40
17:38:47.281250,-123.06
17:38:47.296875,-131.48
17:38:47.312500,-132.75
17:38:47.328125,-129.75
17:38:47.343750,-125.12
17:38:47.359375,-119.47
17:38:47.375000,-111.94
17:38:47.390625,-101.46
17:38:47.406250,-88.17
17:38:47.421875,-73.76
17:38:47.437500,-60.68
17:38:47.453125,-50.88
17:38:47.468750,-44.94
17:38:47.484375,-42.13
17:38:47.500000,-40.86
17:38:47.515625,-39.35
17:38:47.531250,-36.75
17:38:47.546875,-33.00
17:38:47.562500,-28.85
17:38:47.578125,-25.62
17:38:47.593750,-24.58
17:38:47.609375,-26.35
17:38:47.625000,-30.50
17:38:47.640625,-35.65
17:38:47.656250,-40.11
17:38:47.671875,-42.76
17:38:47.687500,-43.38
17:38:47.703125,-42.57
17:38:47.718750,-41.16
17:38:47.734375,-39.61
17:38:47.750000,-37.77
17:38:47.765625,-35.23
17:38:47.781250,-31.78
17:38:47.796875,-27.81
17:38:47.812500,-24.13
17:38:47.828125,-21.63
17:38:47.843750,-20.76
17:38:47.859375,-21.42
17:38:47.875000,-23.02
17:38:47.890625,-24.69
17:38:47.906250,-25.57
17:38:47.921875,-25.15
17:38:47.937500,-23.34
17:38:47.953125,-20.54
17:38:47.968750,-17.38
17:38:47.984375,-14.47
17:38:48,-12.15
17:38:48.015625,-10.38
17:38:48.031250,-8.81
17:38:48.046875,-7.17
17:38:48.062500,-5.38
17:38:48.078125,-3.75
17:38:48.093750,-2.68
17:38:48.109375,-2.44
17:38:48.125000,-2.96
17:38:48.140625,-3.89
17:38:48.156250,-4.82
17:38:48.171875,-5.54
17:38:48.187500,-6.15
17:38:48.203125,-7.02
17:38:48.218750,-8.54
17:38:48.234375,-10.89
17:38:48.250000,-14.04
17:38:48.265625,-17.63
17:38:48.281250,-21.12
17:38:48.296875,-24.00
17:38:48.312500,-25.91
17:38:48.328125,-26.70
17:38:48.343750,-26.40
17:38:48.359375,-25.10
17:38:48.375000,-22.97
17:38:48.390625,-20.17
17:38:48.406250,-16.98
17:38:48.421875,-13.71
17:38:48.437500,-10.71
17:38:48.453125,-8.28
17:38:48.468750,-6.62
17:38:48.484375,-5.72
17:38:48.500000,-5.46
17:38:48.515625,-5.67
17:38:48.531250,-6.25
17:38:48.546875,-7.19
17:38:48.562500,-8.52
17:38:48.578125,-10.31
17:38:48.593750,-12.57
17:38:48.609375,-15.21
17:38:48.625000,-17.98
17:38:48.640625,-20.54
17:38:48.656250,-22.48
17:38:48.671875,-23.43
17:38:48.687500,-23.13
17:38:48.703125,-21.56
17:38:48.718750,-18.92
17:38:48.734375,-15.65
17:38:48.750000,-12.22
17:38:48.765625,-9.11
17:38:48.781250,-6.61
17:38:48.796875,-4.82
17:38:48.812500,-3.60
17:38:48.828125,-2.70
17:38:48.843750,-1.86
17:38:48.859375,-0.91
17:38:48.875000,0.27
17:38:48.890625,1.80
17:38:48.906250,3.80
17:38:48.921875,6.45
17:38:48.937500,9.80
17:38:48.953125,13.80
17:38:48.968750,18.18
17:38:48.984375,22.59
17:38:49,26.67
17:38:49.015625,30.17
17:38:49.031250,32.99
17:38:49.046875,35.08
17:38:49.062500,36.43
17:38:49.078125,36.98
17:38:49.093750,36.67
17:38:49.109375,35.47
17:38:49.125000,33.47
17:38:49.140625,30.83
17:38:49.156250,27.83
17:38:49.171875,24.71
17:38:49.187500,21.69
17:38:49.203125,18.85
17:38:49.218750,16.25
17:38:49.234375,13.78
17:38:49.250000,11.36
17:38:49.265625,8.85
17:38:49.281250,6.16
17:38:49.296875,3.23
17:38:49.312500,0.09
17:38:49.328125,-3.17
17:38:49.343750,-6.33
17:38:49.359375,-9.11
17:38:49.375000,-11.23
17:38:49.390625,-12.45
17:38:49.406250,-12.68
17:38:49.421875,-11.97
17:38:49.437500,-10.48
17:38:49.453125,-8.39
17:38:49.468750,-5.84
17:38:49.484375,-2.91
17:38:49.500000,0.37
17:38:49.515625,3.90
17:38:49.531250,7.45
17:38:49.546875,10.74
17:38:49.562500,13.46
17:38:49.578125,15.49
17:38:49.593750,16.81
17:38:49.609375,17.55
17:38:49.625000,17.84
17:38:49.640625,17.79
17:38:49.656250,17.46
17:38:49.671875,16.90
17:38:49.687500,16.21
17:38:49.703125,15.51
17:38:49.718750,14.93
17:38:49.734375,14.54
17:38:49.750000,14.30
17:38:49.765625,14.12
17:38:49.781250,13.87
17:38:49.796875,13.44
17:38:49.812500,12.81
17:38:49.828125,11.99
17:38:49.843750,11.01
17:38:49.859375,9.85
17:38:49.875000,8.49
17:38:49.890625,6.90
17:38:49.906250,5.11
17:38:49.921875,3.18
17:38:49.937500,1.22
17:38:49.953125,-0.64
17:38:49.968750,-2.34
17:38:49.984375,-3.91
17:38:50,-5.53
17:38:50.015625,-7.44
17:38:50.031250,-9.84
17:38:50.046875,-12.75
17:38:50.062500,-16.05
17:38:50.078125,-19.44
17:38:50.093750,-22.54
17:38:50.109375,-24.98
17:38:50.125000,-26.43
17:38:50.140625,-26.69
17:38:50.156250,-25.68
17:38:50.171875,-23.48
17:38:50.187500,-20.26
17:38:50.203125,-16.30
17:38:50.218750,-11.89
17:38:50.234375,-7.32
17:38:50.250000,-2.85
17:38:50.265625,1.29
17:38:50.281250,4.82
17:38:50.296875,7.50
17:38:50.312500,9.16
17:38:50.328125,9.76
17:38:50.343750,9.46
17:38:50.359375,8.49
17:38:50.375000,7.14
17:38:50.390625,5.57
17:38:50.406250,3.93
17:38:50.421875,2.30
17:38:50.437500,0.77
17:38:50.453125,-0.59
17:38:50.468750,-1.73
17:38:50.484375,-2.78
17:38:50.500000,-3.96
17:38:50.515625,-5.53
17:38:50.531250,-7.62
17:38:50.546875,-10.13
17:38:50.562500,-12.77
17:38:50.578125,-15.15
17:38:50.593750,-16.96
17:38:50.609375,-18.03
17:38:50.625000,-18.34
17:38:50.640625,-17.97
17:38:50.656250,-17.01
17:38:50.671875,-15.55
17:38:50.687500,-13.70
17:38:50.703125,-11.56
17:38:50.718750,-9.23
17:38:50.734375,-6.83
17:38:50.750000,-4.44
17:38:50.765625,-2.20
17:38:50.781250,-0.22
17:38:50.796875,1.41
17:38:50.812500,2.73
17:38:50.828125,3.96
17:38:50.843750,5.40
17:38:50.859375,7.34
17:38:50.875000,9.89
17:38:50.890625,12.92
17:38:50.906250,16.12
17:38:50.921875,19.16
17:38:50.937500,21.86
17:38:50.953125,24.22
17:38:50.968750,26.37
17:38:50.984375,28.39
17:38:51,30.19
17:38:51.015625,31.58
17:38:51.031250,32.30
17:38:51.046875,32.20
17:38:51.062500,31.34
17:38:51.078125,29.91
17:38:51.093750,28.23
17:38:51.109375,26.57
17:38:51.125000,25.09
17:38:51.140625,23.79
17:38:51.156250,22.54
17:38:51.171875,21.21
17:38:51.187500,19.75
17:38:51.203125,18.23
17:38:51.218750,16.77
17:38:51.234375,15.52
17:38:51.250000,14.52
17:38:51.265625,13.75
17:38:51.281250,13.16
17:38:51.296875,12.73
17:38:51.312500,12.43
17:38:51.328125,12.17
17:38:51.343750,11.78
17:38:51.359375,10.97
17:38:51.375000,9.51
17:38:51.390625,7.30
17:38:51.406250,4.51
17:38:51.421875,1.54
17:38:51.437500,-1.19
17:38:51.453125,-3.38
17:38:51.468750,-4.97
17:38:51.484375,-6.06
17:38:51.500000,-6.88
17:38:51.515625,-7.65
17:38:51.531250,-8.55
17:38:51.546875,-9.68
17:38:51.562500,-11.07
17:38:51.578125,-12.65
17:38:51.593750,-14.24
17:38:51.609375,-15.54
17:38:51.625000,-16.23
17:38:51.640625,-16.03
17:38:51.656250,-14.83
17:38:51.671875,-12.68
17:38:51.687500,-9.81
17:38:51.703125,-6.54
17:38:51.718750,-3.14
17:38:51.734375,0.17
17:38:51.750000,3.29
17:38:51.765625,6.14
17:38:51.781250,8.64
17:38:51.796875,10.68
17:38:51.812500,12.16
17:38:51.828125,12.97
17:38:51.843750,13.12
17:38:51.859375,12.72
17:38:51.875000,11.99
17:38:51.890625,11.19
17:38:51.906250,10.46
17:38:51.921875,9.81
17:38:51.937500,9.21
17:38:51.953125,8.65
17:38:51.968750,8.22
17:38:51.984375,8.03
17:38:52,8.15
17:38:52.015625,8.50
17:38:52.031250,8.89
17:38:52.046875,9.03
17:38:52.062500,8.71
17:38:52.078125,7.95
17:38:52.093750,6.91
17:38:52.109375,5.84
17:38:52.125000,4.94
17:38:52.140625,4.23
17:38:52.156250,3.60
17:38:52.171875,2.93
17:38:52.187500,2.16
17:38:52.203125,1.30
17:38:52.218750,0.40
17:38:52.234375,-0.54
17:38:52.250000,-1.52
17:38:52.265625,-2.55
17:38:52.281250,-3.60
17:38:52.296875,-4.57
17:38:52.312500,-5.39
17:38:52.328125,-6.07
17:38:52.343750,-6.74
17:38:52.359375,-7.62
17:38:52.375000,-8.84
17:38:52.390625,-10.42
17:38:52.406250,-12.20
17:38:52.421875,-13.99
17:38:52.437500,-15.61
17:38:52.453125,-16.96
17:38:52.468750,-17.94
17:38:52.484375,-18.39
17:38:52.500000,-18.10
17:38:52.515625,-16.86
17:38:52.531250,-14.61
17:38:52.546875,-11.53
17:38:52.562500,-7.99
17:38:52.578125,-4.43
17:38:52.593750,-1.19
17:38:52.609375,1.62
17:38:52.625000,4.07
17:38:52.640625,6.27
17:38:52.656250,8.23
17:38:52.671875,9.86
17:38:52.687500,11.02
17:38:52.703125,11.61
17:38:52.718750,11.66
17:38:52.734375,11.33
17:38:52.750000,10.84
17:38:52.765625,10.38
17:38:52.781250,10.03
17:38:52.796875,9.81
17:38:52.812500,9.68
17:38:52.828125,9.59
17:38:52.843750,9.51
17:38:52.859375,9.47
17:38:52.875000,9.47
17:38:52.890625,9.51
17:38:52.906250,9.52
17:38:52.921875,9.42
17:38:52.937500,9.18
17:38:52.953125,8.83
17:38:52.968750,8.49
17:38:52.984375,8.24
17:38:53,8.11
17:38:53.015625,7.97
17:38:53.031250,7.66
17:38:53.046875,7.00
17:38:53.062500,5.96
17:38:53.078125,4.66
17:38:53.093750,3.34
