10:02:31,-0.00
10:02:31.015625,-0.00
10:02:31.031250,-0.00
10:02:31.046875,-0.00
10:02:31.062500,-0.00
10:02:31.078125,-0.00
10:02:31.093750,-0.00
10:02:31.109375,-0.00
10:02:31.125000,-0.00
10:02:31.140625,-0.00
10:02:31.156250,0.00
10:02:31.171875,0.01
10:02:31.187500,0.01
10:02:31.203125,-0.00
10:02:31.218750,-0.03
10:02:31.234375,-0.05
10:02:31.250000,-0.05
10:02:31.265625,0.00
10:02:31.281250,0.13
10:02:31.296875,0.36
10:02:31.312500,0.66
10:02:31.328125,1.01
10:02:31.343750,1.37
10:02:31.359375,1.72
10:02:31.375000,2.06
10:02:31.390625,2.40
10:02:31.406250,2.79
10:02:31.421875,3.24
10:02:31.437500,3.80
10:02:31.453125,4.42
10:02:31.468750,5.06
10:02:31.484375,5.66
10:02:31.500000,6.20
10:02:31.515625,6.68
10:02:31.531250,7.15
10:02:31.546875,7.68
10:02:31.562500,8.31
10:02:31.578125,9.14
10:02:31.593750,10.09
10:02:31.609375,11.04
10:02:31.625000,11.88
10:02:31.640625,12.56
10:02:31.656250,13.14
10:02:31.671875,13.76
10:02:31.687500,14.65
10:02:31.703125,15.96
10:02:31.718750,17.91
10:02:31.734375,20.32
10:02:31.750000,22.90
10:02:31.765625,25.38
10:02:31.781250,27.58
10:02:31.796875,29.57
10:02:31.812500,31.68
10:02:31.828125,34.32
10:02:31.843750,37.81
10:02:31.859375,42.54
10:02:31.875000,48.15
10:02:31.890625,54.10
10:02:31.906250,59.83
10:02:31.921875,64.97
10:02:31.937500,69.58
10:02:31.953125,74.14
10:02:31.968750,79.34
10:02:31.984375,85.71
10:02:32,93.76
10:02:32.015625,103.00
10:02:32.031250,112.62
10:02:32.046875,121.73
10:02:32.062500,129.77
10:02:32.078125,136.75
10:02:32.093750,143.30
10:02:32.109375,150.75
10:02:32.125000,157.77
10:02:32.140625,166.64
10:02:32.156250,177.95
10:02:32.171875,191.79
10:02:32.187500,206.97
10:02:32.203125,220.57
10:02:32.218750,228.25
10:02:32.234375,225.36
10:02:32.250000,208.53
10:02:32.265625,176.87
10:02:32.281250,132.76
10:02:32.296875,80.05
10:02:32.312500,23.07
10:02:32.328125,-34.94
10:02:32.343750,-92.44
10:02:32.359375,-149.16
10:02:32.375000,-205.23
10:02:32.390625,-260.37
10:02:32.406250,-313.74
10:02:32.421875,-363.87
10:02:32.437500,-409.83
10:02:32.453125,-450.91
10:02:32.468750,-486.50
10:02:32.484375,-515.74
10:02:32.500000,-537.23
10:02:32.515625,-549.22
10:02:32.531250,-549.96
10:02:32.546875,-538.37
10:02:32.562500,-514.21
10:02:32.578125,-478.67
10:02:32.593750,-433.88
10:02:32.609375,-382.45
10:02:32.625000,-327.02
10:02:32.640625,-269.84
10:02:32.656250,-212.63
10:02:32.671875,-156.66
10:02:32.687500,-102.96
10:02:32.703125,-52.38
10:02:32.718750,-5.91
10:02:32.734375,35.59
10:02:32.750000,71.46
10:02:32.765625,101.40
10:02:32.781250,125.54
10:02:32.796875,144.37
10:02:32.812500,158.60
10:02:32.828125,168.93
10:02:32.843750,176.02
10:02:32.859375,180.30
10:02:32.875000,182.08
10:02:32.890625,181.58
10:02:32.906250,179.06
10:02:32.921875,174.83
10:02:32.937500,169.24
10:02:32.953125,162.70
10:02:32.968750,155.55
10:02:32.984375,148.09
10:02:33,140.49
10:02:33.015625,132.86
10:02:33.031250,125.24
10:02:33.046875,117.63
10:02:33.062500,110.02
10:02:33.078125,102.41
10:02:33.093750,94.86
10:02:33.109375,87.44
10:02:33.125000,80.27
10:02:33.140625,73.47
10:02:33.156250,67.13
10:02:33.171875,61.25
10:02:33.187500,55.73
10:02:33.203125,50.41
10:02:33.218750,45.13
10:02:33.234375,39.82
10:02:33.250000,34.56
10:02:33.265625,29.57
10:02:33.281250,25.11
10:02:33.296875,21.37
10:02:33.312500,18.33
10:02:33.328125,15.77
10:02:33.343750,13.27
10:02:33.359375,10.48
10:02:33.375000,7.23
10:02:33.390625,3.66
10:02:33.406250,0.22
10:02:33.421875,-2.57
10:02:33.437500,-4.33
10:02:33.453125,-5.08
10:02:33.468750,-5.25
10:02:33.484375,-5.54
10:02:33.500000,-6.59
10:02:33.515625,-8.70
10:02:33.531250,-11.64
10:02:33.546875,-14.71
10:02:33.562500,-17.12
10:02:33.578125,-18.30
10:02:33.593750,-18.19
10:02:33.609375,-17.33
10:02:33.625000,-16.45
10:02:33.640625,-16.35
10:02:33.656250,-17.57
10:02:33.671875,-20.36
10:02:33.687500,-24.61
10:02:33.703125,-29.71
10:02:33.718750,-34.31
10:02:33.734375,-36.35
10:02:33.750000,-33.50
10:02:33.765625,-24.16
10:02:33.781250,-8.52
10:02:33.796875,11.06
10:02:33.812500,30.54
10:02:33.828125,45.73
10:02:33.843750,53.96
10:02:33.859375,55.04
10:02:33.875000,50.97
10:02:33.890625,44.71
10:02:33.906250,38.63
10:02:33.921875,33.68
10:02:33.937500,29.56
10:02:33.953125,25.59
10:02:33.968750,21.53
10:02:33.984375,17.88
10:02:34,15.49
10:02:34.015625,14.80
10:02:34.031250,15.45
10:02:34.046875,16.46
10:02:34.062500,16.63
10:02:34.078125,15.30
10:02:34.093750,12.69
10:02:34.109375,9.57
10:02:34.125000,6.99
10:02:34.140625,5.66
10:02:34.156250,5.65
10:02:34.171875,6.42
10:02:34.187500,7.17
10:02:34.203125,7.17
10:02:34.218750,6.16
10:02:34.234375,4.37
10:02:34.250000,2.39
10:02:34.265625,0.83
10:02:34.281250,0.07
10:02:34.296875,0.12
10:02:34.312500,0.65
10:02:34.328125,1.25
10:02:34.343750,1.58
10:02:34.359375,1.54
10:02:34.375000,1.26
10:02:34.390625,0.98
10:02:34.406250,0.93
10:02:34.421875,1.21
10:02:34.437500,1.79
10:02:34.453125,2.56
10:02:34.468750,3.44
10:02:34.484375,4.37
10:02:34.500000,5.35
10:02:34.515625,6.39
10:02:34.531250,7.48
10:02:34.546875,8.66
10:02:34.562500,9.94
10:02:34.578125,11.34
10:02:34.593750,12.77
10:02:34.609375,14.14
10:02:34.625000,15.20
10:02:34.640625,15.73
10:02:34.656250,15.51
10:02:34.671875,14.46
10:02:34.687500,12.64
10:02:34.703125,10.20
10:02:34.718750,7.41
10:02:34.734375,4.27
10:02:34.750000,0.86
10:02:34.765625,-2.76
10:02:34.781250,-6.40
10:02:34.796875,-9.73
10:02:34.812500,-12.37
10:02:34.828125,-13.97
10:02:34.843750,-14.38
10:02:34.859375,-13.69
10:02:34.875000,-12.26
10:02:34.890625,-10.59
10:02:34.906250,-9.13
10:02:34.921875,-8.18
10:02:34.937500,-7.84
10:02:34.953125,-7.98
10:02:34.968750,-8.37
10:02:34.984375,-8.77
10:02:35,-9.01
10:02:35.015625,-9.02
10:02:35.031250,-8.83
10:02:35.046875,-8.51
10:02:35.062500,-8.18
10:02:35.078125,-7.92
10:02:35.093750,-7.74
10:02:35.109375,-7.56
10:02:35.125000,-7.25
10:02:35.140625,-6.74
10:02:35.156250,-6.01
10:02:35.171875,-5.13
10:02:35.187500,-4.22
10:02:35.203125,-3.35
10:02:35.218750,-2.60
10:02:35.234375,-1.97
10:02:35.250000,-1.50
10:02:35.265625,-1.25
10:02:35.281250,-1.29
10:02:35.296875,-1.61
10:02:35.312500,-2.13
10:02:35.328125,-2.62
10:02:35.343750,-2.89
10:02:35.359375,-2.83
10:02:35.375000,-2.44
10:02:35.390625,-1.88
10:02:35.406250,-1.33
10:02:35.421875,-0.94
10:02:35.437500,-0.74
10:02:35.453125,-0.73
10:02:35.468750,-0.79
10:02:35.484375,-0.81
10:02:35.500000,-0.70
10:02:35.515625,-0.44
10:02:35.531250,-0.11
10:02:35.546875,0.15
10:02:35.562500,0.19
10:02:35.578125,0.00
10:02:35.593750,-0.36
10:02:35.609375,-0.77
10:02:35.625000,-1.10
10:02:35.640625,-1.35
10:02:35.656250,-1.65
10:02:35.671875,-2.16
10:02:35.687500,-3.02
10:02:35.703125,-4.25
10:02:35.718750,-5.64
10:02:35.734375,-6.97
10:02:35.750000,-8.10
10:02:35.765625,-8.99
10:02:35.781250,-9.75
10:02:35.796875,-10.54
10:02:35.812500,-11.56
10:02:35.828125,-12.87
10:02:35.843750,-14.48
10:02:35.859375,-16.22
10:02:35.875000,-17.84
10:02:35.890625,-18.98
10:02:35.906250,-19.28
10:02:35.921875,-18.41
10:02:35.937500,-16.26
10:02:35.953125,-12.86
10:02:35.968750,-8.44
10:02:35.984375,-3.37
10:02:36,1.88
10:02:36.015625,6.82
10:02:36.031250,11.01
10:02:36.046875,14.17
10:02:36.062500,16.22
10:02:36.078125,17.22
10:02:36.093750,17.42
10:02:36.109375,17.06
10:02:36.125000,16.36
10:02:36.140625,15.48
10:02:36.156250,14.53
10:02:36.171875,13.59
10:02:36.187500,12.77
10:02:36.203125,12.16
10:02:36.218750,11.82
10:02:36.234375,11.75
10:02:36.250000,11.93
10:02:36.265625,12.34
10:02:36.281250,12.94
10:02:36.296875,13.68
10:02:36.312500,14.43
10:02:36.328125,15.01
10:02:36.343750,15.24
10:02:36.359375,15.01
10:02:36.375000,14.29
10:02:36.390625,13.20
10:02:36.406250,11.92
10:02:36.421875,10.60
10:02:36.437500,9.33
10:02:36.453125,8.12
10:02:36.468750,6.91
10:02:36.484375,5.65
10:02:36.500000,4.36
10:02:36.515625,3.10
10:02:36.531250,1.99
10:02:36.546875,1.12
10:02:36.562500,0.53
10:02:36.578125,0.13
10:02:36.593750,-0.20
10:02:36.609375,-0.60
10:02:36.625000,-1.10
10:02:36.640625,-1.69
10:02:36.656250,-2.34
10:02:36.671875,-3.10
10:02:36.687500,-4.04
10:02:36.703125,-5.20
10:02:36.718750,-6.56
10:02:36.734375,-7.96
10:02:36.750000,-9.24
10:02:36.765625,-10.27
10:02:36.781250,-11.07
10:02:36.796875,-11.81
10:02:36.812500,-12.65
10:02:36.828125,-13.73
10:02:36.843750,-15.03
10:02:36.859375,-16.47
10:02:36.875000,-17.97
10:02:36.890625,-19.55
10:02:36.906250,-21.27
10:02:36.921875,-23.21
10:02:36.937500,-25.26
10:02:36.953125,-27.14
10:02:36.968750,-28.39
10:02:36.984375,-28.53
10:02:37,-27.26
10:02:37.015625,-24.55
10:02:37.031250,-20.62
10:02:37.046875,-15.88
10:02:37.062500,-10.81
10:02:37.078125,-5.83
10:02:37.093750,-1.24
10:02:37.109375,2.76
10:02:37.125000,6.05
10:02:37.140625,8.61
10:02:37.156250,10.49
10:02:37.171875,11.77
10:02:37.187500,12.57
10:02:37.203125,12.94
10:02:37.218750,12.89
10:02:37.234375,12.42
10:02:37.250000,11.61
10:02:37.265625,10.62
10:02:37.281250,9.72
10:02:37.296875,9.15
10:02:37.312500,9.02
10:02:37.328125,9.32
10:02:37.343750,9.94
10:02:37.359375,10.74
10:02:37.375000,11.60
10:02:37.390625,12.47
10:02:37.406250,13.28
10:02:37.421875,13.96
10:02:37.437500,14.40
10:02:37.453125,14.51
10:02:37.468750,14.20
10:02:37.484375,13.47
10:02:37.500000,12.43
10:02:37.515625,11.20
10:02:37.531250,9.95
10:02:37.546875,8.76
10:02:37.562500,7.63
10:02:37.578125,6.51
10:02:37.593750,5.35
10:02:37.609375,4.17
10:02:37.625000,3.05
10:02:37.640625,2.12
10:02:37.656250,1.45
10:02:37.671875,1.05
10:02:37.687500,0.82
10:02:37.703125,0.61
10:02:37.718750,0.32
10:02:37.734375,-0.10
10:02:37.750000,-0.63
10:02:37.765625,-1.25
10:02:37.781250,-1.97
10:02:37.796875,-2.79
10:02:37.812500,-3.69
10:02:37.828125,-4.68
10:02:37.843750,-5.75
10:02:37.859375,-6.92
10:02:37.875000,-8.22
10:02:37.890625,-9.62
10:02:37.906250,-11.07
10:02:37.921875,-12.51
10:02:37.937500,-13.83
10:02:37.953125,-15.06
10:02:37.968750,-16.29
10:02:37.984375,-17.68
10:02:38,-19.36
10:02:38.015625,-21.38
10:02:38.031250,-23.62
10:02:38.046875,-25.82
10:02:38.062500,-27.64
10:02:38.078125,-28.69
10:02:38.093750,-28.64
10:02:38.109375,-27.24
10:02:38.125000,-24.45
10:02:38.140625,-20.45
10:02:38.156250,-15.64
10:02:38.171875,-10.51
10:02:38.187500,-5.56
10:02:38.203125,-1.10
10:02:38.218750,2.70
10:02:38.234375,5.81
10:02:38.250000,8.25
10:02:38.265625,10.01
10:02:38.281250,11.07
10:02:38.296875,11.43
10:02:38.312500,11.20
10:02:38.328125,10.61
10:02:38.343750,9.95
10:02:38.359375,9.48
10:02:38.375000,9.33
10:02:38.390625,9.50
10:02:38.406250,9.92
10:02:38.421875,10.47
10:02:38.437500,11.08
10:02:38.453125,11.76
10:02:38.468750,12.56
10:02:38.484375,13.49
10:02:38.500000,14.53
10:02:38.515625,15.53
10:02:38.531250,16.30
10:02:38.546875,16.65
10:02:38.562500,16.49
10:02:38.578125,15.85
10:02:38.593750,14.91
10:02:38.609375,13.88
10:02:38.625000,12.95
10:02:38.640625,12.20
10:02:38.656250,11.58
10:02:38.671875,10.95
10:02:38.687500,10.19
10:02:38.703125,9.23
10:02:38.718750,8.15
10:02:38.734375,7.07
10:02:38.750000,6.11
10:02:38.765625,5.35
10:02:38.781250,4.77
10:02:38.796875,4.29
10:02:38.812500,3.78
10:02:38.828125,3.16
10:02:38.843750,2.38
10:02:38.859375,1.47
10:02:38.875000,0.48
10:02:38.890625,-0.55
10:02:38.906250,-1.55
10:02:38.921875,-2.51
10:02:38.937500,-3.41
10:02:38.953125,-4.30
10:02:38.968750,-5.23
10:02:38.984375,-6.27
10:02:39,-7.42
10:02:39.015625,-8.71
10:02:39.031250,-10.10
10:02:39.046875,-11.58
10:02:39.062500,-13.14
10:02:39.078125,-14.78
10:02:39.093750,-16.50
10:02:39.109375,-18.34
10:02:39.125000,-20.37
10:02:39.140625,-22.66
10:02:39.156250,-25.23
10:02:39.171875,-27.94
10:02:39.187500,-30.44
10:02:39.203125,-32.21
10:02:39.218750,-32.69
10:02:39.234375,-31.49
10:02:39.250000,-28.52
10:02:39.265625,-24.05
10:02:39.281250,-18.60
10:02:39.296875,-12.80
10:02:39.312500,-7.17
10:02:39.328125,-2.05
10:02:39.343750,2.39
10:02:39.359375,6.10
10:02:39.375000,9.09
10:02:39.390625,11.34
10:02:39.406250,12.86
10:02:39.421875,13.67
10:02:39.437500,13.86
10:02:39.453125,13.59
10:02:39.468750,13.06
10:02:39.484375,12.51
10:02:39.500000,12.12
10:02:39.515625,11.98
10:02:39.531250,12.11
10:02:39.546875,12.46
10:02:39.562500,12.95
10:02:39.578125,13.50
10:02:39.593750,14.02
10:02:39.609375,14.47
10:02:39.625000,14.84
10:02:39.640625,15.13
10:02:39.656250,15.38
10:02:39.671875,15.61
10:02:39.687500,15.78
10:02:39.703125,15.81
10:02:39.718750,15.61
10:02:39.734375,15.11
10:02:39.750000,14.36
10:02:39.765625,13.43
10:02:39.781250,12.44
10:02:39.796875,11.42
10:02:39.812500,10.37
10:02:39.828125,9.21
10:02:39.843750,7.96
10:02:39.859375,6.69
10:02:39.875000,5.55
10:02:39.890625,4.66
10:02:39.906250,4.05
10:02:39.921875,3.59
10:02:39.937500,3.07
10:02:39.953125,2.34
10:02:39.968750,1.35
10:02:39.984375,0.19
10:02:40,-0.95
10:02:40.015625,-1.96
10:02:40.031250,-2.80
10:02:40.046875,-3.57
10:02:40.062500,-4.40
10:02:40.078125,-5.39
10:02:40.093750,-6.59
10:02:40.109375,-7.95
10:02:40.125000,-9.41
10:02:40.140625,-10.88
10:02:40.156250,-12.31
10:02:40.171875,-13.71
10:02:40.187500,-15.13
10:02:40.203125,-16.62
10:02:40.218750,-18.24
10:02:40.234375,-20.01
10:02:40.250000,-21.95
10:02:40.265625,-24.08
10:02:40.281250,-26.35
10:02:40.296875,-28.65
10:02:40.312500,-30.72
10:02:40.328125,-32.14
10:02:40.343750,-32.48
10:02:40.359375,-31.38
10:02:40.375000,-28.76
10:02:40.390625,-24.88
10:02:40.406250,-20.20
10:02:40.421875,-15.28
10:02:40.437500,-10.57
10:02:40.453125,-6.34
10:02:40.468750,-2.72
10:02:40.484375,0.21
10:02:40.500000,2.38
10:02:40.515625,3.80
10:02:40.531250,4.57
10:02:40.546875,4.94
10:02:40.562500,5.24
10:02:40.578125,5.73
10:02:40.593750,6.51
10:02:40.609375,7.52
10:02:40.625000,8.58
10:02:40.640625,9.58
10:02:40.656250,10.47
10:02:40.671875,11.34
10:02:40.687500,12.30
10:02:40.703125,13.40
10:02:40.718750,14.60
10:02:40.734375,15.78
10:02:40.750000,16.79
10:02:40.765625,17.46
10:02:40.781250,17.67
10:02:40.796875,17.33
10:02:40.812500,16.43
10:02:40.828125,15.07
10:02:40.843750,13.41
10:02:40.859375,11.66
10:02:40.875000,10.06
10:02:40.890625,8.77
10:02:40.906250,7.89
10:02:40.921875,7.54
10:02:40.937500,7.87
10:02:40.953125,9.10
10:02:40.968750,11.53
10:02:40.984375,15.41
10:02:41,20.87
10:02:41.015625,27.80
10:02:41.031250,35.76
10:02:41.046875,44.05
10:02:41.062500,51.75
10:02:41.078125,57.88
10:02:41.093750,61.56
10:02:41.109375,62.15
10:02:41.125000,59.38
10:02:41.140625,53.32
10:02:41.156250,44.47
10:02:41.171875,33.63
10:02:41.187500,21.90
10:02:41.203125,10.53
10:02:41.218750,0.72
10:02:41.234375,-6.69
10:02:41.250000,-11.41
10:02:41.265625,-13.91
10:02:41.281250,-15.25
10:02:41.296875,-16.81
10:02:41.312500,-19.83
10:02:41.328125,-24.98
10:02:41.343750,-32.28
10:02:41.359375,-41.08
10:02:41.375000,-50.28
10:02:41.390625,-58.67
10:02:41.406250,-65.11
10:02:41.421875,-68.84
10:02:41.437500,-69.47
10:02:41.453125,-67.08
10:02:41.468750,-62.15
10:02:41.484375,-55.43
10:02:41.500000,-47.83
10:02:41.515625,-40.27
10:02:41.531250,-33.54
10:02:41.546875,-28.14
10:02:41.562500,-24.26
10:02:41.578125,-21.73
10:02:41.593750,-20.15
10:02:41.609375,-19.08
10:02:41.625000,-18.20
10:02:41.640625,-17.43
10:02:41.656250,-16.86
10:02:41.671875,-16.66
10:02:41.687500,-16.80
10:02:41.703125,-17.10
10:02:41.718750,-17.22
10:02:41.734375,-16.82
10:02:41.750000,-15.75
10:02:41.765625,-14.00
10:02:41.781250,-11.68
10:02:41.796875,-8.83
10:02:41.812500,-5.41
10:02:41.828125,-1.26
10:02:41.843750,3.76
10:02:41.859375,9.65
10:02:41.875000,16.16
10:02:41.890625,22.86
10:02:41.906250,29.20
10:02:41.921875,34.66
10:02:41.937500,38.85
10:02:41.953125,41.62
10:02:41.968750,42.99
10:02:41.984375,43.14
10:02:42,42.26
10:02:42.015625,40.53
10:02:42.031250,38.16
10:02:42.046875,35.34
10:02:42.062500,32.27
10:02:42.078125,29.21
10:02:42.093750,26.35
10:02:42.109375,23.74
10:02:42.125000,21.32
10:02:42.140625,18.94
10:02:42.156250,16.43
10:02:42.171875,13.73
10:02:42.187500,10.91
10:02:42.203125,8.09
10:02:42.218750,5.40
10:02:42.234375,2.90
10:02:42.250000,0.53
10:02:42.265625,-1.81
10:02:42.281250,-4.16
10:02:42.296875,-6.51
10:02:42.312500,-8.78
10:02:42.328125,-10.93
10:02:42.343750,-13.02
10:02:42.359375,-15.17
10:02:42.375000,-17.45
10:02:42.390625,-19.82
10:02:42.406250,-21.99
10:02:42.421875,-23.53
10:02:42.437500,-24.01
10:02:42.453125,-23.19
10:02:42.468750,-21.09
10:02:42.484375,-17.98
10:02:42.500000,-14.29
10:02:42.515625,-10.34
10:02:42.531250,-6.40
10:02:42.546875,-2.60
10:02:42.562500,0.94
10:02:42.578125,4.05
10:02:42.593750,6.57
10:02:42.609375,8.36
10:02:42.625000,9.44
10:02:42.640625,9.94
10:02:42.656250,10.04
10:02:42.671875,9.89
10:02:42.687500,9.57
10:02:42.703125,9.12
10:02:42.718750,8.58
10:02:42.734375,8.08
10:02:42.750000,7.79
10:02:42.765625,7.85
10:02:42.781250,8.31
10:02:42.796875,9.07
10:02:42.812500,9.97
10:02:42.828125,10.79
10:02:42.843750,11.42
10:02:42.859375,11.76
10:02:42.875000,11.79
10:02:42.890625,11.54
10:02:42.906250,11.05
10:02:42.921875,10.36
10:02:42.937500,9.57
10:02:42.953125,8.76
10:02:42.968750,7.96
10:02:42.984375,7.15
10:02:43,6.26
10:02:43.015625,5.23
10:02:43.031250,4.03
10:02:43.046875,2.71
10:02:43.062500,1.36
10:02:43.078125,0.09
10:02:43.093750,-0.99
10:02:43.109375,-1.82
10:02:43.125000,-2.38
10:02:43.140625,-2.75
10:02:43.156250,-3.03
10:02:43.171875,-3.42
10:02:43.187500,-4.07
10:02:43.203125,-5.03
10:02:43.218750,-6.25
10:02:43.234375,-7.56
10:02:43.250000,-8.76
10:02:43.265625,-9.74
10:02:43.281250,-10.52
10:02:43.296875,-11.29
10:02:43.312500,-12.34
10:02:43.328125,-13.87
10:02:43.343750,-15.97
10:02:43.359375,-18.51
10:02:43.375000,-21.16
10:02:43.390625,-23.53
10:02:43.406250,-25.19
10:02:43.421875,-25.81
10:02:43.437500,-25.14
10:02:43.453125,-23.06
10:02:43.468750,-19.63
10:02:43.484375,-15.10
10:02:43.500000,-9.91
10:02:43.515625,-4.61
10:02:43.531250,0.23
10:02:43.546875,4.20
10:02:43.562500,7.18
10:02:43.578125,9.24
10:02:43.593750,10.66
10:02:43.609375,11.66
10:02:43.625000,12.37
10:02:43.640625,12.78
10:02:43.656250,12.81
10:02:43.671875,12.46
10:02:43.687500,11.83
10:02:43.703125,11.15
10:02:43.718750,10.59
10:02:43.734375,10.30
10:02:43.750000,10.29
10:02:43.765625,10.54
10:02:43.781250,11.01
10:02:43.796875,11.71
10:02:43.812500,12.61
10:02:43.828125,13.68
10:02:43.843750,14.73
10:02:43.859375,15.53
10:02:43.875000,15.85
10:02:43.890625,15.56
10:02:43.906250,14.68
10:02:43.921875,13.39
10:02:43.937500,11.94
10:02:43.953125,10.55
10:02:43.968750,9.35
10:02:43.984375,8.31
10:02:44,7.33
10:02:44.015625,6.21
10:02:44.031250,4.83
10:02:44.046875,3.17
10:02:44.062500,1.37
10:02:44.078125,-0.33
10:02:44.093750,-1.73
10:02:44.109375,-2.70
10:02:44.125000,-3.29
10:02:44.140625,-3.69
10:02:44.156250,-4.14
10:02:44.171875,-4.83
10:02:44.187500,-5.85
10:02:44.203125,-7.11
10:02:44.218750,-8.51
10:02:44.234375,-9.96
10:02:44.250000,-11.46
10:02:44.265625,-13.08
10:02:44.281250,-14.90
10:02:44.296875,-16.96
10:02:44.312500,-19.22
10:02:44.328125,-21.55
10:02:44.343750,-23.80
10:02:44.359375,-25.78
10:02:44.375000,-27.28
10:02:44.390625,-28.09
10:02:44.406250,-27.93
10:02:44.421875,-26.53
10:02:44.437500,-23.73
10:02:44.453125,-19.59
10:02:44.468750,-14.43
10:02:44.484375,-8.80
10:02:44.500000,-3.33
10:02:44.515625,1.47
10:02:44.531250,5.33
10:02:44.546875,8.27
10:02:44.562500,10.47
10:02:44.578125,12.18
10:02:44.593750,13.55
10:02:44.609375,14.67
10:02:44.625000,15.49
10:02:44.640625,16.01
10:02:44.656250,16.25
10:02:44.671875,16.29
10:02:44.687500,16.19
10:02:44.703125,16.02
10:02:44.718750,15.81
10:02:44.734375,15.62
10:02:44.750000,15.54
10:02:44.765625,15.65
10:02:44.781250,15.96
10:02:44.796875,16.43
10:02:44.812500,16.96
10:02:44.828125,17.45
10:02:44.843750,17.84
10:02:44.859375,18.12
10:02:44.875000,18.26
10:02:44.890625,18.20
10:02:44.906250,17.90
10:02:44.921875,17.29
10:02:44.937500,16.40
10:02:44.953125,15.34
10:02:44.968750,14.25
10:02:44.984375,13.23
10:02:45,12.31
10:02:45.015625,11.38
10:02:45.031250,10.31
10:02:45.046875,9.08
10:02:45.062500,7.76
10:02:45.078125,6.52
10:02:45.093750,5.52
10:02:45.109375,4.87
10:02:45.125000,4.50
10:02:45.140625,4.26
10:02:45.156250,3.96
10:02:45.171875,3.44
10:02:45.187500,2.68
10:02:45.203125,1.77
10:02:45.218750,0.86
10:02:45.234375,0.06
10:02:45.250000,-0.65
10:02:45.265625,-1.39
10:02:45.281250,-2.34
10:02:45.296875,-3.67
10:02:45.312500,-5.41
10:02:45.328125,-7.48
10:02:45.343750,-9.69
10:02:45.359375,-11.83
10:02:45.375000,-13.74
10:02:45.390625,-15.33
10:02:45.406250,-16.63
10:02:45.421875,-17.71
10:02:45.437500,-18.69
10:02:45.453125,-19.75
10:02:45.468750,-21.05
10:02:45.484375,-22.73
10:02:45.500000,-24.81
10:02:45.515625,-27.14
10:02:45.531250,-29.36
10:02:45.546875,-31.01
10:02:45.562500,-31.59
10:02:45.578125,-30.74
10:02:45.593750,-28.30
10:02:45.609375,-24.41
10:02:45.625000,-19.41
10:02:45.640625,-13.83
10:02:45.656250,-8.24
10:02:45.671875,-3.10
10:02:45.687500,1.31
10:02:45.703125,4.88
10:02:45.718750,7.70
10:02:45.734375,9.87
10:02:45.750000,11.48
10:02:45.765625,12.57
10:02:45.781250,13.16
10:02:45.796875,13.30
10:02:45.812500,13.12
10:02:45.828125,12.83
10:02:45.843750,12.58
10:02:45.859375,12.51
10:02:45.875000,12.65
10:02:45.890625,13.00
10:02:45.906250,13.55
10:02:45.921875,14.26
10:02:45.937500,15.13
10:02:45.953125,16.09
10:02:45.968750,17.02
10:02:45.984375,17.73
10:02:46,18.08
10:02:46.015625,17.98
10:02:46.031250,17.43
10:02:46.046875,16.57
10:02:46.062500,15.55
10:02:46.078125,14.51
10:02:46.093750,13.51
10:02:46.109375,12.53
10:02:46.125000,11.53
10:02:46.140625,10.42
10:02:46.156250,9.20
10:02:46.171875,7.87
10:02:46.187500,6.56
10:02:46.203125,5.39
10:02:46.218750,4.46
10:02:46.234375,3.83
10:02:46.250000,3.44
10:02:46.265625,3.16
10:02:46.281250,2.82
10:02:46.296875,2.32
10:02:46.312500,1.61
10:02:46.328125,0.78
10:02:46.343750,-0.07
10:02:46.359375,-0.84
10:02:46.375000,-1.58
10:02:46.390625,-2.45
10:02:46.406250,-3.61
10:02:46.421875,-5.14
10:02:46.437500,-6.94
10:02:46.453125,-8.78
10:02:46.468750,-10.40
10:02:46.484375,-11.62
10:02:46.500000,-12.46
10:02:46.515625,-13.13
10:02:46.531250,-13.88
10:02:46.546875,-14.96
10:02:46.562500,-16.48
10:02:46.578125,-18.42
10:02:46.593750,-20.72
10:02:46.609375,-23.23
10:02:46.625000,-25.78
10:02:46.640625,-28.05
10:02:46.656250,-29.60
10:02:46.671875,-29.99
10:02:46.687500,-28.85
10:02:46.703125,-26.11
10:02:46.718750,-22.00
10:02:46.734375,-16.99
10:02:46.750000,-11.63
10:02:46.765625,-6.42
10:02:46.781250,-1.68
10:02:46.796875,2.45
10:02:46.812500,5.92
10:02:46.828125,8.74
10:02:46.843750,10.88
10:02:46.859375,12.33
10:02:46.875000,13.10
10:02:46.890625,13.30
10:02:46.906250,13.05
10:02:46.921875,12.51
10:02:46.937500,11.81
10:02:46.953125,11.09
10:02:46.968750,10.46
10:02:46.984375,10.09
10:02:47,10.13
10:02:47.015625,10.67
10:02:47.031250,11.69
10:02:47.046875,13.03
10:02:47.062500,14.43
10:02:47.078125,15.61
10:02:47.093750,16.37
10:02:47.109375,16.62
10:02:47.125000,16.36
10:02:47.140625,15.67
10:02:47.156250,14.64
10:02:47.171875,13.35
10:02:47.187500,11.93
10:02:47.203125,10.52
10:02:47.218750,9.26
10:02:47.234375,8.22
10:02:47.250000,7.34
10:02:47.265625,6.50
10:02:47.281250,5.57
10:02:47.296875,4.52
10:02:47.312500,3.38
10:02:47.328125,2.31
10:02:47.343750,1.40
10:02:47.359375,0.66
10:02:47.375000,0.06
10:02:47.390625,-0.49
10:02:47.406250,-1.05
10:02:47.421875,-1.63
10:02:47.437500,-2.24
10:02:47.453125,-2.92
10:02:47.468750,-3.74
10:02:47.484375,-4.77
10:02:47.500000,-6.03
10:02:47.515625,-7.48
10:02:47.531250,-9.00
10:02:47.546875,-10.48
10:02:47.562500,-11.88
10:02:47.578125,-13.18
10:02:47.593750,-14.41
10:02:47.609375,-15.59
10:02:47.625000,-16.70
10:02:47.640625,-17.78
10:02:47.656250,-18.90
10:02:47.671875,-20.22
10:02:47.687500,-21.87
10:02:47.703125,-23.84
10:02:47.718750,-25.91
10:02:47.734375,-27.67
10:02:47.750000,-28.62
10:02:47.765625,-28.35
10:02:47.781250,-26.66
10:02:47.796875,-23.61
10:02:47.812500,-19.44
10:02:47.828125,-14.51
10:02:47.843750,-9.25
10:02:47.859375,-4.10
10:02:47.875000,0.53
10:02:47.890625,4.31
10:02:47.906250,7.07
10:02:47.921875,8.82
10:02:47.937500,9.80
10:02:47.953125,10.31
10:02:47.968750,10.60
10:02:47.984375,10.82
10:02:48,10.98
10:02:48.015625,11.05
10:02:48.031250,11.01
10:02:48.046875,10.94
10:02:48.062500,10.99
10:02:48.078125,11.30
10:02:48.093750,11.90
10:02:48.109375,12.70
10:02:48.125000,13.55
10:02:48.140625,14.27
10:02:48.156250,14.78
10:02:48.171875,15.10
10:02:48.187500,15.33
10:02:48.203125,15.57
10:02:48.218750,15.82
10:02:48.234375,15.96
10:02:48.250000,15.81
10:02:48.265625,15.22
10:02:48.281250,14.18
10:02:48.296875,12.83
10:02:48.312500,11.37
10:02:48.328125,10.03
10:02:48.343750,8.91
10:02:48.359375,8.01
10:02:48.375000,7.26
10:02:48.390625,6.60
10:02:48.406250,6.00
10:02:48.421875,5.49
10:02:48.437500,5.06
10:02:48.453125,4.69
10:02:48.468750,4.29
10:02:48.484375,3.75
10:02:48.500000,2.97
10:02:48.515625,1.91
10:02:48.531250,0.64
10:02:48.546875,-0.71
10:02:48.562500,-1.97
10:02:48.578125,-3.03
10:02:48.593750,-3.88
10:02:48.609375,-4.62
10:02:48.625000,-5.46
10:02:48.640625,-6.57
10:02:48.656250,-8.04
10:02:48.671875,-9.77
10:02:48.687500,-11.53
10:02:48.703125,-13.05
10:02:48.718750,-14.15
10:02:48.734375,-14.86
10:02:48.750000,-15.37
10:02:48.765625,-15.98
10:02:48.781250,-16.93
10:02:48.796875,-18.34
10:02:48.812500,-20.18
10:02:48.828125,-22.34
10:02:48.843750,-24.67
10:02:48.859375,-27.00
10:02:48.875000,-29.08
10:02:48.890625,-30.57
10:02:48.906250,-31.05
10:02:48.921875,-30.16
10:02:48.937500,-27.72
10:02:48.953125,-23.82
10:02:48.968750,-18.87
10:02:48.984375,-13.41
10:02:49,-7.97
10:02:49.015625,-2.98
10:02:49.031250,1.32
10:02:49.046875,4.84
10:02:49.062500,7.60
10:02:49.078125,9.64
10:02:49.093750,11.08
10:02:49.109375,12.00
10:02:49.125000,12.49
10:02:49.140625,12.62
10:02:49.156250,12.47
10:02:49.171875,12.14
10:02:49.187500,11.76
10:02:49.203125,11.47
10:02:49.218750,11.39
10:02:49.234375,11.55
10:02:49.250000,11.91
10:02:49.265625,12.39
10:02:49.281250,12.96
10:02:49.296875,13.59
10:02:49.312500,14.30
10:02:49.328125,15.02
10:02:49.343750,15.64
10:02:49.359375,15.97
10:02:49.375000,15.90
10:02:49.390625,15.40
10:02:49.406250,14.60
10:02:49.421875,13.68
10:02:49.437500,12.81
10:02:49.453125,12.03
10:02:49.468750,11.28
10:02:49.484375,10.41
10:02:49.500000,9.39
10:02:49.515625,8.28
10:02:49.531250,7.23
10:02:49.546875,6.40
10:02:49.562500,5.86
10:02:49.578125,5.53
10:02:49.593750,5.22
10:02:49.609375,4.80
10:02:49.625000,4.19
10:02:49.640625,3.46
10:02:49.656250,2.70
10:02:49.671875,2.01
10:02:49.687500,1.42
10:02:49.703125,0.94
10:02:49.718750,0.55
10:02:49.734375,0.26
10:02:49.750000,0.05
10:02:49.765625,-0.22
10:02:49.781250,-0.77
10:02:49.796875,-1.83
10:02:49.812500,-3.55
10:02:49.828125,-5.84
10:02:49.843750,-8.43
10:02:49.859375,-10.94
10:02:49.875000,-13.07
10:02:49.890625,-14.72
10:02:49.906250,-16.02
10:02:49.921875,-17.20
10:02:49.937500,-18.48
10:02:49.953125,-19.99
10:02:49.968750,-21.77
10:02:49.984375,-23.78
10:02:50,-25.94
10:02:50.015625,-28.17
10:02:50.031250,-30.26
10:02:50.046875,-31.93
10:02:50.062500,-32.81
10:02:50.078125,-32.53
10:02:50.093750,-30.81
10:02:50.109375,-27.62
10:02:50.125000,-23.15
10:02:50.140625,-17.78
10:02:50.156250,-12.04
10:02:50.171875,-6.46
10:02:50.187500,-1.42
10:02:50.203125,2.86
10:02:50.218750,6.35
10:02:50.234375,9.13
10:02:50.250000,11.30
10:02:50.265625,12.89
10:02:50.281250,13.93
10:02:50.296875,14.40
10:02:50.312500,14.40
10:02:50.328125,14.07
10:02:50.343750,13.58
10:02:50.359375,13.08
10:02:50.375000,12.65
10:02:50.390625,12.34
10:02:50.406250,12.25
10:02:50.421875,12.45
10:02:50.437500,13.06
10:02:50.453125,14.06
10:02:50.468750,15.29
10:02:50.484375,16.48
10:02:50.500000,17.32
10:02:50.515625,17.58
10:02:50.531250,17.26
10:02:50.546875,16.50
10:02:50.562500,15.52
10:02:50.578125,14.55
10:02:50.593750,13.69
10:02:50.609375,12.95
10:02:50.625000,12.25
10:02:50.640625,11.49
10:02:50.656250,10.61
10:02:50.671875,9.59
10:02:50.687500,8.46
10:02:50.703125,7.30
10:02:50.718750,6.17
10:02:50.734375,5.14
10:02:50.750000,4.22
10:02:50.765625,3.40
10:02:50.781250,2.60
10:02:50.796875,1.75
10:02:50.812500,0.80
10:02:50.828125,-0.24
10:02:50.843750,-1.33
10:02:50.859375,-2.38
10:02:50.875000,-3.36
10:02:50.890625,-4.29
10:02:50.906250,-5.27
10:02:50.921875,-6.44
10:02:50.937500,-7.85
10:02:50.953125,-9.45
10:02:50.968750,-11.05
10:02:50.984375,-12.45
10:02:51,-13.55
10:02:51.015625,-14.40
10:02:51.031250,-15.16
10:02:51.046875,-16.04
10:02:51.062500,-17.20
10:02:51.078125,-18.69
10:02:51.093750,-20.47
10:02:51.109375,-22.46
10:02:51.125000,-24.62
10:02:51.140625,-26.90
10:02:51.156250,-29.15
10:02:51.171875,-31.07
10:02:51.187500,-32.24
10:02:51.203125,-32.21
10:02:51.218750,-30.69
10:02:51.234375,-27.68
10:02:51.250000,-23.46
10:02:51.265625,-18.53
10:02:51.281250,-13.40
10:02:51.296875,-8.48
10:02:51.312500,-4.03
10:02:51.328125,-0.11
10:02:51.343750,3.26
10:02:51.359375,6.08
10:02:51.375000,8.31
10:02:51.390625,9.89
10:02:51.406250,10.83
10:02:51.421875,11.19
10:02:51.437500,11.17
10:02:51.453125,10.97
10:02:51.468750,10.79
10:02:51.484375,10.75
10:02:51.500000,10.87
10:02:51.515625,11.15
10:02:51.531250,11.55
10:02:51.546875,12.04
10:02:51.562500,12.61
10:02:51.578125,13.25
10:02:51.593750,13.92
10:02:51.609375,14.53
10:02:51.625000,15.01
10:02:51.640625,15.31
10:02:51.656250,15.37
10:02:51.671875,15.21
10:02:51.687500,14.86
10:02:51.703125,14.33
10:02:51.718750,13.68
10:02:51.734375,12.90
10:02:51.750000,12.00
10:02:51.765625,10.95
10:02:51.781250,9.76
10:02:51.796875,8.50
10:02:51.812500,7.26
10:02:51.828125,6.21
10:02:51.843750,5.43
10:02:51.859375,4.94
10:02:51.875000,4.63
10:02:51.890625,4.28
10:02:51.906250,3.70
10:02:51.921875,2.80
10:02:51.937500,1.59
10:02:51.953125,0.21
10:02:51.968750,-1.15
10:02:51.984375,-2.33
10:02:52,-3.28
10:02:52.015625,-4.04
10:02:52.031250,-4.75
10:02:52.046875,-5.61
10:02:52.062500,-6.74
10:02:52.078125,-8.18
10:02:52.093750,-9.87
10:02:52.109375,-11.62
10:02:52.125000,-13.27
10:02:52.140625,-14.72
10:02:52.156250,-16.00
10:02:52.171875,-17.23
10:02:52.187500,-18.56
10:02:52.203125,-20.12
10:02:52.218750,-21.90
10:02:52.234375,-23.82
10:02:52.250000,-25.69
10:02:52.265625,-27.24
10:02:52.281250,-28.17
10:02:52.296875,-28.12
10:02:52.312500,-26.79
10:02:52.328125,-24.05
10:02:52.343750,-20.00
10:02:52.359375,-15.06
10:02:52.375000,-9.77
10:02:52.390625,-4.75
10:02:52.406250,-0.40
10:02:52.421875,3.14
10:02:52.437500,5.98
10:02:52.453125,8.35
10:02:52.468750,10.44
10:02:52.484375,12.26
10:02:52.500000,13.67
10:02:52.515625,14.49
10:02:52.531250,14.65
10:02:52.546875,14.23
10:02:52.562500,13.49
10:02:52.578125,12.75
10:02:52.593750,12.28
10:02:52.609375,12.22
10:02:52.625000,12.53
10:02:52.640625,13.07
10:02:52.656250,13.71
10:02:52.671875,14.35
10:02:52.687500,14.94
10:02:52.703125,15.48
10:02:52.718750,15.93
10:02:52.734375,16.18
10:02:52.750000,16.14
10:02:52.765625,15.75
10:02:52.781250,15.04
10:02:52.796875,14.14
10:02:52.812500,13.21
10:02:52.828125,12.35
10:02:52.843750,11.55
10:02:52.859375,10.67
10:02:52.875000,9.58
10:02:52.890625,8.22
10:02:52.906250,6.67
10:02:52.921875,5.15
10:02:52.937500,3.88
10:02:52.953125,3.00
10:02:52.968750,2.45
10:02:52.984375,2.04
10:02:53,1.53
10:02:53.015625,0.79
10:02:53.031250,-0.19
10:02:53.046875,-1.27
10:02:53.062500,-2.29
10:02:53.078125,-3.11
10:02:53.093750,-3.72
10:02:53.109375,-4.17
10:02:53.125000,-4.65
10:02:53.140625,-5.30
10:02:53.156250,-6.27
10:02:53.171875,-7.60
10:02:53.187500,-9.25
10:02:53.203125,-11.10
10:02:53.218750,-13.05
10:02:53.234375,-15.00
10:02:53.250000,-16.91
10:02:53.265625,-18.80
10:02:53.281250,-20.72
10:02:53.296875,-22.67
10:02:53.312500,-24.55
10:02:53.328125,-26.21
10:02:53.343750,-27.37
10:02:53.359375,-27.76
10:02:53.375000,-27.13
10:02:53.390625,-25.36
10:02:53.406250,-22.44
10:02:53.421875,-18.50
10:02:53.437500,-13.82
10:02:53.453125,-8.74
10:02:53.468750,-3.65
10:02:53.484375,1.12
10:02:53.500000,5.24
10:02:53.515625,8.53
10:02:53.531250,10.88
10:02:53.546875,12.33
10:02:53.562500,13.01
10:02:53.578125,13.16
10:02:53.593750,13.03
10:02:53.609375,12.83
10:02:53.625000,12.71
10:02:53.640625,12.72
10:02:53.656250,12.86
10:02:53.671875,13.11
10:02:53.687500,13.47
10:02:53.703125,13.95
10:02:53.718750,14.55
10:02:53.734375,15.23
10:02:53.750000,15.92
10:02:53.765625,16.49
10:02:53.781250,16.83
10:02:53.796875,16.81
10:02:53.812500,16.38
10:02:53.828125,15.57
10:02:53.843750,14.46
10:02:53.859375,13.19
10:02:53.875000,11.87
10:02:53.890625,10.59
10:02:53.906250,9.34
10:02:53.921875,8.07
10:02:53.937500,6.70
10:02:53.953125,5.18
10:02:53.968750,3.51
10:02:53.984375,1.73
10:02:54,-0.12
10:02:54.015625,-1.98
10:02:54.031250,-3.84
10:02:54.046875,-5.67
10:02:54.062500,-7.43
10:02:54.078125,-9.14
10:02:54.093750,-10.81
10:02:54.109375,-12.49
10:02:54.125000,-14.28
10:02:54.140625,-16.27
10:02:54.156250,-18.54
10:02:54.171875,-21.06
10:02:54.187500,-23.70
10:02:54.203125,-26.25
10:02:54.218750,-28.44
10:02:54.234375,-29.98
10:02:54.250000,-30.75
10:02:54.265625,-30.75
10:02:54.281250,-30.11
10:02:54.296875,-29.05
10:02:54.312500,-27.76
10:02:54.328125,-26.31
10:02:54.343750,-24.66
10:02:54.359375,-22.71
10:02:54.375000,-20.43
10:02:54.390625,-17.90
10:02:54.406250,-15.19
10:02:54.421875,-12.32
10:02:54.437500,-9.19
10:02:54.453125,-5.60
10:02:54.468750,-1.41
10:02:54.484375,3.34
10:02:54.500000,8.39
10:02:54.515625,13.35
10:02:54.531250,17.84
10:02:54.546875,21.63
10:02:54.562500,24.61
10:02:54.578125,26.79
10:02:54.593750,28.20
10:02:54.609375,28.85
10:02:54.625000,28.78
10:02:54.640625,28.12
10:02:54.656250,27.05
10:02:54.671875,25.77
10:02:54.687500,24.44
10:02:54.703125,23.15
10:02:54.718750,21.98
10:02:54.734375,21.06
10:02:54.750000,20.51
10:02:54.765625,20.40
10:02:54.781250,20.66
10:02:54.796875,21.07
10:02:54.812500,21.35
10:02:54.828125,21.28
10:02:54.843750,20.82
10:02:54.859375,20.12
10:02:54.875000,19.39
10:02:54.890625,18.74
10:02:54.906250,18.17
10:02:54.921875,17.59
10:02:54.937500,16.87
10:02:54.953125,15.97
10:02:54.968750,14.91
10:02:54.984375,13.72
10:02:55,12.41
10:02:55.015625,10.98
10:02:55.031250,9.46
10:02:55.046875,7.92
10:02:55.062500,6.51
10:02:55.078125,5.34
10:02:55.093750,4.49
10:02:55.109375,3.89
10:02:55.125000,3.44
10:02:55.140625,3.01
10:02:55.156250,2.50
10:02:55.171875,1.88
10:02:55.187500,1.18
10:02:55.203125,0.45
10:02:55.218750,-0.27
10:02:55.234375,-0.97
10:02:55.250000,-1.70
10:02:55.265625,-2.56
10:02:55.281250,-3.64
10:02:55.296875,-5.03
10:02:55.312500,-6.70
10:02:55.328125,-8.52
10:02:55.343750,-10.30
10:02:55.359375,-11.89
10:02:55.375000,-13.26
10:02:55.390625,-14.50
10:02:55.406250,-15.82
10:02:55.421875,-17.41
10:02:55.437500,-19.33
10:02:55.453125,-21.47
10:02:55.468750,-23.61
10:02:55.484375,-25.42
10:02:55.500000,-26.56
10:02:55.515625,-26.73
10:02:55.531250,-25.67
10:02:55.546875,-23.24
10:02:55.562500,-19.46
10:02:55.578125,-14.54
10:02:55.593750,-8.91
10:02:55.609375,-3.13
10:02:55.625000,2.26
10:02:55.640625,6.82
10:02:55.656250,10.37
10:02:55.671875,12.92
10:02:55.687500,14.61
10:02:55.703125,15.62
10:02:55.718750,16.05
10:02:55.734375,15.98
10:02:55.750000,15.49
10:02:55.765625,14.72
10:02:55.781250,13.88
10:02:55.796875,13.18
10:02:55.812500,12.75
10:02:55.828125,12.65
10:02:55.843750,12.83
10:02:55.859375,13.22
10:02:55.875000,13.76
10:02:55.890625,14.38
10:02:55.906250,14.99
10:02:55.921875,15.47
10:02:55.937500,15.68
10:02:55.953125,15.51
10:02:55.968750,14.94
10:02:55.984375,14.06
10:02:56,13.06
10:02:56.015625,12.07
10:02:56.031250,11.18
10:02:56.046875,10.34
10:02:56.062500,9.47
10:02:56.078125,8.48
10:02:56.093750,7.35
10:02:56.109375,6.12
10:02:56.125000,4.85
10:02:56.140625,3.60
10:02:56.156250,2.40
10:02:56.171875,1.27
10:02:56.187500,0.24
10:02:56.203125,-0.62
10:02:56.218750,-1.32
10:02:56.234375,-1.84
10:02:56.250000,-2.25
10:02:56.265625,-2.60
10:02:56.281250,-2.98
10:02:56.296875,-3.41
10:02:56.312500,-3.92
10:02:56.328125,-4.50
10:02:56.343750,-5.17
10:02:56.359375,-5.94
10:02:56.375000,-6.83
10:02:56.390625,-7.86
10:02:56.406250,-9.00
10:02:56.421875,-10.23
10:02:56.437500,-11.51
10:02:56.453125,-12.80
10:02:56.468750,-14.11
10:02:56.484375,-15.51
10:02:56.500000,-17.10
10:02:56.515625,-19.01
10:02:56.531250,-21.34
10:02:56.546875,-24.02
10:02:56.562500,-26.77
10:02:56.578125,-29.14
10:02:56.593750,-30.61
10:02:56.609375,-30.73
10:02:56.625000,-29.31
10:02:56.640625,-26.41
10:02:56.656250,-22.33
10:02:56.671875,-17.48
10:02:56.687500,-12.26
10:02:56.703125,-7.00
10:02:56.718750,-1.98
10:02:56.734375,2.57
10:02:56.750000,6.46
10:02:56.765625,9.61
10:02:56.781250,12.02
10:02:56.796875,13.77
10:02:56.812500,14.94
10:02:56.828125,15.57
10:02:56.843750,15.66
10:02:56.859375,15.24
10:02:56.875000,14.43
10:02:56.890625,13.53
10:02:56.906250,12.89
10:02:56.921875,12.78
10:02:56.937500,13.26
10:02:56.953125,14.17
10:02:56.968750,15.21
10:02:56.984375,16.14
10:02:57,16.86
10:02:57.015625,17.43
10:02:57.031250,17.92
10:02:57.046875,18.33
10:02:57.062500,18.51
10:02:57.078125,18.26
10:02:57.093750,17.45
10:02:57.109375,16.09
10:02:57.125000,14.39
10:02:57.140625,12.59
10:02:57.156250,10.89
10:02:57.171875,9.35
10:02:57.187500,7.93
10:02:57.203125,6.55
10:02:57.218750,5.19
10:02:57.234375,3.85
10:02:57.250000,2.57
10:02:57.265625,1.38
10:02:57.281250,0.26
10:02:57.296875,-0.82
10:02:57.312500,-1.88
10:02:57.328125,-2.88
10:02:57.343750,-3.79
10:02:57.359375,-4.61
10:02:57.375000,-5.36
10:02:57.390625,-6.13
10:02:57.406250,-6.97
10:02:57.421875,-7.96
10:02:57.437500,-9.10
10:02:57.453125,-10.37
10:02:57.468750,-11.75
10:02:57.484375,-13.17
10:02:57.500000,-14.58
10:02:57.515625,-15.92
10:02:57.531250,-17.23
10:02:57.546875,-18.59
10:02:57.562500,-20.10
10:02:57.578125,-21.84
10:02:57.593750,-23.80
10:02:57.609375,-25.89
10:02:57.625000,-27.86
10:02:57.640625,-29.41
10:02:57.656250,-30.22
10:02:57.671875,-29.93
10:02:57.687500,-28.33
10:02:57.703125,-25.31
10:02:57.718750,-21.01
10:02:57.734375,-15.80
10:02:57.750000,-10.17
10:02:57.765625,-4.66
10:02:57.781250,0.32
10:02:57.796875,4.55
10:02:57.812500,7.93
10:02:57.828125,10.45
10:02:57.843750,12.14
10:02:57.859375,13.04
10:02:57.875000,13.28
10:02:57.890625,13.06
10:02:57.906250,12.61
10:02:57.921875,12.15
10:02:57.937500,11.78
10:02:57.953125,11.52
10:02:57.968750,11.37
10:02:57.984375,11.35
10:02:58,11.55
10:02:58.015625,12.03
10:02:58.031250,12.81
10:02:58.046875,13.77
10:02:58.062500,14.70
10:02:58.078125,15.36
10:02:58.093750,15.60
10:02:58.109375,15.38
10:02:58.125000,14.83
10:02:58.140625,14.09
10:02:58.156250,13.29
10:02:58.171875,12.47
10:02:58.187500,11.59
10:02:58.203125,10.62
10:02:58.218750,9.54
10:02:58.234375,8.40
10:02:58.250000,7.27
10:02:58.265625,6.21
10:02:58.281250,5.24
10:02:58.296875,4.29
10:02:58.312500,3.31
10:02:58.328125,2.24
10:02:58.343750,1.10
10:02:58.359375,-0.07
10:02:58.375000,-1.20
10:02:58.390625,-2.26
10:02:58.406250,-3.23
10:02:58.421875,-4.09
10:02:58.437500,-4.89
10:02:58.453125,-5.70
10:02:58.468750,-6.63
10:02:58.484375,-7.75
10:02:58.500000,-9.11
10:02:58.515625,-10.67
10:02:58.531250,-12.33
10:02:58.546875,-13.99
10:02:58.562500,-15.62
10:02:58.578125,-17.24
10:02:58.593750,-18.90
10:02:58.609375,-20.69
10:02:58.625000,-22.65
10:02:58.640625,-24.75
10:02:58.656250,-26.93
10:02:58.671875,-29.02
10:02:58.687500,-30.74
10:02:58.703125,-31.72
10:02:58.718750,-31.54
10:02:58.734375,-29.89
10:02:58.750000,-26.69
10:02:58.765625,-22.15
10:02:58.781250,-16.73
10:02:58.796875,-11.00
10:02:58.812500,-5.47
10:02:58.828125,-0.48
10:02:58.843750,3.78
10:02:58.859375,7.25
10:02:58.875000,9.88
10:02:58.890625,11.66
10:02:58.906250,12.61
10:02:58.921875,12.88
10:02:58.937500,12.68
10:02:58.953125,12.30
10:02:58.968750,11.99
10:02:58.984375,11.88
10:02:59,11.98
10:02:59.015625,12.19
10:02:59.031250,12.44
10:02:59.046875,12.70
10:02:59.062500,13.02
10:02:59.078125,13.49
10:02:59.093750,14.15
10:02:59.109375,14.98
10:02:59.125000,15.88
10:02:59.140625,16.67
10:02:59.156250,17.18
10:02:59.171875,17.27
10:02:59.187500,16.92
10:02:59.203125,16.19
10:02:59.218750,15.21
10:02:59.234375,14.16
10:02:59.250000,13.21
10:02:59.265625,12.42
10:02:59.281250,11.74
10:02:59.296875,11.06
10:02:59.312500,10.26
10:02:59.328125,9.29
10:02:59.343750,8.17
10:02:59.359375,6.99
10:02:59.375000,5.86
10:02:59.390625,4.84
10:02:59.406250,3.94
10:02:59.421875,3.12
10:02:59.437500,2.28
10:02:59.453125,1.37
10:02:59.468750,0.32
10:02:59.484375,-0.85
10:02:59.500000,-2.10
10:02:59.515625,-3.33
10:02:59.531250,-4.50
10:02:59.546875,-5.60
10:02:59.562500,-6.70
10:02:59.578125,-7.91
10:02:59.593750,-9.32
10:02:59.609375,-10.91
10:02:59.625000,-12.56
10:02:59.640625,-14.12
10:02:59.656250,-15.48
10:02:59.671875,-16.71
10:02:59.687500,-17.96
10:02:59.703125,-19.47
10:02:59.718750,-21.35
10:02:59.734375,-23.58
10:02:59.750000,-26.01
10:02:59.765625,-28.36
10:02:59.781250,-30.37
10:02:59.796875,-31.75
10:02:59.812500,-32.24
10:02:59.828125,-31.58
10:02:59.843750,-29.56
10:02:59.859375,-26.15
10:02:59.875000,-21.54
10:02:59.890625,-16.16
10:02:59.906250,-10.58
10:02:59.921875,-5.31
10:02:59.937500,-0.67
10:02:59.953125,3.25
10:02:59.968750,6.51
10:02:59.984375,9.19
10:03:00,11.24
10:03:00.015625,12.59
10:03:00.031250,13.22
10:03:00.046875,13.24
10:03:00.062500,12.96
10:03:00.078125,12.73
10:03:00.093750,12.83
10:03:00.109375,13.32
10:03:00.125000,14.03
10:03:00.140625,14.67
10:03:00.156250,15.06
10:03:00.171875,15.20
10:03:00.187500,15.27
10:03:00.203125,15.50
10:03:00.218750,16.04
10:03:00.234375,16.83
10:03:00.250000,17.66
10:03:00.265625,18.23
10:03:00.281250,18.34
10:03:00.296875,17.91
10:03:00.312500,16.98
10:03:00.328125,15.67
10:03:00.343750,14.17
10:03:00.359375,12.66
10:03:00.375000,11.31
10:03:00.390625,10.23
10:03:00.406250,9.44
10:03:00.421875,8.82
10:03:00.437500,8.21
10:03:00.453125,7.42
10:03:00.468750,6.42
10:03:00.484375,5.40
10:03:00.500000,4.61
10:03:00.515625,4.33
10:03:00.531250,4.59
10:03:00.546875,5.22
10:03:00.562500,5.84
10:03:00.578125,6.09
10:03:00.593750,5.74
10:03:00.609375,4.79
10:03:00.625000,3.44
10:03:00.640625,1.90
10:03:00.656250,0.34
10:03:00.671875,-1.21
10:03:00.687500,-2.83
10:03:00.703125,-4.61
10:03:00.718750,-6.60
10:03:00.734375,-8.73
10:03:00.750000,-10.87
10:03:00.765625,-12.87
10:03:00.781250,-14.63
10:03:00.796875,-16.06
10:03:00.812500,-17.15
10:03:00.828125,-17.98
10:03:00.843750,-18.69
10:03:00.859375,-19.55
10:03:00.875000,-20.82
10:03:00.890625,-22.72
10:03:00.906250,-25.22
10:03:00.921875,-28.03
10:03:00.937500,-30.57
10:03:00.953125,-32.19
10:03:00.968750,-32.32
10:03:00.984375,-30.67
10:03:01,-27.32
10:03:01.015625,-22.63
10:03:01.031250,-17.15
10:03:01.046875,-11.43
10:03:01.062500,-5.91
10:03:01.078125,-0.90
10:03:01.093750,3.43
10:03:01.109375,6.99
10:03:01.125000,9.73
10:03:01.140625,11.64
10:03:01.156250,12.77
10:03:01.171875,13.24
10:03:01.187500,13.25
10:03:01.203125,13.04
10:03:01.218750,12.81
10:03:01.234375,12.65
10:03:01.250000,12.54
10:03:01.265625,12.41
10:03:01.281250,12.24
10:03:01.296875,12.11
10:03:01.312500,12.18
10:03:01.328125,12.64
10:03:01.343750,13.54
10:03:01.359375,14.74
10:03:01.375000,16.00
10:03:01.390625,16.98
10:03:01.406250,17.46
10:03:01.421875,17.34
10:03:01.437500,16.72
10:03:01.453125,15.75
10:03:01.468750,14.62
10:03:01.484375,13.47
10:03:01.500000,12.39
10:03:01.515625,11.40
10:03:01.531250,10.51
10:03:01.546875,9.70
10:03:01.562500,8.93
10:03:01.578125,8.15
10:03:01.593750,7.36
10:03:01.609375,6.58
10:03:01.625000,5.87
10:03:01.640625,5.23
10:03:01.656250,4.63
10:03:01.671875,3.97
10:03:01.687500,3.14
10:03:01.703125,2.08
10:03:01.718750,0.85
10:03:01.734375,-0.44
10:03:01.750000,-1.63
10:03:01.765625,-2.66
10:03:01.781250,-3.49
10:03:01.796875,-4.18
10:03:01.812500,-4.81
10:03:01.828125,-5.41
10:03:01.843750,-6.01
10:03:01.859375,-6.66
10:03:01.875000,-7.44
10:03:01.890625,-8.46
10:03:01.906250,-9.79
10:03:01.921875,-11.49
10:03:01.937500,-13.49
10:03:01.953125,-15.70
10:03:01.968750,-18.05
10:03:01.984375,-20.45
10:03:02,-22.88
10:03:02.015625,-25.28
10:03:02.031250,-27.59
10:03:02.046875,-29.67
10:03:02.062500,-31.25
10:03:02.078125,-32.04
10:03:02.093750,-31.71
10:03:02.109375,-30.08
10:03:02.125000,-27.19
10:03:02.140625,-23.26
10:03:02.156250,-18.65
10:03:02.171875,-13.75
10:03:02.187500,-8.84
10:03:02.203125,-4.06
10:03:02.218750,0.51
10:03:02.234375,4.77
10:03:02.250000,8.59
10:03:02.265625,11.75
10:03:02.281250,14.04
10:03:02.296875,15.38
10:03:02.312500,15.87
10:03:02.328125,15.75
10:03:02.343750,15.35
10:03:02.359375,14.95
10:03:02.375000,14.70
10:03:02.390625,14.63
10:03:02.406250,14.64
10:03:02.421875,14.64
10:03:02.437500,14.56
10:03:02.453125,14.42
10:03:02.468750,14.29
10:03:02.484375,14.26
10:03:02.500000,14.38
10:03:02.515625,14.62
10:03:02.531250,14.85
10:03:02.546875,14.87
10:03:02.562500,14.55
10:03:02.578125,13.81
10:03:02.593750,12.69
10:03:02.609375,11.34
10:03:02.625000,9.93
10:03:02.640625,8.65
10:03:02.656250,7.62
10:03:02.671875,6.89
10:03:02.687500,6.42
10:03:02.703125,6.16
10:03:02.718750,5.99
10:03:02.734375,5.84
10:03:02.750000,5.62
10:03:02.765625,5.29
10:03:02.781250,4.83
10:03:02.796875,4.24
10:03:02.812500,3.51
10:03:02.828125,2.66
10:03:02.843750,1.69
10:03:02.859375,0.68
10:03:02.875000,-0.27
10:03:02.890625,-1.07
10:03:02.906250,-1.71
10:03:02.921875,-2.27
10:03:02.937500,-2.97
10:03:02.953125,-4.06
10:03:02.968750,-5.63
10:03:02.984375,-7.60
10:03:03,-9.69
10:03:03.015625,-11.53
10:03:03.031250,-12.89
10:03:03.046875,-13.79
10:03:03.062500,-14.50
10:03:03.078125,-15.37
10:03:03.093750,-16.70
10:03:03.109375,-18.53
10:03:03.125000,-20.73
10:03:03.140625,-23.07
10:03:03.156250,-25.35
10:03:03.171875,-27.44
10:03:03.187500,-29.17
10:03:03.203125,-30.27
10:03:03.218750,-30.38
10:03:03.234375,-29.10
10:03:03.250000,-26.29
10:03:03.265625,-22.09
10:03:03.281250,-16.97
10:03:03.296875,-11.56
10:03:03.312500,-6.41
10:03:03.328125,-1.85
10:03:03.343750,2.03
10:03:03.359375,5.26
10:03:03.375000,7.88
10:03:03.390625,9.76
10:03:03.406250,10.76
10:03:03.421875,10.82
10:03:03.437500,10.08
10:03:03.453125,8.93
10:03:03.468750,7.83
10:03:03.484375,7.13
10:03:03.500000,6.95
10:03:03.515625,7.15
10:03:03.531250,7.50
10:03:03.546875,7.81
10:03:03.562500,8.10
10:03:03.578125,8.51
10:03:03.593750,9.18
10:03:03.609375,10.16
10:03:03.625000,11.29
10:03:03.640625,12.29
10:03:03.656250,12.91
10:03:03.671875,13.00
10:03:03.687500,12.64
10:03:03.703125,12.01
10:03:03.718750,11.36
10:03:03.734375,10.86
10:03:03.750000,10.57
10:03:03.765625,10.47
10:03:03.781250,10.42
10:03:03.796875,10.29
10:03:03.812500,9.95
10:03:03.828125,9.33
10:03:03.843750,8.48
10:03:03.859375,7.49
10:03:03.875000,6.53
10:03:03.890625,5.73
10:03:03.906250,5.15
10:03:03.921875,4.74
10:03:03.937500,4.35
10:03:03.953125,3.84
10:03:03.968750,3.09
10:03:03.984375,2.13
10:03:04,1.03
10:03:04.015625,-0.12
10:03:04.031250,-1.28
10:03:04.046875,-2.50
10:03:04.062500,-3.86
10:03:04.078125,-5.37
10:03:04.093750,-6.96
10:03:04.109375,-8.46
10:03:04.125000,-9.72
10:03:04.140625,-10.69
10:03:04.156250,-11.44
10:03:04.171875,-12.17
10:03:04.187500,-13.11
10:03:04.203125,-14.42
10:03:04.218750,-16.15
10:03:04.234375,-18.24
10:03:04.250000,-20.62
10:03:04.265625,-23.14
10:03:04.281250,-25.61
10:03:04.296875,-27.78
10:03:04.312500,-29.30
10:03:04.328125,-29.82
10:03:04.343750,-29.06
10:03:04.359375,-26.89
10:03:04.375000,-23.38
10:03:04.390625,-18.78
10:03:04.406250,-13.49
10:03:04.421875,-8.02
10:03:04.437500,-2.86
10:03:04.453125,1.58
10:03:04.468750,5.04
10:03:04.484375,7.50
10:03:04.500000,9.12
10:03:04.515625,10.12
10:03:04.531250,10.70
10:03:04.546875,10.91
10:03:04.562500,10.78
10:03:04.578125,10.35
10:03:04.593750,9.81
10:03:04.609375,9.42
10:03:04.625000,9.43
10:03:04.640625,9.87
10:03:04.656250,10.56
10:03:04.671875,11.17
10:03:04.687500,11.44
10:03:04.703125,11.32
10:03:04.718750,10.98
10:03:04.734375,10.74
10:03:04.750000,10.77
10:03:04.765625,11.02
10:03:04.781250,11.26
10:03:04.796875,11.19
10:03:04.812500,10.67
10:03:04.828125,9.76
10:03:04.843750,8.68
10:03:04.859375,7.65
10:03:04.875000,6.75
10:03:04.890625,5.94
10:03:04.906250,5.10
10:03:04.921875,4.14
10:03:04.937500,3.05
10:03:04.953125,1.87
10:03:04.968750,0.65
10:03:04.984375,-0.57
10:03:05,-1.82
10:03:05.015625,-3.10
10:03:05.031250,-4.46
10:03:05.046875,-5.93
10:03:05.062500,-7.51
10:03:05.078125,-9.18
10:03:05.093750,-10.84
10:03:05.109375,-12.39
10:03:05.125000,-13.72
10:03:05.140625,-14.87
10:03:05.156250,-15.98
10:03:05.171875,-17.28
10:03:05.187500,-18.95
10:03:05.203125,-21.04
10:03:05.218750,-23.42
10:03:05.234375,-25.88
10:03:05.250000,-28.25
10:03:05.265625,-30.41
10:03:05.281250,-32.35
10:03:05.296875,-34.08
10:03:05.312500,-35.48
10:03:05.328125,-36.28
10:03:05.343750,-36.08
10:03:05.359375,-34.43
10:03:05.375000,-31.01
10:03:05.390625,-25.80
10:03:05.406250,-19.07
10:03:05.421875,-11.37
10:03:05.437500,-3.36
10:03:05.453125,4.33
10:03:05.468750,11.20
10:03:05.484375,16.92
10:03:05.500000,21.30
10:03:05.515625,24.27
10:03:05.531250,25.85
10:03:05.546875,26.20
10:03:05.562500,25.60
10:03:05.578125,24.45
10:03:05.593750,23.20
10:03:05.609375,22.20
10:03:05.625000,21.69
10:03:05.640625,21.71
10:03:05.656250,22.18
10:03:05.671875,22.89
10:03:05.687500,23.59
10:03:05.703125,24.09
10:03:05.718750,24.28
10:03:05.734375,24.16
10:03:05.750000,23.85
10:03:05.765625,23.50
10:03:05.781250,23.25
10:03:05.796875,23.13
10:03:05.812500,23.13
10:03:05.828125,23.15
10:03:05.843750,23.09
10:03:05.859375,22.88
10:03:05.875000,22.49
10:03:05.890625,21.91
10:03:05.906250,21.17
10:03:05.921875,20.26
10:03:05.937500,19.19
10:03:05.953125,18.02
10:03:05.968750,16.84
10:03:05.984375,15.74
10:03:06,14.78
10:03:06.015625,13.94
10:03:06.031250,13.17
10:03:06.046875,12.34
10:03:06.062500,11.36
10:03:06.078125,10.14
10:03:06.093750,8.66
10:03:06.109375,6.92
10:03:06.125000,4.95
10:03:06.140625,2.85
10:03:06.156250,0.70
10:03:06.171875,-1.33
10:03:06.187500,-3.15
10:03:06.203125,-4.68
10:03:06.218750,-5.97
10:03:06.234375,-7.17
10:03:06.250000,-8.53
10:03:06.265625,-10.26
10:03:06.281250,-12.47
10:03:06.296875,-15.16
10:03:06.312500,-18.11
10:03:06.328125,-20.99
10:03:06.343750,-23.41
10:03:06.359375,-25.00
10:03:06.375000,-25.48
10:03:06.390625,-24.76
10:03:06.406250,-22.91
10:03:06.421875,-20.15
10:03:06.437500,-16.73
10:03:06.453125,-12.94
10:03:06.468750,-9.02
10:03:06.484375,-5.19
10:03:06.500000,-1.68
10:03:06.515625,1.25
10:03:06.531250,3.36
10:03:06.546875,4.46
10:03:06.562500,4.55
10:03:06.578125,3.80
10:03:06.593750,2.55
10:03:06.609375,1.21
10:03:06.625000,0.15
10:03:06.640625,-0.36
10:03:06.656250,-0.20
10:03:06.671875,0.59
10:03:06.687500,1.93
10:03:06.703125,3.68
10:03:06.718750,5.72
10:03:06.734375,7.95
10:03:06.750000,10.29
10:03:06.765625,12.54
10:03:06.781250,14.46
10:03:06.796875,15.69
10:03:06.812500,15.90
10:03:06.828125,14.94
10:03:06.843750,12.95
10:03:06.859375,10.45
10:03:06.875000,8.10
10:03:06.890625,6.56
10:03:06.906250,6.12
10:03:06.921875,6.60
10:03:06.937500,7.42
10:03:06.953125,7.85
10:03:06.968750,7.39
10:03:06.984375,6.04
10:03:07,4.32
10:03:07.015625,3.05
10:03:07.031250,3.05
10:03:07.046875,4.65
10:03:07.062500,7.54
10:03:07.078125,10.80
10:03:07.093750,13.26
10:03:07.109375,13.94
10:03:07.125000,12.48
10:03:07.140625,9.29
10:03:07.156250,5.39
10:03:07.171875,2.04
10:03:07.187500,0.34
10:03:07.203125,1.01
10:03:07.218750,4.17
10:03:07.234375,9.22
10:03:07.250000,14.82
10:03:07.265625,18.99
10:03:07.281250,19.55
10:03:07.296875,15.00
10:03:07.312500,5.40
10:03:07.328125,-7.23
10:03:07.343750,-19.23
10:03:07.359375,-26.64
10:03:07.375000,-26.85
10:03:07.390625,-19.80
10:03:07.406250,-8.12
10:03:07.421875,4.01
10:03:07.437500,12.69
10:03:07.453125,15.89
10:03:07.468750,14.01
10:03:07.484375,9.28
10:03:07.500000,4.40
10:03:07.515625,1.24
10:03:07.531250,0.25
10:03:07.546875,0.67
10:03:07.562500,1.31
10:03:07.578125,1.37
10:03:07.593750,0.76
10:03:07.609375,-0.05
10:03:07.625000,-0.51
10:03:07.640625,-0.50
10:03:07.656250,-0.42
10:03:07.671875,-0.99
10:03:07.687500,-2.73
10:03:07.703125,-5.63
10:03:07.718750,-9.08
10:03:07.734375,-12.16
10:03:07.750000,-14.10
10:03:07.765625,-14.69
10:03:07.781250,-14.38
10:03:07.796875,-14.04
10:03:07.812500,-14.53
10:03:07.828125,-16.22
10:03:07.843750,-18.93
10:03:07.859375,-22.00
10:03:07.875000,-24.71
10:03:07.890625,-26.62
10:03:07.906250,-27.68
10:03:07.921875,-28.24
10:03:07.937500,-28.77
10:03:07.953125,-29.80
10:03:07.968750,-31.67
10:03:07.984375,-34.57
10:03:08,-38.52
10:03:08.015625,-43.33
10:03:08.031250,-48.56
10:03:08.046875,-53.58
10:03:08.062500,-57.76
10:03:08.078125,-60.70
10:03:08.093750,-62.51
10:03:08.109375,-63.78
10:03:08.125000,-65.36
10:03:08.140625,-67.81
10:03:08.156250,-71.03
10:03:08.171875,-74.16
10:03:08.187500,-75.93
10:03:08.203125,-75.37
10:03:08.218750,-72.34
10:03:08.234375,-67.77
10:03:08.250000,-63.22
10:03:08.265625,-60.19
10:03:08.281250,-59.44
10:03:08.296875,-60.86
10:03:08.312500,-63.81
10:03:08.328125,-67.65
10:03:08.343750,-71.80
10:03:08.359375,-75.22
10:03:08.375000,-75.94
10:03:08.390625,-71.12
10:03:08.406250,-58.23
10:03:08.421875,-36.54
10:03:08.437500,-8.19
10:03:08.453125,22.32
10:03:08.468750,50.04
10:03:08.484375,71.97
10:03:08.500000,88.34
10:03:08.515625,102.16
10:03:08.531250,117.03
10:03:08.546875,134.89
10:03:08.562500,154.97
10:03:08.578125,174.48
10:03:08.593750,190.50
10:03:08.609375,201.59
10:03:08.625000,208.25
10:03:08.640625,211.98
10:03:08.656250,214.01
10:03:08.671875,214.49
10:03:08.687500,212.71
10:03:08.703125,208.07
10:03:08.718750,200.89
10:03:08.734375,192.78
10:03:08.750000,186.07
10:03:08.765625,182.72
10:03:08.781250,183.36
10:03:08.796875,186.77
10:03:08.812500,190.07
10:03:08.828125,189.50
10:03:08.843750,181.53
10:03:08.859375,163.91
10:03:08.875000,136.41
10:03:08.890625,100.82
10:03:08.906250,60.30
10:03:08.921875,18.42
10:03:08.937500,-21.71
10:03:08.953125,-57.89
10:03:08.968750,-88.74
10:03:08.984375,-113.28
10:03:09,-130.67
10:03:09.015625,-140.26
10:03:09.031250,-142.05
10:03:09.046875,-137.18
10:03:09.062500,-127.92
10:03:09.078125,-117.20
10:03:09.093750,-107.62
10:03:09.109375,-100.58
10:03:09.125000,-96.00
10:03:09.140625,-92.64
10:03:09.156250,-89.00
10:03:09.171875,-84.09
10:03:09.187500,-77.84
10:03:09.203125,-70.95
10:03:09.218750,-64.37
10:03:09.234375,-58.80
10:03:09.250000,-54.45
10:03:09.265625,-51.10
10:03:09.281250,-48.40
10:03:09.296875,-46.10
10:03:09.312500,-44.11
10:03:09.328125,-42.37
10:03:09.343750,-40.77
10:03:09.359375,-39.01
10:03:09.375000,-36.80
10:03:09.390625,-33.95
10:03:09.406250,-30.59
10:03:09.421875,-27.07
10:03:09.437500,-23.85
10:03:09.453125,-21.34
10:03:09.468750,-19.68
10:03:09.484375,-18.76
10:03:09.500000,-18.27
10:03:09.515625,-17.89
10:03:09.531250,-17.36
10:03:09.546875,-16.59
10:03:09.562500,-15.64
10:03:09.578125,-14.65
10:03:09.593750,-13.79
10:03:09.609375,-13.21
10:03:09.625000,-12.98
10:03:09.640625,-13.10
10:03:09.656250,-13.49
10:03:09.671875,-14.03
10:03:09.687500,-14.59
10:03:09.703125,-15.07
10:03:09.718750,-15.42
10:03:09.734375,-15.69
10:03:09.750000,-16.06
10:03:09.765625,-16.70
10:03:09.781250,-17.77
10:03:09.796875,-19.23
10:03:09.812500,-20.84
10:03:09.828125,-22.21
10:03:09.843750,-22.91
10:03:09.859375,-22.57
10:03:09.875000,-21.09
10:03:09.890625,-18.58
10:03:09.906250,-15.32
10:03:09.921875,-11.67
10:03:09.937500,-7.97
10:03:09.953125,-4.46
10:03:09.968750,-1.29
10:03:09.984375,1.44
10:03:10,3.65
10:03:10.015625,5.33
10:03:10.031250,6.51
10:03:10.046875,7.24
10:03:10.062500,7.57
10:03:10.078125,7.57
10:03:10.093750,7.31
10:03:10.109375,6.87
10:03:10.125000,6.39
10:03:10.140625,6.00
10:03:10.156250,5.82
10:03:10.171875,5.88
10:03:10.187500,6.15
10:03:10.203125,6.53
10:03:10.218750,6.93
10:03:10.234375,7.28
10:03:10.250000,7.49
10:03:10.265625,7.53
10:03:10.281250,7.32
10:03:10.296875,6.81
10:03:10.312500,5.98
10:03:10.328125,4.86
10:03:10.343750,3.56
10:03:10.359375,2.27
10:03:10.375000,1.15
10:03:10.390625,0.34
10:03:10.406250,-0.16
10:03:10.421875,-0.44
10:03:10.437500,-0.64
10:03:10.453125,-0.92
10:03:10.468750,-1.36
10:03:10.484375,-1.96
10:03:10.500000,-2.61
10:03:10.515625,-3.22
10:03:10.531250,-3.70
10:03:10.546875,-4.06
10:03:10.562500,-4.36
10:03:10.578125,-4.71
10:03:10.593750,-5.18
10:03:10.609375,-5.79
10:03:10.625000,-6.49
10:03:10.640625,-7.22
10:03:10.656250,-7.93
10:03:10.671875,-8.61
10:03:10.687500,-9.32
10:03:10.703125,-10.14
10:03:10.718750,-11.14
10:03:10.734375,-12.37
10:03:10.750000,-13.80
10:03:10.765625,-15.41
10:03:10.781250,-17.09
10:03:10.796875,-18.67
10:03:10.812500,-19.91
10:03:10.828125,-20.47
10:03:10.843750,-20.06
10:03:10.859375,-18.46
10:03:10.875000,-15.74
10:03:10.890625,-12.17
10:03:10.906250,-8.22
10:03:10.921875,-4.39
10:03:10.937500,-1.06
10:03:10.953125,1.60
10:03:10.968750,3.57
10:03:10.984375,4.95
10:03:11,5.81
10:03:11.015625,6.19
10:03:11.031250,6.14
10:03:11.046875,5.75
10:03:11.062500,5.15
10:03:11.078125,4.51
10:03:11.093750,4.00
10:03:11.109375,3.71
10:03:11.125000,3.65
10:03:11.140625,3.74
10:03:11.156250,3.87
10:03:11.171875,3.98
10:03:11.187500,4.06
10:03:11.203125,4.16
10:03:11.218750,4.35
10:03:11.234375,4.69
10:03:11.250000,5.16
10:03:11.265625,5.73
10:03:11.281250,6.26
10:03:11.296875,6.64
10:03:11.312500,6.78
10:03:11.328125,6.65
10:03:11.343750,6.29
10:03:11.359375,5.76
10:03:11.375000,5.18
10:03:11.390625,4.58
10:03:11.406250,4.04
10:03:11.421875,3.55
10:03:11.437500,3.12
10:03:11.453125,2.73
10:03:11.468750,2.36
10:03:11.484375,2.05
10:03:11.500000,1.81
10:03:11.515625,1.65
10:03:11.531250,1.54
10:03:11.546875,1.43
10:03:11.562500,1.19
10:03:11.578125,0.72
10:03:11.593750,-0.02
10:03:11.609375,-1.04
10:03:11.625000,-2.24
10:03:11.640625,-3.50
10:03:11.656250,-4.69
10:03:11.671875,-5.74
10:03:11.687500,-6.64
10:03:11.703125,-7.49
10:03:11.718750,-8.46
10:03:11.734375,-9.70
10:03:11.750000,-11.24
10:03:11.765625,-13.02
10:03:11.781250,-14.91
10:03:11.796875,-16.75
10:03:11.812500,-18.48
10:03:11.828125,-20.12
10:03:11.843750,-21.64
10:03:11.859375,-22.90
10:03:11.875000,-23.59
10:03:11.890625,-23.32
10:03:11.906250,-21.80
10:03:11.921875,-18.95
10:03:11.937500,-15.03
10:03:11.953125,-10.53
10:03:11.968750,-6.01
10:03:11.984375,-1.91
10:03:12,1.53
10:03:12.015625,4.26
10:03:12.031250,6.40
10:03:12.046875,8.06
10:03:12.062500,9.34
10:03:12.078125,10.25
10:03:12.093750,10.79
10:03:12.109375,10.97
10:03:12.125000,10.89
10:03:12.140625,10.69
10:03:12.156250,10.53
10:03:12.171875,10.54
10:03:12.187500,10.77
10:03:12.203125,11.17
10:03:12.218750,11.63
10:03:12.234375,12.09
10:03:12.250000,12.50
10:03:12.265625,12.90
10:03:12.281250,13.28
10:03:12.296875,13.61
10:03:12.312500,13.83
10:03:12.328125,13.86
10:03:12.343750,13.69
10:03:12.359375,13.34
10:03:12.375000,12.87
10:03:12.390625,12.33
10:03:12.406250,11.70
10:03:12.421875,10.91
10:03:12.437500,9.88
10:03:12.453125,8.57
10:03:12.468750,7.03
10:03:12.484375,5.47
10:03:12.500000,4.13
10:03:12.515625,3.18
10:03:12.531250,2.68
10:03:12.546875,2.45
10:03:12.562500,2.23
10:03:12.578125,1.69
10:03:12.593750,0.71
10:03:12.609375,-0.66
10:03:12.625000,-2.20
10:03:12.640625,-3.64
10:03:12.656250,-4.83
10:03:12.671875,-5.83
10:03:12.687500,-6.79
10:03:12.703125,-7.89
10:03:12.718750,-9.19
10:03:12.734375,-10.59
10:03:12.750000,-11.95
10:03:12.765625,-13.19
10:03:12.781250,-14.35
10:03:12.796875,-15.57
10:03:12.812500,-17.03
10:03:12.828125,-18.77
10:03:12.843750,-20.69
10:03:12.859375,-22.65
10:03:12.875000,-24.49
10:03:12.890625,-26.19
10:03:12.906250,-27.81
10:03:12.921875,-29.44
10:03:12.937500,-31.04
10:03:12.953125,-32.39
10:03:12.968750,-33.09
10:03:12.984375,-32.71
10:03:13,-31.01
10:03:13.015625,-28.00
10:03:13.031250,-23.97
10:03:13.046875,-19.35
10:03:13.062500,-14.56
10:03:13.078125,-9.90
10:03:13.093750,-5.58
10:03:13.109375,-1.71
10:03:13.125000,1.55
10:03:13.140625,4.02
10:03:13.156250,5.62
10:03:13.171875,6.41
10:03:13.187500,6.65
10:03:13.203125,6.74
10:03:13.218750,7.08
10:03:13.234375,7.92
10:03:13.250000,9.24
10:03:13.265625,10.88
10:03:13.281250,12.60
10:03:13.296875,14.23
10:03:13.312500,15.68
10:03:13.328125,16.97
10:03:13.343750,18.12
10:03:13.359375,19.14
10:03:13.375000,20.03
10:03:13.390625,20.76
10:03:13.406250,21.37
10:03:13.421875,21.90
10:03:13.437500,22.38
10:03:13.453125,22.77
10:03:13.468750,22.98
10:03:13.484375,22.90
10:03:13.500000,22.47
10:03:13.515625,21.73
10:03:13.531250,20.78
10:03:13.546875,19.79
10:03:13.562500,18.86
10:03:13.578125,18.04
10:03:13.593750,17.31
10:03:13.609375,16.62
10:03:13.625000,15.90
10:03:13.640625,15.13
10:03:13.656250,14.29
10:03:13.671875,13.36
10:03:13.687500,12.34
10:03:13.703125,11.25
10:03:13.718750,10.15
10:03:13.734375,9.12
10:03:13.750000,8.23
10:03:13.765625,7.48
10:03:13.781250,6.71
10:03:13.796875,5.65
10:03:13.812500,4.05
10:03:13.828125,1.77
10:03:13.843750,-1.13
10:03:13.859375,-4.36
10:03:13.875000,-7.59
10:03:13.890625,-10.54
10:03:13.906250,-13.06
10:03:13.921875,-15.19
10:03:13.937500,-17.07
10:03:13.953125,-18.86
10:03:13.968750,-20.66
10:03:13.984375,-22.50
10:03:14,-24.29
10:03:14.015625,-25.83
10:03:14.031250,-26.88
10:03:14.046875,-27.19
10:03:14.062500,-26.51
10:03:14.078125,-24.73
10:03:14.093750,-21.88
10:03:14.109375,-18.14
10:03:14.125000,-13.88
10:03:14.140625,-9.45
10:03:14.156250,-5.22
10:03:14.171875,-1.43
10:03:14.187500,1.74
10:03:14.203125,4.20
10:03:14.218750,5.89
10:03:14.234375,6.86
10:03:14.250000,7.22
10:03:14.265625,7.18
10:03:14.281250,7.01
10:03:14.296875,7.02
10:03:14.312500,7.39
10:03:14.328125,8.22
10:03:14.343750,9.44
10:03:14.359375,10.92
10:03:14.375000,12.48
10:03:14.390625,13.96
10:03:14.406250,15.25
10:03:14.421875,16.21
10:03:14.437500,16.75
10:03:14.453125,16.88
10:03:14.468750,16.69
10:03:14.484375,16.37
10:03:14.500000,16.12
10:03:14.515625,16.01
10:03:14.531250,15.98
10:03:14.546875,15.83
10:03:14.562500,15.29
10:03:14.578125,14.22
10:03:14.593750,12.62
10:03:14.609375,10.68
10:03:14.625000,8.64
10:03:14.640625,6.72
10:03:14.656250,5.02
10:03:14.671875,3.50
10:03:14.687500,2.07
10:03:14.703125,0.68
10:03:14.718750,-0.67
10:03:14.734375,-1.92
10:03:14.750000,-3.03
10:03:14.765625,-4.06
10:03:14.781250,-5.18
10:03:14.796875,-6.57
10:03:14.812500,-8.35
10:03:14.828125,-10.47
10:03:14.843750,-12.74
10:03:14.859375,-14.97
10:03:14.875000,-17.00
10:03:14.890625,-18.85
10:03:14.906250,-20.59
10:03:14.921875,-22.33
10:03:14.937500,-24.00
10:03:14.953125,-25.36
10:03:14.968750,-26.02
10:03:14.984375,-25.62
10:03:15,-23.95
10:03:15.015625,-21.06
10:03:15.031250,-17.32
10:03:15.046875,-13.23
10:03:15.062500,-9.30
10:03:15.078125,-5.88
10:03:15.093750,-3.05
10:03:15.109375,-0.72
10:03:15.125000,1.32
10:03:15.140625,3.21
10:03:15.156250,4.99
10:03:15.171875,6.58
10:03:15.187500,7.88
10:03:15.203125,8.79
10:03:15.218750,9.31
10:03:15.234375,9.49
10:03:15.250000,9.41
10:03:15.265625,9.15
10:03:15.281250,8.81
10:03:15.296875,8.45
10:03:15.312500,8.21
10:03:15.328125,8.20
10:03:15.343750,8.52
10:03:15.359375,9.17
10:03:15.375000,10.02
10:03:15.390625,10.83
10:03:15.406250,11.31
10:03:15.421875,11.25
10:03:15.437500,10.61
10:03:15.453125,9.55
10:03:15.468750,8.31
10:03:15.484375,7.16
10:03:15.500000,6.20
10:03:15.515625,5.41
10:03:15.531250,4.66
10:03:15.546875,3.81
10:03:15.562500,2.83
10:03:15.578125,1.79
10:03:15.593750,0.79
10:03:15.609375,-0.16
10:03:15.625000,-1.11
10:03:15.640625,-2.17
10:03:15.656250,-3.45
10:03:15.671875,-4.96
10:03:15.687500,-6.58
10:03:15.703125,-8.15
10:03:15.718750,-9.56
10:03:15.734375,-10.83
10:03:15.750000,-12.05
10:03:15.765625,-13.35
10:03:15.781250,-14.74
10:03:15.796875,-16.07
10:03:15.812500,-17.01
10:03:15.828125,-17.24
10:03:15.843750,-16.52
10:03:15.859375,-14.86
10:03:15.875000,-12.44
10:03:15.890625,-9.58
10:03:15.906250,-6.55
10:03:15.921875,-3.54
10:03:15.937500,-0.68
10:03:15.953125,1.98
10:03:15.968750,4.38
10:03:15.984375,6.43
10:03:16,8.05
10:03:16.015625,9.19
10:03:16.031250,9.82
10:03:16.046875,9.95
10:03:16.062500,9.67
10:03:16.078125,9.11
10:03:16.093750,8.49
10:03:16.109375,8.02
10:03:16.125000,7.88
10:03:16.140625,8.10
10:03:16.156250,8.60
10:03:16.171875,9.22
10:03:16.187500,9.81
10:03:16.203125,10.32
10:03:16.218750,10.75
10:03:16.234375,11.15
10:03:16.250000,11.53
10:03:16.265625,11.79
10:03:16.281250,11.81
10:03:16.296875,11.47
10:03:16.312500,10.73
10:03:16.328125,9.66
10:03:16.343750,8.39
10:03:16.359375,7.06
10:03:16.375000,5.76
10:03:16.390625,4.52
10:03:16.406250,3.31
10:03:16.421875,2.08
10:03:16.437500,0.80
10:03:16.453125,-0.56
10:03:16.468750,-1.95
10:03:16.484375,-3.29
10:03:16.500000,-4.51
10:03:16.515625,-5.58
10:03:16.531250,-6.54
10:03:16.546875,-7.53
10:03:16.562500,-8.70
10:03:16.578125,-10.18
10:03:16.593750,-11.97
10:03:16.609375,-14.00
10:03:16.625000,-16.11
10:03:16.640625,-18.06
10:03:16.656250,-19.64
10:03:16.671875,-20.64
10:03:16.687500,-20.88
10:03:16.703125,-20.20
10:03:16.718750,-18.49
10:03:16.734375,-15.77
10:03:16.750000,-12.22
10:03:16.765625,-8.20
10:03:16.781250,-4.14
10:03:16.796875,-0.48
10:03:16.812500,2.47
10:03:16.828125,4.64
10:03:16.843750,6.15
10:03:16.859375,7.21
10:03:16.875000,8.02
10:03:16.890625,8.67
10:03:16.906250,9.13
10:03:16.921875,9.33
10:03:16.937500,9.30
10:03:16.953125,9.16
10:03:16.968750,9.10
10:03:16.984375,9.28
10:03:17,9.72
10:03:17.015625,10.29
10:03:17.031250,10.78
10:03:17.046875,11.01
10:03:17.062500,10.94
10:03:17.078125,10.69
10:03:17.093750,10.50
10:03:17.109375,10.55
10:03:17.125000,10.89
10:03:17.140625,11.33
10:03:17.156250,11.57
10:03:17.171875,11.27
10:03:17.187500,10.28
10:03:17.203125,8.69
10:03:17.218750,6.76
10:03:17.234375,4.84
10:03:17.250000,3.16
10:03:17.265625,1.81
10:03:17.281250,0.72
10:03:17.296875,-0.26
10:03:17.312500,-1.30
10:03:17.328125,-2.44
10:03:17.343750,-3.67
10:03:17.359375,-4.93
10:03:17.375000,-6.18
10:03:17.390625,-7.43
10:03:17.406250,-8.69
10:03:17.421875,-9.99
10:03:17.437500,-11.32
10:03:17.453125,-12.66
10:03:17.468750,-13.96
10:03:17.484375,-15.22
10:03:17.500000,-16.43
10:03:17.515625,-17.61
10:03:17.531250,-18.70
10:03:17.546875,-19.54
10:03:17.562500,-19.90
10:03:17.578125,-19.51
10:03:17.593750,-18.17
10:03:17.609375,-15.83
10:03:17.625000,-12.64
10:03:17.640625,-8.88
10:03:17.656250,-4.90
10:03:17.671875,-1.01
10:03:17.687500,2.56
10:03:17.703125,5.70
10:03:17.718750,8.44
10:03:17.734375,10.84
10:03:17.750000,12.92
10:03:17.765625,14.63
10:03:17.781250,15.79
10:03:17.796875,16.28
10:03:17.812500,16.07
10:03:17.828125,15.37
10:03:17.843750,14.56
10:03:17.859375,14.06
10:03:17.875000,14.13
10:03:17.890625,14.75
10:03:17.906250,15.64
10:03:17.921875,16.49
10:03:17.937500,17.07
10:03:17.953125,17.38
10:03:17.968750,17.62
10:03:17.984375,17.97
10:03:18,18.51
10:03:18.015625,19.05
10:03:18.031250,19.26
10:03:18.046875,18.83
10:03:18.062500,17.64
10:03:18.078125,15.82
10:03:18.093750,13.67
10:03:18.109375,11.53
10:03:18.125000,9.58
10:03:18.140625,7.87
10:03:18.156250,6.29
10:03:18.171875,4.75
10:03:18.187500,3.25
10:03:18.203125,1.89
10:03:18.218750,0.76
10:03:18.234375,-0.14
10:03:18.250000,-0.94
10:03:18.265625,-1.85
10:03:18.281250,-2.98
10:03:18.296875,-4.29
10:03:18.312500,-5.62
10:03:18.328125,-6.78
10:03:18.343750,-7.74
10:03:18.359375,-8.65
10:03:18.375000,-9.80
10:03:18.390625,-11.45
10:03:18.406250,-13.69
10:03:18.421875,-16.43
10:03:18.437500,-19.37
10:03:18.453125,-22.14
10:03:18.468750,-24.32
10:03:18.484375,-25.55
10:03:18.500000,-25.56
10:03:18.515625,-24.22
10:03:18.531250,-21.63
10:03:18.546875,-18.09
10:03:18.562500,-14.03
10:03:18.578125,-9.89
10:03:18.593750,-6.02
10:03:18.609375,-2.56
10:03:18.625000,0.46
10:03:18.640625,3.05
10:03:18.656250,5.22
10:03:18.671875,6.88
10:03:18.687500,7.94
10:03:18.703125,8.37
10:03:18.718750,8.24
10:03:18.734375,7.74
10:03:18.750000,7.09
10:03:18.765625,6.52
10:03:18.781250,6.20
10:03:18.796875,6.28
10:03:18.812500,6.79
10:03:18.828125,7.74
10:03:18.843750,9.00
10:03:18.859375,10.39
10:03:18.875000,11.67
10:03:18.890625,12.63
10:03:18.906250,13.14
10:03:18.921875,13.19
10:03:18.937500,12.82
10:03:18.953125,12.12
10:03:18.968750,11.16
10:03:18.984375,10.03
10:03:19,8.81
10:03:19.015625,7.59
10:03:19.031250,6.40
10:03:19.046875,5.26
10:03:19.062500,4.10
10:03:19.078125,2.84
10:03:19.093750,1.45
10:03:19.109375,0.00
10:03:19.125000,-1.39
10:03:19.140625,-2.59
10:03:19.156250,-3.50
10:03:19.171875,-4.15
10:03:19.187500,-4.64
10:03:19.203125,-5.10
10:03:19.218750,-5.69
10:03:19.234375,-6.51
10:03:19.250000,-7.62
10:03:19.265625,-9.10
10:03:19.281250,-10.93
10:03:19.296875,-13.04
10:03:19.312500,-15.23
10:03:19.328125,-17.18
10:03:19.343750,-18.50
10:03:19.359375,-18.89
10:03:19.375000,-18.18
10:03:19.390625,-16.46
10:03:19.406250,-14.00
10:03:19.421875,-11.12
10:03:19.437500,-8.14
10:03:19.453125,-5.24
10:03:19.468750,-2.53
10:03:19.484375,-0.10
10:03:19.500000,1.98
10:03:19.515625,3.61
10:03:19.531250,4.73
10:03:19.546875,5.34
10:03:19.562500,5.50
10:03:19.578125,5.33
10:03:19.593750,4.96
10:03:19.609375,4.55
10:03:19.625000,4.21
10:03:19.640625,3.99
10:03:19.656250,3.89
10:03:19.671875,3.87
10:03:19.687500,3.96
10:03:19.703125,4.21
10:03:19.718750,4.80
10:03:19.734375,5.87
10:03:19.750000,7.45
10:03:19.765625,9.38
10:03:19.781250,11.28
10:03:19.796875,12.77
10:03:19.812500,13.56
10:03:19.828125,13.59
10:03:19.843750,13.03
10:03:19.859375,12.06
10:03:19.875000,10.83
10:03:19.890625,9.34
10:03:19.906250,7.49
10:03:19.921875,5.26
10:03:19.937500,2.75
10:03:19.953125,0.18
10:03:19.968750,-2.17
10:03:19.984375,-4.14
10:03:20,-5.78
10:03:20.015625,-7.25
10:03:20.031250,-8.72
10:03:20.046875,-10.26
10:03:20.062500,-11.77
10:03:20.078125,-12.99
10:03:20.093750,-13.73
10:03:20.109375,-13.92
10:03:20.125000,-13.68
10:03:20.140625,-13.22
10:03:20.156250,-12.76
10:03:20.171875,-12.34
10:03:20.187500,-11.84
10:03:20.203125,-11.02
10:03:20.218750,-9.65
10:03:20.234375,-7.65
10:03:20.250000,-5.08
10:03:20.265625,-2.24
10:03:20.281250,0.53
10:03:20.296875,2.83
10:03:20.312500,4.33
10:03:20.328125,4.82
10:03:20.343750,4.24
10:03:20.359375,2.71
10:03:20.375000,0.53
10:03:20.390625,-1.89
10:03:20.406250,-4.03
10:03:20.421875,-5.43
10:03:20.437500,-5.72
10:03:20.453125,-4.75
10:03:20.468750,-2.59
10:03:20.484375,0.49
10:03:20.500000,4.06
10:03:20.515625,7.62
10:03:20.531250,10.72
10:03:20.546875,13.05
10:03:20.562500,14.56
10:03:20.578125,15.38
10:03:20.593750,15.81
10:03:20.609375,16.12
10:03:20.625000,16.44
10:03:20.640625,16.75
10:03:20.656250,16.88
10:03:20.671875,16.73
10:03:20.687500,16.31
10:03:20.703125,15.74
10:03:20.718750,15.18
10:03:20.734375,14.68
10:03:20.750000,14.16
10:03:20.765625,13.48
10:03:20.781250,12.55
10:03:20.796875,11.41
10:03:20.812500,10.24
10:03:20.828125,9.19
10:03:20.843750,8.25
10:03:20.859375,7.23
10:03:20.875000,5.87
10:03:20.890625,4.04
10:03:20.906250,1.83
10:03:20.921875,-0.43
10:03:20.937500,-2.31
10:03:20.953125,-3.50
10:03:20.968750,-4.01
10:03:20.984375,-4.08
10:03:21,-4.14
10:03:21.015625,-4.54
10:03:21.031250,-5.40
10:03:21.046875,-6.60
10:03:21.062500,-7.88
10:03:21.078125,-9.02
10:03:21.093750,-9.95
10:03:21.109375,-10.82
10:03:21.125000,-11.91
10:03:21.140625,-13.45
10:03:21.156250,-15.54
10:03:21.171875,-18.04
10:03:21.187500,-20.67
10:03:21.203125,-23.01
10:03:21.218750,-24.77
10:03:21.234375,-25.76
10:03:21.250000,-25.93
10:03:21.265625,-25.41
10:03:21.281250,-24.31
10:03:21.296875,-22.74
10:03:21.312500,-20.69
10:03:21.328125,-18.11
10:03:21.343750,-14.91
10:03:21.359375,-11.07
10:03:21.375000,-6.67
10:03:21.390625,-1.92
10:03:21.406250,2.87
10:03:21.421875,7.36
10:03:21.437500,11.31
10:03:21.453125,14.61
10:03:21.468750,17.27
10:03:21.484375,19.37
10:03:21.500000,20.95
10:03:21.515625,21.97
10:03:21.531250,22.33
10:03:21.546875,21.89
10:03:21.562500,20.56
10:03:21.578125,18.29
10:03:21.593750,15.08
10:03:21.609375,10.92
10:03:21.625000,5.78
10:03:21.640625,-0.38
10:03:21.656250,-7.55
10:03:21.671875,-15.61
10:03:21.687500,-24.27
10:03:21.703125,-33.05
10:03:21.718750,-41.39
10:03:21.734375,-48.72
10:03:21.750000,-54.50
10:03:21.765625,-58.34
10:03:21.781250,-60.01
10:03:21.796875,-59.45
10:03:21.812500,-56.77
10:03:21.828125,-52.30
10:03:21.843750,-46.45
10:03:21.859375,-39.74
10:03:21.875000,-32.67
10:03:21.890625,-25.61
10:03:21.906250,-18.86
10:03:21.921875,-12.54
10:03:21.937500,-6.74
10:03:21.953125,-1.51
10:03:21.968750,3.03
10:03:21.984375,6.82
10:03:22,9.81
10:03:22.015625,12.09
10:03:22.031250,13.85
10:03:22.046875,15.34
10:03:22.062500,16.82
10:03:22.078125,18.47
10:03:22.093750,20.36
10:03:22.109375,22.46
10:03:22.125000,24.70
10:03:22.140625,26.96
10:03:22.156250,29.18
10:03:22.171875,31.35
10:03:22.187500,33.51
10:03:22.203125,35.72
10:03:22.218750,37.97
10:03:22.234375,40.14
10:03:22.250000,41.98
10:03:22.265625,43.22
10:03:22.281250,43.67
10:03:22.296875,43.29
10:03:22.312500,42.25
10:03:22.328125,40.80
10:03:22.343750,39.21
10:03:22.359375,37.59
10:03:22.375000,35.88
10:03:22.390625,33.93
10:03:22.406250,31.56
10:03:22.421875,28.75
10:03:22.437500,25.65
10:03:22.453125,22.54
10:03:22.468750,19.78
10:03:22.484375,17.62
10:03:22.500000,16.12
10:03:22.515625,15.03
10:03:22.531250,13.85
10:03:22.546875,11.96
10:03:22.562500,8.90
10:03:22.578125,4.55
10:03:22.593750,-0.79
10:03:22.609375,-6.46
10:03:22.625000,-11.77
10:03:22.640625,-16.18
10:03:22.656250,-19.50
10:03:22.671875,-21.80
10:03:22.687500,-23.29
10:03:22.703125,-24.08
10:03:22.718750,-24.13
10:03:22.734375,-23.29
10:03:22.750000,-21.48
10:03:22.765625,-18.80
10:03:22.781250,-15.55
10:03:22.796875,-12.15
10:03:22.812500,-8.95
10:03:22.828125,-6.17
10:03:22.843750,-3.87
10:03:22.859375,-1.94
10:03:22.875000,-0.31
10:03:22.890625,1.05
10:03:22.906250,2.13
10:03:22.921875,2.88
10:03:22.937500,3.29
10:03:22.953125,3.48
10:03:22.968750,3.58
10:03:22.984375,3.75
10:03:23,4.02
10:03:23.015625,4.35
10:03:23.031250,4.59
10:03:23.046875,4.65
10:03:23.062500,4.51
10:03:23.078125,4.27
10:03:23.093750,4.12
10:03:23.109375,4.22
10:03:23.125000,4.60
10:03:23.140625,5.17
10:03:23.156250,5.72
10:03:23.171875,6.04
10:03:23.187500,6.01
10:03:23.203125,5.65
10:03:23.218750,5.11
10:03:23.234375,4.55
10:03:23.250000,4.10
10:03:23.265625,3.79
10:03:23.281250,3.54
10:03:23.296875,3.22
10:03:23.312500,2.76
10:03:23.328125,2.21
10:03:23.343750,1.64
10:03:23.359375,1.14
10:03:23.375000,0.69
10:03:23.390625,0.16
10:03:23.406250,-0.58
10:03:23.421875,-1.60
10:03:23.437500,-2.85
10:03:23.453125,-4.18
10:03:23.468750,-5.39
10:03:23.484375,-6.37
10:03:23.500000,-7.14
10:03:23.515625,-7.78
10:03:23.531250,-8.38
10:03:23.546875,-9.00
10:03:23.562500,-9.56
10:03:23.578125,-9.96
10:03:23.593750,-10.10
10:03:23.609375,-9.90
10:03:23.625000,-9.38
10:03:23.640625,-8.56
10:03:23.656250,-7.46
10:03:23.671875,-6.16
10:03:23.687500,-4.75
10:03:23.703125,-3.35
10:03:23.718750,-2.08
10:03:23.734375,-1.01
10:03:23.750000,-0.11
10:03:23.765625,0.72
10:03:23.781250,1.65
10:03:23.796875,2.79
10:03:23.812500,4.18
10:03:23.828125,5.76
10:03:23.843750,7.39
10:03:23.859375,8.96
10:03:23.875000,10.37
10:03:23.890625,11.60
10:03:23.906250,12.70
10:03:23.921875,13.67
10:03:23.937500,14.55
10:03:23.953125,15.25
10:03:23.968750,15.73
10:03:23.984375,15.89
10:03:24,15.71
10:03:24.015625,15.25
10:03:24.031250,14.60
10:03:24.046875,13.88
10:03:24.062500,13.16
10:03:24.078125,12.48
10:03:24.093750,11.86
10:03:24.109375,11.29
10:03:24.125000,10.81
10:03:24.140625,10.47
10:03:24.156250,10.27
10:03:24.171875,10.10
10:03:24.187500,9.77
10:03:24.203125,9.03
10:03:24.218750,7.69
10:03:24.234375,5.70
10:03:24.250000,3.23
10:03:24.265625,0.57
10:03:24.281250,-1.94
10:03:24.296875,-4.02
10:03:24.312500,-5.55
10:03:24.328125,-6.52
10:03:24.343750,-7.04
10:03:24.359375,-7.22
10:03:24.375000,-7.18
10:03:24.390625,-6.99
10:03:24.406250,-6.68
10:03:24.421875,-6.33
10:03:24.437500,-5.97
10:03:24.453125,-5.63
10:03:24.468750,-5.33
10:03:24.484375,-5.05
10:03:24.500000,-4.77
10:03:24.515625,-4.50
10:03:24.531250,-4.26
10:03:24.546875,-4.08
10:03:24.562500,-3.94
10:03:24.578125,-3.82
10:03:24.593750,-3.69
10:03:24.609375,-3.50
10:03:24.625000,-3.29
10:03:24.640625,-3.06
10:03:24.656250,-2.86
10:03:24.671875,-2.67
10:03:24.687500,-2.48
10:03:24.703125,-2.27
10:03:24.718750,-2.05
10:03:24.734375,-1.85
10:03:24.750000,-1.76
10:03:24.765625,-1.85
10:03:24.781250,-2.15
10:03:24.796875,-2.61
10:03:24.812500,-3.13
10:03:24.828125,-3.60
10:03:24.843750,-3.90
10:03:24.859375,-3.96
10:03:24.875000,-3.80
10:03:24.890625,-3.47
10:03:24.906250,-3.11
10:03:24.921875,-2.85
10:03:24.937500,-2.76
10:03:24.953125,-2.84
10:03:24.968750,-2.99
10:03:24.984375,-3.06
10:03:25,-2.95
10:03:25.015625,-2.68
10:03:25.031250,-2.34
10:03:25.046875,-2.11
10:03:25.062500,-2.11
10:03:25.078125,-2.35
10:03:25.093750,-2.70
10:03:25.109375,-2.96
10:03:25.125000,-3.01
10:03:25.140625,-2.83
10:03:25.156250,-2.53
10:03:25.171875,-2.29
10:03:25.187500,-2.22
10:03:25.203125,-2.36
10:03:25.218750,-2.67
10:03:25.234375,-3.06
10:03:25.250000,-3.47
10:03:25.265625,-3.92
10:03:25.281250,-4.44
10:03:25.296875,-5.03
10:03:25.312500,-5.67
10:03:25.328125,-6.30
10:03:25.343750,-6.89
10:03:25.359375,-7.43
10:03:25.375000,-7.99
10:03:25.390625,-8.62
10:03:25.406250,-9.35
10:03:25.421875,-10.13
10:03:25.437500,-10.83
10:03:25.453125,-11.27
10:03:25.468750,-11.31
10:03:25.484375,-10.86
10:03:25.500000,-9.92
10:03:25.515625,-8.60
10:03:25.531250,-7.03
10:03:25.546875,-5.38
10:03:25.562500,-3.80
10:03:25.578125,-2.37
10:03:25.593750,-1.13
10:03:25.609375,-0.12
10:03:25.625000,0.70
10:03:25.640625,1.33
10:03:25.656250,1.79
10:03:25.671875,2.13
10:03:25.687500,2.41
10:03:25.703125,2.72
10:03:25.718750,3.11
10:03:25.734375,3.59
10:03:25.750000,4.10
10:03:25.765625,4.58
10:03:25.781250,4.95
10:03:25.796875,5.20
10:03:25.812500,5.38
10:03:25.828125,5.50
10:03:25.843750,5.56
10:03:25.859375,5.52
10:03:25.875000,5.34
10:03:25.890625,5.02
10:03:25.906250,4.62
10:03:25.921875,4.22
10:03:25.937500,3.84
10:03:25.953125,3.44
10:03:25.968750,2.90
10:03:25.984375,2.15
10:03:26,1.20
10:03:26.015625,0.19
10:03:26.031250,-0.62
10:03:26.046875,-1.08
10:03:26.062500,-1.18
10:03:26.078125,-1.10
10:03:26.093750,-1.09
10:03:26.109375,-1.38
10:03:26.125000,-2.04
10:03:26.140625,-2.90
10:03:26.156250,-3.76
10:03:26.171875,-4.43
10:03:26.187500,-4.89
10:03:26.203125,-5.30
10:03:26.218750,-5.83
10:03:26.234375,-6.56
10:03:26.250000,-7.45
10:03:26.265625,-8.36
10:03:26.281250,-9.17
10:03:26.296875,-9.92
10:03:26.312500,-10.74
10:03:26.328125,-11.77
10:03:26.343750,-12.97
10:03:26.359375,-14.11
10:03:26.375000,-14.85
10:03:26.390625,-14.88
10:03:26.406250,-14.11
10:03:26.421875,-12.66
10:03:26.437500,-10.79
10:03:26.453125,-8.75
10:03:26.468750,-6.76
10:03:26.484375,-4.89
10:03:26.500000,-3.24
10:03:26.515625,-1.88
10:03:26.531250,-0.91
10:03:26.546875,-0.38
10:03:26.562500,-0.24
10:03:26.578125,-0.35
10:03:26.593750,-0.50
10:03:26.609375,-0.51
10:03:26.625000,-0.32
10:03:26.640625,0.02
10:03:26.656250,0.38
10:03:26.671875,0.67
10:03:26.687500,0.86
10:03:26.703125,1.02
10:03:26.718750,1.32
10:03:26.734375,1.88
10:03:26.750000,2.75
10:03:26.765625,3.82
10:03:26.781250,4.88
10:03:26.796875,5.71
10:03:26.812500,6.13
10:03:26.828125,6.10
10:03:26.843750,5.66
10:03:26.859375,4.90
10:03:26.875000,3.94
10:03:26.890625,2.86
10:03:26.906250,1.77
10:03:26.921875,0.76
10:03:26.937500,-0.08
10:03:26.953125,-0.66
10:03:26.968750,-0.94
10:03:26.984375,-0.98
10:03:27,-0.93
10:03:27.015625,-0.96
10:03:27.031250,-1.21
10:03:27.046875,-1.73
10:03:27.062500,-2.43
10:03:27.078125,-3.16
10:03:27.093750,-3.83
10:03:27.109375,-4.42
10:03:27.125000,-5.09
10:03:27.140625,-6.01
10:03:27.156250,-7.31
10:03:27.171875,-8.94
10:03:27.187500,-10.64
10:03:27.203125,-12.12
10:03:27.218750,-13.11
10:03:27.234375,-13.48
10:03:27.250000,-13.26
10:03:27.265625,-12.58
10:03:27.281250,-11.57
10:03:27.296875,-10.31
10:03:27.312500,-8.81
10:03:27.328125,-7.02
10:03:27.343750,-5.00
10:03:27.359375,-2.85
10:03:27.375000,-0.81
10:03:27.390625,0.90
10:03:27.406250,2.12
10:03:27.421875,2.82
10:03:27.437500,3.13
10:03:27.453125,3.26
10:03:27.468750,3.39
10:03:27.484375,3.56
10:03:27.500000,3.69
10:03:27.515625,3.66
10:03:27.531250,3.41
10:03:27.546875,3.04
10:03:27.562500,2.76
10:03:27.578125,2.77
10:03:27.593750,3.18
10:03:27.609375,3.93
10:03:27.625000,4.82
10:03:27.640625,5.60
10:03:27.656250,6.12
10:03:27.671875,6.34
10:03:27.687500,6.33
10:03:27.703125,6.23
10:03:27.718750,6.12
10:03:27.734375,6.01
10:03:27.750000,5.86
10:03:27.765625,5.57
10:03:27.781250,5.11
10:03:27.796875,4.49
10:03:27.812500,3.74
10:03:27.828125,2.92
10:03:27.843750,2.06
10:03:27.859375,1.12
10:03:27.875000,0.09
10:03:27.890625,-1.04
10:03:27.906250,-2.19
10:03:27.921875,-3.29
10:03:27.937500,-4.25
10:03:27.953125,-5.06
10:03:27.968750,-5.84
10:03:27.984375,-6.73
10:03:28,-7.88
10:03:28.015625,-9.34
10:03:28.031250,-11.04
10:03:28.046875,-12.84
10:03:28.062500,-14.61
10:03:28.078125,-16.21
10:03:28.093750,-17.59
10:03:28.109375,-18.64
10:03:28.125000,-19.24
10:03:28.140625,-19.22
10:03:28.156250,-18.46
10:03:28.171875,-16.91
10:03:28.187500,-14.60
10:03:28.203125,-11.69
10:03:28.218750,-8.35
10:03:28.234375,-4.79
10:03:28.250000,-1.24
10:03:28.265625,2.04
10:03:28.281250,4.71
10:03:28.296875,6.48
10:03:28.312500,7.18
10:03:28.328125,6.83
10:03:28.343750,5.72
10:03:28.359375,4.32
10:03:28.375000,3.12
10:03:28.390625,2.51
10:03:28.406250,2.64
10:03:28.421875,3.41
10:03:28.437500,4.55
10:03:28.453125,5.78
10:03:28.468750,6.89
10:03:28.484375,7.78
10:03:28.500000,8.45
10:03:28.515625,8.92
10:03:28.531250,9.21
10:03:28.546875,9.35
10:03:28.562500,9.36
10:03:28.578125,9.27
10:03:28.593750,9.11
10:03:28.609375,8.85
10:03:28.625000,8.41
10:03:28.640625,7.65
10:03:28.656250,6.42
10:03:28.671875,4.65
10:03:28.687500,2.35
10:03:28.703125,-0.30
10:03:28.718750,-2.96
10:03:28.734375,-5.19
10:03:28.750000,-6.58
10:03:28.765625,-6.85
10:03:28.781250,-6.05
10:03:28.796875,-4.60
10:03:28.812500,-3.18
10:03:28.828125,-2.51
10:03:28.843750,-3.07
10:03:28.859375,-4.93
10:03:28.875000,-7.66
10:03:28.890625,-10.59
10:03:28.906250,-13.09
10:03:28.921875,-14.80
10:03:28.937500,-15.75
10:03:28.953125,-16.27
10:03:28.968750,-16.73
10:03:28.984375,-17.35
10:03:29,-18.04
10:03:29.015625,-18.49
10:03:29.031250,-18.29
10:03:29.046875,-17.14
10:03:29.062500,-14.99
10:03:29.078125,-12.01
10:03:29.093750,-8.56
10:03:29.109375,-5.03
10:03:29.125000,-1.78
10:03:29.140625,0.99
10:03:29.156250,3.24
10:03:29.171875,5.01
10:03:29.187500,6.43
10:03:29.203125,7.53
10:03:29.218750,8.31
10:03:29.234375,8.72
10:03:29.250000,8.71
10:03:29.265625,8.37
10:03:29.281250,7.90
10:03:29.296875,7.53
10:03:29.312500,7.51
10:03:29.328125,7.89
10:03:29.343750,8.56
10:03:29.359375,9.30
10:03:29.375000,9.90
10:03:29.390625,10.26
10:03:29.406250,10.47
10:03:29.421875,10.71
10:03:29.437500,11.13
10:03:29.453125,11.72
10:03:29.468750,12.29
10:03:29.484375,12.56
10:03:29.500000,12.28
10:03:29.515625,11.39
10:03:29.531250,10.04
10:03:29.546875,8.52
10:03:29.562500,7.11
10:03:29.578125,6.00
10:03:29.593750,5.21
10:03:29.609375,4.61
10:03:29.625000,4.05
10:03:29.640625,3.42
10:03:29.656250,2.65
10:03:29.671875,1.74
10:03:29.687500,0.71
10:03:29.703125,-0.42
10:03:29.718750,-1.64
10:03:29.734375,-2.88
10:03:29.750000,-4.12
10:03:29.765625,-5.28
10:03:29.781250,-6.32
10:03:29.796875,-7.27
10:03:29.812500,-8.21
10:03:29.828125,-9.30
10:03:29.843750,-10.68
10:03:29.859375,-12.40
10:03:29.875000,-14.35
10:03:29.890625,-16.26
10:03:29.906250,-17.78
10:03:29.921875,-18.55
10:03:29.937500,-18.40
10:03:29.953125,-17.27
10:03:29.968750,-15.24
10:03:29.984375,-12.46
10:03:30,-9.08
10:03:30.015625,-5.32
10:03:30.031250,-1.43
10:03:30.046875,2.28
10:03:30.062500,5.48
10:03:30.078125,7.91
10:03:30.093750,9.46
10:03:30.109375,10.22
10:03:30.125000,10.42
10:03:30.140625,10.35
10:03:30.156250,10.19
10:03:30.171875,10.07
10:03:30.187500,9.95
10:03:30.203125,9.83
10:03:30.218750,9.70
10:03:30.234375,9.62
10:03:30.250000,9.69
10:03:30.265625,9.98
10:03:30.281250,10.48
10:03:30.296875,11.09
10:03:30.312500,11.66
10:03:30.328125,12.06
10:03:30.343750,12.27
10:03:30.359375,12.31
10:03:30.375000,12.23
10:03:30.390625,12.05
10:03:30.406250,11.71
10:03:30.421875,11.10
10:03:30.437500,10.15
10:03:30.453125,8.92
10:03:30.468750,7.55
10:03:30.484375,6.26
10:03:30.500000,5.20
10:03:30.515625,4.38
10:03:30.531250,3.70
10:03:30.546875,2.98
10:03:30.562500,2.13
10:03:30.578125,1.17
10:03:30.593750,0.22
10:03:30.609375,-0.63
10:03:30.625000,-1.39
10:03:30.640625,-2.18
10:03:30.656250,-3.15
10:03:30.671875,-4.33
10:03:30.687500,-5.66
10:03:30.703125,-7.02
10:03:30.718750,-8.32
10:03:30.734375,-9.56
10:03:30.750000,-10.87
10:03:30.765625,-12.36
10:03:30.781250,-14.07
10:03:30.796875,-15.89
10:03:30.812500,-17.59
10:03:30.828125,-18.86
10:03:30.843750,-19.42
10:03:30.859375,-19.05
10:03:30.875000,-17.71
10:03:30.890625,-15.51
10:03:30.906250,-12.74
10:03:30.921875,-9.81
10:03:30.937500,-7.13
10:03:30.953125,-4.98
10:03:30.968750,-3.38
10:03:30.984375,-2.11
10:03:31,-0.82
10:03:31.015625,0.75
10:03:31.031250,2.68
10:03:31.046875,4.82
10:03:31.062500,6.88
10:03:31.078125,8.65
10:03:31.093750,9.97
10:03:31.109375,10.93
10:03:31.125000,11.67
10:03:31.140625,12.32
10:03:31.156250,12.99
10:03:31.171875,13.65
10:03:31.187500,14.30
10:03:31.203125,14.89
10:03:31.218750,15.41
10:03:31.234375,15.89
10:03:31.250000,16.34
10:03:31.265625,16.80
10:03:31.281250,17.24
10:03:31.296875,17.61
10:03:31.312500,17.73
10:03:31.328125,17.39
10:03:31.343750,16.45
10:03:31.359375,14.96
10:03:31.375000,13.15
10:03:31.390625,11.43
10:03:31.406250,10.14
10:03:31.421875,9.41
10:03:31.437500,9.11
10:03:31.453125,8.90
10:03:31.468750,8.45
10:03:31.484375,7.54
10:03:31.500000,6.18
10:03:31.515625,4.51
10:03:31.531250,2.74
10:03:31.546875,1.03
10:03:31.562500,-0.53
10:03:31.578125,-1.89
10:03:31.593750,-3.08
10:03:31.609375,-4.13
10:03:31.625000,-5.08
10:03:31.640625,-5.98
10:03:31.656250,-6.88
10:03:31.671875,-7.89
10:03:31.687500,-9.15
10:03:31.703125,-10.80
10:03:31.718750,-12.87
10:03:31.734375,-15.21
10:03:31.750000,-17.40
10:03:31.765625,-18.92
10:03:31.781250,-19.36
10:03:31.796875,-18.50
10:03:31.812500,-16.49
10:03:31.828125,-13.62
10:03:31.843750,-10.26
10:03:31.859375,-6.67
10:03:31.875000,-3.00
10:03:31.890625,0.60
10:03:31.906250,3.94
10:03:31.921875,6.80
10:03:31.937500,8.94
10:03:31.953125,10.25
10:03:31.968750,10.72
10:03:31.984375,10.50
10:03:32,9.77
10:03:32.015625,8.75
10:03:32.031250,7.66
10:03:32.046875,6.70
10:03:32.062500,6.03
10:03:32.078125,5.74
10:03:32.093750,5.86
10:03:32.109375,6.30
10:03:32.125000,6.99
10:03:32.140625,7.79
10:03:32.156250,8.59
10:03:32.171875,9.27
10:03:32.187500,9.74
10:03:32.203125,9.97
10:03:32.218750,10.00
10:03:32.234375,9.91
10:03:32.250000,9.74
10:03:32.265625,9.45
10:03:32.281250,8.91
10:03:32.296875,8.03
10:03:32.312500,6.81
10:03:32.328125,5.41
10:03:32.343750,4.03
10:03:32.359375,2.84
10:03:32.375000,1.86
10:03:32.390625,0.93
10:03:32.406250,-0.14
10:03:32.421875,-1.49
10:03:32.437500,-3.06
10:03:32.453125,-4.65
10:03:32.468750,-6.02
10:03:32.484375,-7.04
10:03:32.500000,-7.75
10:03:32.515625,-8.38
10:03:32.531250,-9.23
10:03:32.546875,-10.53
10:03:32.562500,-12.32
10:03:32.578125,-14.47
10:03:32.593750,-16.70
10:03:32.609375,-18.70
10:03:32.625000,-20.22
10:03:32.640625,-21.08
10:03:32.656250,-21.14
10:03:32.671875,-20.30
10:03:32.687500,-18.47
10:03:32.703125,-15.67
10:03:32.718750,-12.01
10:03:32.734375,-7.78
10:03:32.750000,-3.39
10:03:32.765625,0.68
10:03:32.781250,4.03
10:03:32.796875,6.44
10:03:32.812500,7.90
10:03:32.828125,8.59
10:03:32.843750,8.73
10:03:32.859375,8.53
10:03:32.875000,8.08
10:03:32.890625,7.44
10:03:32.906250,6.67
10:03:32.921875,5.90
10:03:32.937500,5.34
10:03:32.953125,5.18
10:03:32.968750,5.48
10:03:32.984375,6.20
10:03:33,7.12
10:03:33.015625,8.03
10:03:33.031250,8.74
10:03:33.046875,9.17
10:03:33.062500,9.32
10:03:33.078125,9.22
10:03:33.093750,8.93
10:03:33.109375,8.47
10:03:33.125000,7.89
10:03:33.140625,7.20
10:03:33.156250,6.44
10:03:33.171875,5.59
10:03:33.187500,4.65
10:03:33.203125,3.60
10:03:33.218750,2.46
10:03:33.234375,1.24
10:03:33.250000,-0.06
10:03:33.265625,-1.45
10:03:33.281250,-2.92
10:03:33.296875,-4.46
10:03:33.312500,-5.99
10:03:33.328125,-7.48
10:03:33.343750,-8.91
10:03:33.359375,-10.34
10:03:33.375000,-11.89
10:03:33.390625,-13.70
10:03:33.406250,-15.82
10:03:33.421875,-18.11
10:03:33.437500,-20.24
10:03:33.453125,-21.74
10:03:33.468750,-22.18
10:03:33.484375,-21.32
10:03:33.500000,-19.21
10:03:33.515625,-16.15
10:03:33.531250,-12.57
10:03:33.546875,-8.86
10:03:33.562500,-5.24
10:03:33.578125,-1.79
10:03:33.593750,1.46
10:03:33.609375,4.47
10:03:33.625000,7.11
10:03:33.640625,9.18
10:03:33.656250,10.53
10:03:33.671875,11.12
10:03:33.687500,11.05
10:03:33.703125,10.57
10:03:33.718750,9.91
10:03:33.734375,9.29
10:03:33.750000,8.80
10:03:33.765625,8.44
10:03:33.781250,8.20
10:03:33.796875,8.07
10:03:33.812500,8.10
10:03:33.828125,8.34
10:03:33.843750,8.86
10:03:33.859375,9.64
10:03:33.875000,10.53
10:03:33.890625,11.31
10:03:33.906250,11.76
10:03:33.921875,11.71
10:03:33.937500,11.13
10:03:33.953125,10.13
10:03:33.968750,8.81
10:03:33.984375,7.28
10:03:34,5.61
10:03:34.015625,3.80
10:03:34.031250,1.90
10:03:34.046875,-0.00
10:03:34.062500,-1.78
10:03:34.078125,-3.35
10:03:34.093750,-4.69
10:03:34.109375,-5.91
10:03:34.125000,-7.13
10:03:34.140625,-8.48
10:03:34.156250,-10.01
10:03:34.171875,-11.67
10:03:34.187500,-13.40
10:03:34.203125,-15.15
10:03:34.218750,-16.91
10:03:34.234375,-18.66
10:03:34.250000,-20.24
10:03:34.265625,-21.35
10:03:34.281250,-21.61
10:03:34.296875,-20.68
10:03:34.312500,-18.43
10:03:34.328125,-15.01
10:03:34.343750,-10.82
10:03:34.359375,-6.33
10:03:34.375000,-1.99
10:03:34.390625,1.94
10:03:34.406250,5.30
10:03:34.421875,8.02
10:03:34.437500,10.07
10:03:34.453125,11.38
10:03:34.468750,11.92
10:03:34.484375,11.66
10:03:34.500000,10.73
10:03:34.515625,9.37
10:03:34.531250,7.92
10:03:34.546875,6.70
10:03:34.562500,5.96
10:03:34.578125,5.75
10:03:34.593750,5.93
10:03:34.609375,6.29
10:03:34.625000,6.62
10:03:34.640625,6.83
10:03:34.656250,6.94
10:03:34.671875,7.02
10:03:34.687500,7.10
10:03:34.703125,7.13
10:03:34.718750,6.96
10:03:34.734375,6.46
10:03:34.750000,5.63
10:03:34.765625,4.55
10:03:34.781250,3.40
10:03:34.796875,2.28
10:03:34.812500,1.19
10:03:34.828125,0.07
10:03:34.843750,-1.17
10:03:34.859375,-2.56
10:03:34.875000,-4.00
10:03:34.890625,-5.39
10:03:34.906250,-6.61
10:03:34.921875,-7.70
10:03:34.937500,-8.79
10:03:34.953125,-10.07
10:03:34.968750,-11.69
10:03:34.984375,-13.71
10:03:35,-16.04
10:03:35.015625,-18.43
10:03:35.031250,-20.52
10:03:35.046875,-21.89
10:03:35.062500,-22.17
10:03:35.078125,-21.11
10:03:35.093750,-18.68
10:03:35.109375,-15.06
10:03:35.125000,-10.61
10:03:35.140625,-5.78
10:03:35.156250,-1.00
10:03:35.171875,3.34
10:03:35.187500,7.01
10:03:35.203125,9.83
10:03:35.218750,11.80
10:03:35.234375,12.95
10:03:35.250000,13.43
10:03:35.265625,13.42
10:03:35.281250,13.08
10:03:35.296875,12.54
10:03:35.312500,11.88
10:03:35.328125,11.21
10:03:35.343750,10.68
10:03:35.359375,10.45
10:03:35.375000,10.68
10:03:35.390625,11.44
10:03:35.406250,12.66
10:03:35.421875,14.11
10:03:35.437500,15.55
10:03:35.453125,16.70
10:03:35.468750,17.42
10:03:35.484375,17.66
10:03:35.500000,17.43
10:03:35.515625,16.78
10:03:35.531250,15.73
10:03:35.546875,14.36
10:03:35.562500,12.76
10:03:35.578125,11.10
10:03:35.593750,9.52
10:03:35.609375,8.12
10:03:35.625000,6.88
10:03:35.640625,5.67
10:03:35.656250,4.35
10:03:35.671875,2.81
10:03:35.687500,1.05
10:03:35.703125,-0.88
10:03:35.718750,-2.92
10:03:35.734375,-5.04
10:03:35.750000,-7.29
10:03:35.765625,-9.69
10:03:35.781250,-12.20
10:03:35.796875,-14.67
10:03:35.812500,-16.79
10:03:35.828125,-18.22
10:03:35.843750,-18.60
10:03:35.859375,-17.72
10:03:35.875000,-15.52
10:03:35.890625,-12.19
10:03:35.906250,-8.05
10:03:35.921875,-3.57
10:03:35.937500,0.81
10:03:35.953125,4.70
10:03:35.968750,7.87
10:03:35.984375,10.22
10:03:36,11.70
10:03:36.015625,12.31
10:03:36.031250,12.08
10:03:36.046875,11.10
10:03:36.062500,9.53
10:03:36.078125,7.67
10:03:36.093750,5.87
10:03:36.109375,4.49
10:03:36.125000,3.78
10:03:36.140625,3.81
10:03:36.156250,4.47
10:03:36.171875,5.49
10:03:36.187500,6.58
10:03:36.203125,7.51
10:03:36.218750,8.20
10:03:36.234375,8.70
10:03:36.250000,9.06
10:03:36.265625,9.30
10:03:36.281250,9.33
10:03:36.296875,8.97
10:03:36.312500,8.05
10:03:36.328125,6.55
10:03:36.343750,4.62
10:03:36.359375,2.51
10:03:36.375000,0.53
10:03:36.390625,-1.18
10:03:36.406250,-2.60
10:03:36.421875,-3.84
10:03:36.437500,-5.04
10:03:36.453125,-6.31
10:03:36.468750,-7.69
10:03:36.484375,-9.19
10:03:36.500000,-10.85
10:03:36.515625,-12.71
10:03:36.531250,-14.72
10:03:36.546875,-16.79
10:03:36.562500,-18.66
10:03:36.578125,-20.01
10:03:36.593750,-20.45
10:03:36.609375,-19.70
10:03:36.625000,-17.59
10:03:36.640625,-14.18
10:03:36.656250,-9.73
10:03:36.671875,-4.70
10:03:36.687500,0.37
10:03:36.703125,4.98
10:03:36.718750,8.80
10:03:36.734375,11.70
10:03:36.750000,13.67
10:03:36.765625,14.78
10:03:36.781250,15.10
10:03:36.796875,14.63
10:03:36.812500,13.43
10:03:36.828125,11.67
10:03:36.843750,9.68
10:03:36.859375,7.86
10:03:36.875000,6.58
10:03:36.890625,6.05
10:03:36.906250,6.20
10:03:36.921875,6.82
10:03:36.937500,7.61
10:03:36.953125,8.35
10:03:36.968750,8.93
10:03:36.984375,9.36
10:03:37,9.65
10:03:37.015625,9.79
10:03:37.031250,9.71
10:03:37.046875,9.25
10:03:37.062500,8.31
10:03:37.078125,6.82
10:03:37.093750,4.86
10:03:37.109375,2.60
10:03:37.125000,0.25
10:03:37.140625,-1.98
10:03:37.156250,-3.96
10:03:37.171875,-5.66
10:03:37.187500,-7.13
10:03:37.203125,-8.48
10:03:37.218750,-9.84
10:03:37.234375,-11.37
10:03:37.250000,-13.20
10:03:37.265625,-15.43
10:03:37.281250,-18.02
10:03:37.296875,-20.76
10:03:37.312500,-23.26
10:03:37.328125,-24.99
10:03:37.343750,-25.46
10:03:37.359375,-24.30
10:03:37.375000,-21.44
10:03:37.390625,-17.12
10:03:37.406250,-11.80
10:03:37.421875,-6.02
10:03:37.437500,-0.30
10:03:37.453125,4.92
10:03:37.468750,9.39
10:03:37.484375,12.93
10:03:37.500000,15.42
10:03:37.515625,16.84
10:03:37.531250,17.21
10:03:37.546875,16.67
10:03:37.562500,15.45
10:03:37.578125,13.88
10:03:37.593750,12.28
10:03:37.609375,10.97
10:03:37.625000,10.12
10:03:37.640625,9.82
10:03:37.656250,9.99
10:03:37.671875,10.48
10:03:37.687500,11.06
10:03:37.703125,11.55
10:03:37.718750,11.81
10:03:37.734375,11.84
10:03:37.750000,11.70
10:03:37.765625,11.46
10:03:37.781250,11.12
10:03:37.796875,10.59
10:03:37.812500,9.75
10:03:37.828125,8.50
10:03:37.843750,6.80
10:03:37.859375,4.77
10:03:37.875000,2.51
10:03:37.890625,0.23
10:03:37.906250,-1.95
10:03:37.921875,-3.91
10:03:37.937500,-5.63
10:03:37.953125,-7.16
10:03:37.968750,-8.65
10:03:37.984375,-10.23
10:03:38,-12.04
10:03:38.015625,-14.16
10:03:38.031250,-16.56
10:03:38.046875,-19.17
10:03:38.062500,-21.78
10:03:38.078125,-24.08
10:03:38.093750,-25.57
10:03:38.109375,-25.74
10:03:38.125000,-24.14
10:03:38.140625,-20.63
10:03:38.156250,-15.48
10:03:38.171875,-9.39
10:03:38.187500,-3.22
10:03:38.203125,2.29
10:03:38.218750,6.68
10:03:38.234375,9.89
10:03:38.250000,12.09
10:03:38.265625,13.50
10:03:38.281250,14.25
10:03:38.296875,14.37
10:03:38.312500,13.89
10:03:38.328125,12.89
10:03:38.343750,11.60
10:03:38.359375,10.32
10:03:38.375000,9.37
10:03:38.390625,8.91
10:03:38.406250,8.96
10:03:38.421875,9.35
10:03:38.437500,9.89
10:03:38.453125,10.39
10:03:38.468750,10.79
10:03:38.484375,11.12
10:03:38.500000,11.40
10:03:38.515625,11.56
10:03:38.531250,11.44
10:03:38.546875,10.84
10:03:38.562500,9.63
10:03:38.578125,7.83
10:03:38.593750,5.65
10:03:38.609375,3.38
10:03:38.625000,1.32
10:03:38.640625,-0.37
10:03:38.656250,-1.69
10:03:38.671875,-2.77
10:03:38.687500,-3.81
10:03:38.703125,-5.01
10:03:38.718750,-6.48
10:03:38.734375,-8.22
10:03:38.750000,-10.19
10:03:38.765625,-12.36
10:03:38.781250,-14.74
10:03:38.796875,-17.37
10:03:38.812500,-20.19
10:03:38.828125,-22.90
10:03:38.843750,-24.98
10:03:38.859375,-25.76
10:03:38.875000,-24.73
10:03:38.890625,-21.81
10:03:38.906250,-17.36
10:03:38.921875,-12.12
10:03:38.937500,-6.85
10:03:38.953125,-2.11
10:03:38.968750,1.91
10:03:38.984375,5.21
10:03:39,7.89
10:03:39.015625,9.97
10:03:39.031250,11.39
10:03:39.046875,12.16
10:03:39.062500,12.40
10:03:39.078125,12.36
10:03:39.093750,12.30
10:03:39.109375,12.32
10:03:39.125000,12.35
10:03:39.140625,12.17
10:03:39.156250,11.59
10:03:39.171875,10.52
10:03:39.187500,9.05
10:03:39.203125,7.40
10:03:39.218750,5.72
10:03:39.234375,4.11
10:03:39.250000,2.47
10:03:39.265625,0.70
10:03:39.281250,-1.24
10:03:39.296875,-3.27
10:03:39.312500,-5.15
10:03:39.328125,-6.64
10:03:39.343750,-7.56
10:03:39.359375,-7.92
10:03:39.375000,-7.87
10:03:39.390625,-7.66
10:03:39.406250,-7.50
10:03:39.421875,-7.50
10:03:39.437500,-7.67
10:03:39.453125,-7.96
10:03:39.468750,-8.36
10:03:39.484375,-8.83
10:03:39.500000,-9.37
10:03:39.515625,-9.96
10:03:39.531250,-10.54
10:03:39.546875,-11.09
10:03:39.562500,-11.67
10:03:39.578125,-12.42
10:03:39.593750,-13.53
10:03:39.609375,-15.19
10:03:39.625000,-17.41
10:03:39.640625,-20.02
10:03:39.656250,-22.59
10:03:39.671875,-24.54
10:03:39.687500,-25.31
10:03:39.703125,-24.49
10:03:39.718750,-21.98
10:03:39.734375,-17.98
10:03:39.750000,-12.92
10:03:39.765625,-7.29
10:03:39.781250,-1.53
10:03:39.796875,4.04
10:03:39.812500,9.22
10:03:39.828125,13.88
10:03:39.843750,17.90
10:03:39.859375,21.17
10:03:39.875000,23.58
10:03:39.890625,25.15
10:03:39.906250,25.96
10:03:39.921875,26.19
10:03:39.937500,26.09
10:03:39.953125,25.88
10:03:39.968750,25.75
10:03:39.984375,25.80
10:03:40,26.08
10:03:40.015625,26.53
10:03:40.031250,27.03
10:03:40.046875,27.40
10:03:40.062500,27.49
10:03:40.078125,27.20
10:03:40.093750,26.56
10:03:40.109375,25.70
10:03:40.125000,24.75
10:03:40.140625,23.85
10:03:40.156250,23.06
10:03:40.171875,22.39
10:03:40.187500,21.76
10:03:40.203125,21.06
10:03:40.218750,20.16
10:03:40.234375,18.95
10:03:40.250000,17.38
10:03:40.265625,15.44
10:03:40.281250,13.27
10:03:40.296875,11.02
10:03:40.312500,8.88
10:03:40.328125,6.99
10:03:40.343750,5.43
10:03:40.359375,4.22
10:03:40.375000,3.31
10:03:40.390625,2.63
10:03:40.406250,2.09
10:03:40.421875,1.58
10:03:40.437500,0.99
10:03:40.453125,0.24
10:03:40.468750,-0.74
10:03:40.484375,-1.95
10:03:40.500000,-3.34
10:03:40.515625,-4.87
10:03:40.531250,-6.51
10:03:40.546875,-8.26
10:03:40.562500,-10.12
10:03:40.578125,-12.04
10:03:40.593750,-13.94
10:03:40.609375,-15.69
10:03:40.625000,-17.20
10:03:40.640625,-18.46
10:03:40.656250,-19.60
10:03:40.671875,-20.78
10:03:40.687500,-22.11
10:03:40.703125,-23.55
10:03:40.718750,-24.87
10:03:40.734375,-25.77
10:03:40.750000,-25.95
10:03:40.765625,-25.28
10:03:40.781250,-23.83
10:03:40.796875,-21.78
10:03:40.812500,-19.32
10:03:40.828125,-16.57
10:03:40.843750,-13.59
10:03:40.859375,-10.41
10:03:40.875000,-7.13
10:03:40.890625,-3.98
10:03:40.906250,-1.19
10:03:40.921875,1.04
10:03:40.937500,2.70
10:03:40.953125,3.91
10:03:40.968750,4.91
10:03:40.984375,5.94
10:03:41,7.11
10:03:41.015625,8.40
10:03:41.031250,9.65
10:03:41.046875,10.67
10:03:41.062500,11.31
10:03:41.078125,11.51
10:03:41.093750,11.32
10:03:41.109375,10.84
10:03:41.125000,10.15
10:03:41.140625,9.34
10:03:41.156250,8.45
10:03:41.171875,7.53
10:03:41.187500,6.62
10:03:41.203125,5.76
10:03:41.218750,4.95
10:03:41.234375,4.17
10:03:41.250000,3.34
10:03:41.265625,2.34
10:03:41.281250,1.09
10:03:41.296875,-0.41
10:03:41.312500,-2.09
10:03:41.328125,-3.83
10:03:41.343750,-5.62
10:03:41.359375,-7.50
10:03:41.375000,-9.60
10:03:41.390625,-12.01
10:03:41.406250,-14.64
10:03:41.421875,-17.22
10:03:41.437500,-19.32
10:03:41.453125,-20.51
10:03:41.468750,-20.49
10:03:41.484375,-19.24
10:03:41.500000,-16.92
10:03:41.515625,-13.85
10:03:41.531250,-10.32
10:03:41.546875,-6.59
10:03:41.562500,-2.86
10:03:41.578125,0.68
10:03:41.593750,3.87
10:03:41.609375,6.52
10:03:41.625000,8.52
10:03:41.640625,9.83
10:03:41.656250,10.50
10:03:41.671875,10.61
10:03:41.687500,10.36
10:03:41.703125,9.95
10:03:41.718750,9.62
10:03:41.734375,9.51
10:03:41.750000,9.70
10:03:41.765625,10.11
10:03:41.781250,10.59
10:03:41.796875,11.02
10:03:41.812500,11.29
10:03:41.828125,11.40
10:03:41.843750,11.37
10:03:41.859375,11.18
10:03:41.875000,10.82
10:03:41.890625,10.22
10:03:41.906250,9.35
10:03:41.921875,8.21
10:03:41.937500,6.81
10:03:41.953125,5.26
10:03:41.968750,3.67
10:03:41.984375,2.20
10:03:42,0.99
10:03:42.015625,0.09
10:03:42.031250,-0.53
10:03:42.046875,-1.00
10:03:42.062500,-1.50
10:03:42.078125,-2.19
10:03:42.093750,-3.08
10:03:42.109375,-4.13
10:03:42.125000,-5.22
10:03:42.140625,-6.31
10:03:42.156250,-7.40
10:03:42.171875,-8.59
10:03:42.187500,-9.97
10:03:42.203125,-11.57
10:03:42.218750,-13.36
10:03:42.234375,-15.28
10:03:42.250000,-17.30
10:03:42.265625,-19.41
10:03:42.281250,-21.59
10:03:42.296875,-23.69
10:03:42.312500,-25.44
10:03:42.328125,-26.41
10:03:42.343750,-26.22
10:03:42.359375,-24.61
10:03:42.375000,-21.65
10:03:42.390625,-17.65
10:03:42.406250,-13.10
10:03:42.421875,-8.49
10:03:42.437500,-4.16
10:03:42.453125,-0.26
10:03:42.468750,3.15
10:03:42.484375,6.06
10:03:42.500000,8.42
10:03:42.515625,10.17
10:03:42.531250,11.24
10:03:42.546875,11.66
10:03:42.562500,11.53
10:03:42.578125,11.02
10:03:42.593750,10.35
10:03:42.609375,9.75
10:03:42.625000,9.43
10:03:42.640625,9.51
10:03:42.656250,10.00
10:03:42.671875,10.82
10:03:42.687500,11.79
10:03:42.703125,12.74
10:03:42.718750,13.48
10:03:42.734375,13.97
10:03:42.750000,14.20
10:03:42.765625,14.22
10:03:42.781250,14.08
10:03:42.796875,13.79
10:03:42.812500,13.33
10:03:42.828125,12.66
10:03:42.843750,11.75
10:03:42.859375,10.60
10:03:42.875000,9.25
10:03:42.890625,7.72
10:03:42.906250,6.09
10:03:42.921875,4.42
10:03:42.937500,2.77
10:03:42.953125,1.18
10:03:42.968750,-0.30
10:03:42.984375,-1.65
10:03:43,-2.88
10:03:43.015625,-4.04
10:03:43.031250,-5.19
10:03:43.046875,-6.44
10:03:43.062500,-7.84
10:03:43.078125,-9.39
10:03:43.093750,-10.99
10:03:43.109375,-12.48
10:03:43.125000,-13.74
10:03:43.140625,-14.73
10:03:43.156250,-15.63
10:03:43.171875,-16.75
10:03:43.187500,-18.39
10:03:43.203125,-20.68
10:03:43.218750,-23.45
10:03:43.234375,-26.24
10:03:43.250000,-28.42
10:03:43.265625,-29.39
10:03:43.281250,-28.76
10:03:43.296875,-26.52
10:03:43.312500,-22.91
10:03:43.328125,-18.40
10:03:43.343750,-13.50
10:03:43.359375,-8.60
10:03:43.375000,-4.01
10:03:43.390625,0.10
10:03:43.406250,3.65
10:03:43.421875,6.60
10:03:43.437500,8.94
10:03:43.453125,10.69
10:03:43.468750,11.88
10:03:43.484375,12.57
10:03:43.500000,12.85
10:03:43.515625,12.81
10:03:43.531250,12.53
10:03:43.546875,12.11
10:03:43.562500,11.67
10:03:43.578125,11.37
10:03:43.593750,11.32
10:03:43.609375,11.60
10:03:43.625000,12.17
10:03:43.640625,12.88
10:03:43.656250,13.55
10:03:43.671875,14.03
10:03:43.687500,14.25
10:03:43.703125,14.23
10:03:43.718750,14.02
10:03:43.734375,13.62
10:03:43.750000,13.01
10:03:43.765625,12.16
10:03:43.781250,11.09
10:03:43.796875,9.91
10:03:43.812500,8.73
10:03:43.828125,7.62
10:03:43.843750,6.60
10:03:43.859375,5.58
10:03:43.875000,4.46
10:03:43.890625,3.23
10:03:43.906250,1.95
10:03:43.921875,0.73
10:03:43.937500,-0.32
10:03:43.953125,-1.18
10:03:43.968750,-1.89
10:03:43.984375,-2.60
10:03:44,-3.41
10:03:44.015625,-4.45
10:03:44.031250,-5.70
10:03:44.046875,-7.12
10:03:44.062500,-8.58
10:03:44.078125,-9.95
10:03:44.093750,-11.23
10:03:44.109375,-12.49
10:03:44.125000,-13.93
10:03:44.140625,-15.76
10:03:44.156250,-18.12
10:03:44.171875,-20.97
10:03:44.187500,-24.09
10:03:44.203125,-27.10
10:03:44.218750,-29.50
10:03:44.234375,-30.86
10:03:44.250000,-30.83
10:03:44.265625,-29.25
10:03:44.281250,-26.21
10:03:44.296875,-21.97
10:03:44.312500,-16.96
10:03:44.328125,-11.68
10:03:44.343750,-6.62
10:03:44.359375,-2.12
10:03:44.375000,1.62
10:03:44.390625,4.63
10:03:44.406250,7.01
10:03:44.421875,8.93
10:03:44.437500,10.48
10:03:44.453125,11.66
10:03:44.468750,12.45
10:03:44.484375,12.81
10:03:44.500000,12.81
10:03:44.515625,12.59
10:03:44.531250,12.29
10:03:44.546875,12.07
10:03:44.562500,11.95
10:03:44.578125,11.96
10:03:44.593750,12.08
10:03:44.609375,12.33
10:03:44.625000,12.77
10:03:44.640625,13.39
10:03:44.656250,14.10
10:03:44.671875,14.73
10:03:44.687500,15.06
10:03:44.703125,14.91
10:03:44.718750,14.29
10:03:44.734375,13.28
10:03:44.750000,12.08
10:03:44.765625,10.89
10:03:44.781250,9.82
10:03:44.796875,8.95
10:03:44.812500,8.24
10:03:44.828125,7.62
10:03:44.843750,6.99
10:03:44.859375,6.28
10:03:44.875000,5.41
10:03:44.890625,4.35
10:03:44.906250,3.12
10:03:44.921875,1.76
10:03:44.937500,0.40
10:03:44.953125,-0.88
10:03:44.968750,-2.00
10:03:44.984375,-2.99
10:03:45,-3.93
10:03:45.015625,-4.97
10:03:45.031250,-6.22
10:03:45.046875,-7.74
10:03:45.062500,-9.53
10:03:45.078125,-11.50
10:03:45.093750,-13.55
10:03:45.109375,-15.56
10:03:45.125000,-17.54
10:03:45.140625,-19.53
10:03:45.156250,-21.64
10:03:45.171875,-23.96
10:03:45.187500,-26.44
10:03:45.203125,-28.91
10:03:45.218750,-30.98
10:03:45.234375,-32.16
10:03:45.250000,-32.04
10:03:45.265625,-30.38
10:03:45.281250,-27.26
10:03:45.296875,-23.07
10:03:45.312500,-18.37
10:03:45.328125,-13.77
10:03:45.343750,-9.69
10:03:45.359375,-6.37
10:03:45.375000,-3.85
10:03:45.390625,-2.02
10:03:45.406250,-0.64
10:03:45.421875,0.52
10:03:45.437500,1.73
10:03:45.453125,3.17
10:03:45.468750,4.89
10:03:45.484375,6.84
10:03:45.500000,8.89
10:03:45.515625,10.89
10:03:45.531250,12.79
10:03:45.546875,14.59
10:03:45.562500,16.35
10:03:45.578125,18.05
10:03:45.593750,19.63
10:03:45.609375,20.95
10:03:45.625000,21.92
10:03:45.640625,22.50
10:03:45.656250,22.74
10:03:45.671875,22.70
10:03:45.687500,22.43
10:03:45.703125,21.97
10:03:45.718750,21.31
10:03:45.734375,20.47
10:03:45.750000,19.44
10:03:45.765625,18.22
10:03:45.781250,16.79
10:03:45.796875,15.19
10:03:45.812500,13.51
10:03:45.828125,11.88
10:03:45.843750,10.47
10:03:45.859375,9.29
10:03:45.875000,8.27
10:03:45.890625,7.24
10:03:45.906250,6.03
10:03:45.921875,4.60
10:03:45.937500,3.02
10:03:45.953125,1.42
10:03:45.968750,-0.10
10:03:45.984375,-1.53
10:03:46,-2.93
10:03:46.015625,-4.43
10:03:46.031250,-6.11
10:03:46.046875,-7.95
10:03:46.062500,-9.92
10:03:46.078125,-11.95
10:03:46.093750,-14.03
10:03:46.109375,-16.21
10:03:46.125000,-18.55
10:03:46.140625,-21.12
10:03:46.156250,-23.91
10:03:46.171875,-26.79
10:03:46.187500,-29.51
10:03:46.203125,-31.72
10:03:46.218750,-33.11
10:03:46.234375,-33.46
10:03:46.250000,-32.70
10:03:46.265625,-30.91
10:03:46.281250,-28.26
10:03:46.296875,-24.99
10:03:46.312500,-21.32
10:03:46.328125,-17.53
10:03:46.343750,-13.85
10:03:46.359375,-10.45
10:03:46.375000,-7.42
10:03:46.390625,-4.73
10:03:46.406250,-2.31
10:03:46.421875,-0.11
10:03:46.437500,1.85
10:03:46.453125,3.47
10:03:46.468750,4.65
10:03:46.484375,5.37
10:03:46.500000,5.74
10:03:46.515625,5.99
10:03:46.531250,6.35
10:03:46.546875,6.98
10:03:46.562500,7.89
10:03:46.578125,9.02
10:03:46.593750,10.28
10:03:46.609375,11.56
10:03:46.625000,12.83
10:03:46.640625,14.03
10:03:46.656250,15.04
10:03:46.671875,15.74
10:03:46.687500,15.98
10:03:46.703125,15.72
10:03:46.718750,15.06
10:03:46.734375,14.18
10:03:46.750000,13.33
10:03:46.765625,12.63
10:03:46.781250,12.10
10:03:46.796875,11.64
10:03:46.812500,11.12
10:03:46.828125,10.48
10:03:46.843750,9.79
10:03:46.859375,9.16
10:03:46.875000,8.70
10:03:46.890625,8.44
10:03:46.906250,8.35
10:03:46.921875,8.32
10:03:46.937500,8.24
10:03:46.953125,8.03
10:03:46.968750,7.62
10:03:46.984375,7.04
10:03:47,6.31
10:03:47.015625,5.53
10:03:47.031250,4.77
10:03:47.046875,4.11
10:03:47.062500,3.59
10:03:47.078125,3.21
10:03:47.093750,2.98
10:03:47.109375,2.88
10:03:47.125000,2.91
10:03:47.140625,3.06
10:03:47.156250,3.26
10:03:47.171875,3.44
10:03:47.187500,3.51
10:03:47.203125,3.41
10:03:47.218750,3.14
10:03:47.234375,2.74
10:03:47.250000,2.34
10:03:47.265625,2.03
10:03:47.281250,1.91
10:03:47.296875,2.04
10:03:47.312500,2.42
10:03:47.328125,2.97
10:03:47.343750,3.57
10:03:47.359375,4.12
10:03:47.375000,4.51
10:03:47.390625,4.68
10:03:47.406250,4.63
10:03:47.421875,4.38
10:03:47.437500,3.97
10:03:47.453125,3.43
10:03:47.468750,2.84
10:03:47.484375,2.28
10:03:47.500000,1.83
10:03:47.515625,1.52
10:03:47.531250,1.34
10:03:47.546875,1.20
10:03:47.562500,1.04
10:03:47.578125,0.82
10:03:47.593750,0.58
10:03:47.609375,0.41
10:03:47.625000,0.37
10:03:47.640625,0.46
10:03:47.656250,0.64
10:03:47.671875,0.85
10:03:47.687500,1.05
10:03:47.703125,1.25
10:03:47.718750,1.47
10:03:47.734375,1.68
10:03:47.750000,1.83
10:03:47.765625,1.84
10:03:47.781250,1.66
10:03:47.796875,1.29
10:03:47.812500,0.76
10:03:47.828125,0.16
10:03:47.843750,-0.49
10:03:47.859375,-1.13
10:03:47.875000,-1.72
10:03:47.890625,-2.21
10:03:47.906250,-2.53
10:03:47.921875,-2.65
10:03:47.937500,-2.63
10:03:47.953125,-2.65
10:03:47.968750,-2.87
10:03:47.984375,-3.41
10:03:48,-4.24
10:03:48.015625,-5.23
10:03:48.031250,-6.13
10:03:48.046875,-6.78
10:03:48.062500,-7.12
10:03:48.078125,-7.27
10:03:48.093750,-7.40
10:03:48.109375,-7.74
10:03:48.125000,-8.43
10:03:48.140625,-9.54
10:03:48.156250,-11.10
10:03:48.171875,-13.06
10:03:48.187500,-15.35
10:03:48.203125,-17.80
10:03:48.218750,-20.17
10:03:48.234375,-22.15
10:03:48.250000,-23.46
10:03:48.265625,-23.89
10:03:48.281250,-23.42
10:03:48.296875,-22.13
10:03:48.312500,-20.27
10:03:48.328125,-18.04
10:03:48.343750,-15.66
10:03:48.359375,-13.25
10:03:48.375000,-10.87
10:03:48.390625,-8.56
10:03:48.406250,-6.35
10:03:48.421875,-4.30
10:03:48.437500,-2.50
10:03:48.453125,-0.98
10:03:48.468750,0.24
10:03:48.484375,1.20
10:03:48.500000,1.96
10:03:48.515625,2.59
10:03:48.531250,3.12
10:03:48.546875,3.59
10:03:48.562500,3.99
10:03:48.578125,4.32
10:03:48.593750,4.57
10:03:48.609375,4.67
10:03:48.625000,4.47
10:03:48.640625,3.81
10:03:48.656250,2.53
10:03:48.671875,0.57
10:03:48.687500,-1.96
10:03:48.703125,-4.81
10:03:48.718750,-7.58
10:03:48.734375,-9.88
10:03:48.750000,-11.38
10:03:48.765625,-11.93
10:03:48.781250,-11.57
10:03:48.796875,-10.47
10:03:48.812500,-8.91
10:03:48.828125,-7.15
10:03:48.843750,-5.36
10:03:48.859375,-3.68
10:03:48.875000,-2.18
10:03:48.890625,-0.99
10:03:48.906250,-0.24
10:03:48.921875,-0.07
10:03:48.937500,-0.50
10:03:48.953125,-1.40
10:03:48.968750,-2.58
10:03:48.984375,-3.85
10:03:49,-5.19
10:03:49.015625,-6.72
10:03:49.031250,-8.64
10:03:49.046875,-11.08
10:03:49.062500,-13.94
10:03:49.078125,-16.88
10:03:49.093750,-19.48
10:03:49.109375,-21.31
10:03:49.125000,-22.09
10:03:49.140625,-21.63
10:03:49.156250,-19.88
10:03:49.171875,-16.84
10:03:49.187500,-12.64
10:03:49.203125,-7.57
10:03:49.218750,-2.17
10:03:49.234375,2.92
10:03:49.250000,7.07
10:03:49.265625,9.90
10:03:49.281250,11.33
10:03:49.296875,11.59
10:03:49.312500,11.13
10:03:49.328125,10.46
10:03:49.343750,10.02
10:03:49.359375,10.09
10:03:49.375000,10.76
10:03:49.390625,11.94
10:03:49.406250,13.37
10:03:49.421875,14.72
10:03:49.437500,15.71
10:03:49.453125,16.18
10:03:49.468750,16.14
10:03:49.484375,15.75
10:03:49.500000,15.18
10:03:49.515625,14.59
10:03:49.531250,14.02
10:03:49.546875,13.46
10:03:49.562500,12.93
10:03:49.578125,12.49
10:03:49.593750,12.27
10:03:49.609375,12.39
10:03:49.625000,12.95
10:03:49.640625,13.94
10:03:49.656250,15.30
10:03:49.671875,16.94
10:03:49.687500,18.76
10:03:49.703125,20.65
10:03:49.718750,22.40
10:03:49.734375,23.77
10:03:49.750000,24.53
10:03:49.765625,24.58
10:03:49.781250,23.98
10:03:49.796875,22.92
10:03:49.812500,21.63
10:03:49.828125,20.23
10:03:49.843750,18.73
10:03:49.859375,17.15
10:03:49.875000,15.56
10:03:49.890625,14.13
10:03:49.906250,13.11
10:03:49.921875,12.65
10:03:49.937500,12.72
10:03:49.953125,13.11
10:03:49.968750,13.49
10:03:49.984375,13.50
10:03:50,12.93
10:03:50.015625,11.70
10:03:50.031250,9.89
10:03:50.046875,7.69
10:03:50.062500,5.32
10:03:50.078125,2.98
10:03:50.093750,0.77
10:03:50.109375,-1.31
10:03:50.125000,-3.27
10:03:50.140625,-5.13
10:03:50.156250,-6.76
10:03:50.171875,-7.95
10:03:50.187500,-8.44
10:03:50.203125,-8.11
10:03:50.218750,-7.04
10:03:50.234375,-5.46
10:03:50.250000,-3.73
10:03:50.265625,-2.11
10:03:50.281250,-0.78
10:03:50.296875,0.17
10:03:50.312500,0.71
10:03:50.328125,0.76
10:03:50.343750,0.25
10:03:50.359375,-0.87
10:03:50.375000,-2.48
10:03:50.390625,-4.32
10:03:50.406250,-6.03
10:03:50.421875,-7.23
10:03:50.437500,-7.71
10:03:50.453125,-7.45
10:03:50.468750,-6.63
10:03:50.484375,-5.60
10:03:50.500000,-4.63
10:03:50.515625,-3.88
10:03:50.531250,-3.33
10:03:50.546875,-2.77
10:03:50.562500,-1.87
10:03:50.578125,-0.25
10:03:50.593750,2.37
10:03:50.609375,6.10
10:03:50.625000,10.84
10:03:50.640625,16.24
10:03:50.656250,21.73
10:03:50.671875,26.66
10:03:50.687500,30.47
10:03:50.703125,32.77
10:03:50.718750,33.42
10:03:50.734375,32.49
10:03:50.750000,30.10
10:03:50.765625,26.43
10:03:50.781250,21.66
10:03:50.796875,16.03
10:03:50.812500,9.90
10:03:50.828125,3.79
10:03:50.843750,-1.76
10:03:50.859375,-6.27
10:03:50.875000,-9.47
10:03:50.890625,-11.33
10:03:50.906250,-12.09
10:03:50.921875,-12.16
10:03:50.937500,-12.06
10:03:50.953125,-12.23
10:03:50.968750,-13.02
10:03:50.984375,-14.57
10:03:51,-16.77
10:03:51.015625,-19.38
10:03:51.031250,-22.06
10:03:51.046875,-24.56
10:03:51.062500,-26.75
10:03:51.078125,-28.65
10:03:51.093750,-30.32
10:03:51.109375,-31.78
10:03:51.125000,-32.92
10:03:51.140625,-33.52
10:03:51.156250,-33.32
10:03:51.171875,-32.22
10:03:51.187500,-30.31
10:03:51.203125,-27.88
10:03:51.218750,-25.35
10:03:51.234375,-23.12
10:03:51.250000,-21.53
10:03:51.265625,-20.75
10:03:51.281250,-20.85
10:03:51.296875,-21.78
10:03:51.312500,-23.45
10:03:51.328125,-25.67
10:03:51.343750,-28.20
10:03:51.359375,-30.79
10:03:51.375000,-33.21
10:03:51.390625,-35.29
10:03:51.406250,-36.96
10:03:51.421875,-38.20
10:03:51.437500,-39.08
10:03:51.453125,-39.61
10:03:51.468750,-39.77
10:03:51.484375,-39.45
10:03:51.500000,-38.48
10:03:51.515625,-36.74
10:03:51.531250,-34.22
10:03:51.546875,-31.07
10:03:51.562500,-27.59
10:03:51.578125,-24.04
10:03:51.593750,-20.60
10:03:51.609375,-17.26
10:03:51.625000,-13.86
10:03:51.640625,-10.17
10:03:51.656250,-6.02
10:03:51.671875,-1.36
10:03:51.687500,3.74
10:03:51.703125,9.07
10:03:51.718750,14.35
10:03:51.734375,19.23
10:03:51.750000,23.41
10:03:51.765625,26.65
10:03:51.781250,28.82
10:03:51.796875,29.93
10:03:51.812500,30.06
10:03:51.828125,29.37
10:03:51.843750,28.02
10:03:51.859375,26.17
10:03:51.875000,24.01
10:03:51.890625,21.70
10:03:51.906250,19.37
10:03:51.921875,17.15
10:03:51.937500,15.09
10:03:51.953125,13.22
10:03:51.968750,11.56
10:03:51.984375,10.13
10:03:52,8.96
10:03:52.015625,8.08
10:03:52.031250,7.47
10:03:52.046875,7.02
10:03:52.062500,6.60
10:03:52.078125,6.04
10:03:52.093750,5.19
10:03:52.109375,3.97
10:03:52.125000,2.40
10:03:52.140625,0.51
10:03:52.156250,-1.56
10:03:52.171875,-3.65
10:03:52.187500,-5.54
10:03:52.203125,-6.88
10:03:52.218750,-7.31
10:03:52.234375,-6.51
10:03:52.250000,-4.33
10:03:52.265625,-0.92
10:03:52.281250,3.29
10:03:52.296875,7.73
10:03:52.312500,11.85
10:03:52.328125,15.21
10:03:52.343750,17.55
10:03:52.359375,18.65
10:03:52.375000,18.32
10:03:52.390625,16.37
10:03:52.406250,12.80
10:03:52.421875,7.81
10:03:52.437500,1.94
10:03:52.453125,-4.14
10:03:52.468750,-9.72
10:03:52.484375,-14.26
10:03:52.500000,-17.49
10:03:52.515625,-19.38
10:03:52.531250,-20.02
10:03:52.546875,-19.56
10:03:52.562500,-18.12
10:03:52.578125,-15.69
10:03:52.593750,-12.23
10:03:52.609375,-7.68
10:03:52.625000,-2.02
10:03:52.640625,4.58
10:03:52.656250,11.76
10:03:52.671875,18.95
10:03:52.687500,25.52
10:03:52.703125,30.93
10:03:52.718750,34.88
10:03:52.734375,37.35
10:03:52.750000,38.47
10:03:52.765625,38.48
10:03:52.781250,37.56
10:03:52.796875,35.87
10:03:52.812500,33.54
10:03:52.828125,30.73
10:03:52.843750,27.61
10:03:52.859375,24.30
10:03:52.875000,20.87
10:03:52.890625,17.25
10:03:52.906250,13.34
10:03:52.921875,9.01
10:03:52.937500,4.17
10:03:52.953125,-1.24
10:03:52.968750,-7.16
10:03:52.984375,-13.43
10:03:53,-19.79
10:03:53.015625,-25.84
10:03:53.031250,-31.13
10:03:53.046875,-35.21
10:03:53.062500,-37.72
10:03:53.078125,-38.42
10:03:53.093750,-37.24
10:03:53.109375,-34.24
10:03:53.125000,-29.64
10:03:53.140625,-23.82
10:03:53.156250,-17.29
10:03:53.171875,-10.63
10:03:53.187500,-4.40
10:03:53.203125,1.00
10:03:53.218750,5.39
10:03:53.234375,8.82
10:03:53.250000,11.48
10:03:53.265625,13.57
10:03:53.281250,15.26
10:03:53.296875,16.62
10:03:53.312500,17.65
10:03:53.328125,18.34
10:03:53.343750,18.67
10:03:53.359375,18.67
10:03:53.375000,18.36
10:03:53.390625,17.77
10:03:53.406250,17.00
10:03:53.421875,16.17
10:03:53.437500,15.47
10:03:53.453125,15.12
10:03:53.468750,15.24
10:03:53.484375,15.84
10:03:53.500000,16.80
10:03:53.515625,17.85
10:03:53.531250,18.73
10:03:53.546875,19.16
10:03:53.562500,18.98
10:03:53.578125,18.17
10:03:53.593750,16.80
10:03:53.609375,15.04
10:03:53.625000,13.06
10:03:53.640625,11.03
10:03:53.656250,9.04
10:03:53.671875,7.17
10:03:53.687500,5.43
10:03:53.703125,3.82
10:03:53.718750,2.31
10:03:53.734375,0.85
10:03:53.750000,-0.64
10:03:53.765625,-2.23
10:03:53.781250,-3.91
10:03:53.796875,-5.66
10:03:53.812500,-7.35
10:03:53.828125,-8.87
10:03:53.843750,-10.15
10:03:53.859375,-11.26
10:03:53.875000,-12.36
10:03:53.890625,-13.66
10:03:53.906250,-15.39
10:03:53.921875,-17.67
10:03:53.937500,-20.54
10:03:53.953125,-23.89
10:03:53.968750,-27.48
10:03:53.984375,-30.96
10:03:54,-33.84
10:03:54.015625,-35.60
10:03:54.031250,-35.82
10:03:54.046875,-34.27
10:03:54.062500,-31.01
10:03:54.078125,-26.41
10:03:54.093750,-20.96
10:03:54.109375,-15.21
10:03:54.125000,-9.62
10:03:54.140625,-4.51
10:03:54.156250,-0.06
10:03:54.171875,3.67
10:03:54.187500,6.67
10:03:54.203125,8.99
10:03:54.218750,10.70
10:03:54.234375,11.90
10:03:54.250000,12.71
10:03:54.265625,13.24
10:03:54.281250,13.58
10:03:54.296875,13.76
10:03:54.312500,13.81
10:03:54.328125,13.78
10:03:54.343750,13.73
10:03:54.359375,13.76
10:03:54.375000,13.96
10:03:54.390625,14.38
10:03:54.406250,15.02
10:03:54.421875,15.74
10:03:54.437500,16.38
10:03:54.453125,16.77
10:03:54.468750,16.79
10:03:54.484375,16.44
10:03:54.500000,15.73
10:03:54.515625,14.71
10:03:54.531250,13.41
10:03:54.546875,11.86
10:03:54.562500,10.10
10:03:54.578125,8.22
10:03:54.593750,6.31
10:03:54.609375,4.42
10:03:54.625000,2.55
10:03:54.640625,0.65
10:03:54.656250,-1.30
10:03:54.671875,-3.29
10:03:54.687500,-5.20
10:03:54.703125,-6.98
10:03:54.718750,-8.60
10:03:54.734375,-10.20
10:03:54.750000,-12.00
10:03:54.765625,-14.19
10:03:54.781250,-16.80
10:03:54.796875,-19.70
10:03:54.812500,-22.53
10:03:54.828125,-24.85
10:03:54.843750,-26.27
10:03:54.859375,-26.47
10:03:54.875000,-25.28
10:03:54.890625,-22.69
10:03:54.906250,-18.90
10:03:54.921875,-14.24
10:03:54.937500,-9.23
10:03:54.953125,-4.35
10:03:54.968750,0.02
10:03:54.984375,3.71
10:03:55,6.76
10:03:55.015625,9.31
10:03:55.031250,11.45
10:03:55.046875,13.14
10:03:55.062500,14.24
10:03:55.078125,14.64
10:03:55.093750,14.33
10:03:55.109375,13.50
10:03:55.125000,12.46
10:03:55.140625,11.55
10:03:55.156250,11.03
10:03:55.171875,10.98
10:03:55.187500,11.35
10:03:55.203125,12.03
10:03:55.218750,12.86
10:03:55.234375,13.68
10:03:55.250000,14.33
10:03:55.265625,14.63
10:03:55.281250,14.45
10:03:55.296875,13.76
10:03:55.312500,12.65
10:03:55.328125,11.36
10:03:55.343750,10.10
10:03:55.359375,8.99
10:03:55.375000,7.99
10:03:55.390625,6.90
10:03:55.406250,5.55
10:03:55.421875,3.82
10:03:55.437500,1.76
10:03:55.453125,-0.46
10:03:55.468750,-2.65
10:03:55.484375,-4.72
10:03:55.500000,-6.66
10:03:55.515625,-8.54
10:03:55.531250,-10.42
10:03:55.546875,-12.37
10:03:55.562500,-14.39
10:03:55.578125,-16.52
10:03:55.593750,-18.77
10:03:55.609375,-21.09
10:03:55.625000,-23.37
10:03:55.640625,-25.37
10:03:55.656250,-26.76
10:03:55.671875,-27.22
10:03:55.687500,-26.48
10:03:55.703125,-24.47
10:03:55.718750,-21.27
10:03:55.734375,-17.13
10:03:55.750000,-12.40
10:03:55.765625,-7.49
10:03:55.781250,-2.74
10:03:55.796875,1.57
10:03:55.812500,5.25
10:03:55.828125,8.19
10:03:55.843750,10.34
10:03:55.859375,11.66
10:03:55.875000,12.17
10:03:55.890625,11.95
10:03:55.906250,11.20
10:03:55.921875,10.20
10:03:55.937500,9.25
10:03:55.953125,8.59
10:03:55.968750,8.33
10:03:55.984375,8.41
10:03:56,8.67
10:03:56.015625,8.94
10:03:56.031250,9.11
10:03:56.046875,9.15
10:03:56.062500,9.13
10:03:56.078125,9.08
10:03:56.093750,8.99
10:03:56.109375,8.79
10:03:56.125000,8.35
10:03:56.140625,7.58
10:03:56.156250,6.44
10:03:56.171875,4.99
10:03:56.187500,3.38
10:03:56.203125,1.79
10:03:56.218750,0.40
10:03:56.234375,-0.74
10:03:56.250000,-1.63
10:03:56.265625,-2.37
10:03:56.281250,-3.10
10:03:56.296875,-3.93
10:03:56.312500,-4.89
10:03:56.328125,-5.95
10:03:56.343750,-7.05
10:03:56.359375,-8.13
10:03:56.375000,-9.18
10:03:56.390625,-10.26
10:03:56.406250,-11.46
10:03:56.421875,-12.92
10:03:56.437500,-14.73
10:03:56.453125,-16.91
10:03:56.468750,-19.33
10:03:56.484375,-21.70
10:03:56.500000,-23.61
10:03:56.515625,-24.54
10:03:56.531250,-24.07
10:03:56.546875,-22.03
10:03:56.562500,-18.54
10:03:56.578125,-14.05
10:03:56.593750,-9.14
10:03:56.609375,-4.35
10:03:56.625000,-0.07
10:03:56.640625,3.54
