11:46:06,-0.00
11:46:06.015625,-0.00
11:46:06.031250,-0.00
11:46:06.046875,-0.00
11:46:06.062500,-0.00
11:46:06.078125,-0.00
11:46:06.093750,-0.00
11:46:06.109375,-0.00
11:46:06.125000,-0.00
11:46:06.140625,-0.00
11:46:06.156250,0.00
11:46:06.171875,0.01
11:46:06.187500,0.01
11:46:06.203125,-0.00
11:46:06.218750,-0.03
11:46:06.234375,-0.05
11:46:06.250000,-0.05
11:46:06.265625,0.00
11:46:06.281250,0.13
11:46:06.296875,0.36
11:46:06.312500,0.66
11:46:06.328125,1.01
11:46:06.343750,1.37
11:46:06.359375,1.72
11:46:06.375000,2.06
11:46:06.390625,2.40
11:46:06.406250,2.79
11:46:06.421875,3.24
11:46:06.437500,3.80
11:46:06.453125,4.42
11:46:06.468750,5.06
11:46:06.484375,5.66
11:46:06.500000,6.20
11:46:06.515625,6.68
11:46:06.531250,7.15
11:46:06.546875,7.68
11:46:06.562500,8.31
11:46:06.578125,9.14
11:46:06.593750,10.09
11:46:06.609375,11.04
11:46:06.625000,11.88
11:46:06.640625,12.56
11:46:06.656250,13.14
11:46:06.671875,13.76
11:46:06.687500,14.65
11:46:06.703125,15.96
11:46:06.718750,17.91
11:46:06.734375,20.32
11:46:06.750000,22.90
11:46:06.765625,25.38
11:46:06.781250,27.58
11:46:06.796875,29.57
11:46:06.812500,31.68
11:46:06.828125,34.32
11:46:06.843750,37.81
11:46:06.859375,42.54
11:46:06.875000,48.15
11:46:06.890625,54.10
11:46:06.906250,59.83
11:46:06.921875,64.97
11:46:06.937500,69.58
11:46:06.953125,74.14
11:46:06.968750,79.34
11:46:06.984375,85.71
11:46:07,93.76
11:46:07.015625,103.00
11:46:07.031250,112.62
11:46:07.046875,121.73
11:46:07.062500,129.77
11:46:07.078125,136.75
11:46:07.093750,143.30
11:46:07.109375,150.75
11:46:07.125000,157.77
11:46:07.140625,166.64
11:46:07.156250,177.95
11:46:07.171875,191.79
11:46:07.187500,206.97
11:46:07.203125,220.57
11:46:07.218750,228.25
11:46:07.234375,225.36
11:46:07.250000,208.53
11:46:07.265625,176.87
11:46:07.281250,132.76
11:46:07.296875,80.05
11:46:07.312500,23.07
11:46:07.328125,-34.94
11:46:07.343750,-92.44
11:46:07.359375,-149.16
11:46:07.375000,-205.23
11:46:07.390625,-260.37
11:46:07.406250,-313.74
11:46:07.421875,-363.87
11:46:07.437500,-409.83
11:46:07.453125,-450.91
11:46:07.468750,-486.50
11:46:07.484375,-515.74
11:46:07.500000,-537.23
11:46:07.515625,-549.22
11:46:07.531250,-549.96
11:46:07.546875,-538.37
11:46:07.562500,-514.21
11:46:07.578125,-478.67
11:46:07.593750,-433.88
11:46:07.609375,-382.45
11:46:07.625000,-327.02
11:46:07.640625,-269.84
11:46:07.656250,-212.63
11:46:07.671875,-156.66
11:46:07.687500,-102.95
11:46:07.703125,-52.37
11:46:07.718750,-5.90
11:46:07.734375,35.58
11:46:07.750000,71.43
11:46:07.765625,101.35
11:46:07.781250,125.50
11:46:07.796875,144.38
11:46:07.812500,158.69
11:46:07.828125,169.15
11:46:07.843750,176.37
11:46:07.859375,180.75
11:46:07.875000,182.57
11:46:07.890625,182.07
11:46:07.906250,179.51
11:46:07.921875,175.23
11:46:07.937500,169.65
11:46:07.953125,163.18
11:46:07.968750,156.15
11:46:07.984375,148.81
11:46:08,141.30
11:46:08.015625,133.69
11:46:08.031250,126.02
11:46:08.046875,118.33
11:46:08.062500,110.69
11:46:08.078125,103.16
11:46:08.093750,95.80
11:46:08.109375,88.68
11:46:08.125000,81.83
11:46:08.140625,75.25
11:46:08.156250,68.95
11:46:08.171875,62.95
11:46:08.187500,57.25
11:46:08.203125,51.86
11:46:08.218750,46.78
11:46:08.234375,42.03
11:46:08.250000,37.59
11:46:08.265625,33.45
11:46:08.281250,29.61
11:46:08.296875,26.07
11:46:08.312500,22.80
11:46:08.328125,19.82
11:46:08.343750,17.12
11:46:08.359375,14.68
11:46:08.375000,12.51
11:46:08.390625,10.57
11:46:08.406250,8.84
11:46:08.421875,7.31
11:46:08.437500,5.95
11:46:08.453125,4.78
11:46:08.468750,3.77
11:46:08.484375,2.93
11:46:08.500000,2.26
11:46:08.515625,1.72
11:46:08.531250,1.28
11:46:08.546875,0.92
11:46:08.562500,0.60
11:46:08.578125,0.31
11:46:08.593750,0.04
11:46:08.609375,-0.17
11:46:08.625000,-0.32
11:46:08.640625,-0.41
11:46:08.656250,-0.45
11:46:08.671875,-0.48
11:46:08.687500,-0.54
11:46:08.703125,-0.68
11:46:08.718750,-0.88
11:46:08.734375,-1.10
11:46:08.750000,-1.29
11:46:08.765625,-1.36
11:46:08.781250,-1.31
11:46:08.796875,-1.19
11:46:08.812500,-1.09
11:46:08.828125,-1.14
11:46:08.843750,-1.40
11:46:08.859375,-1.87
11:46:08.875000,-2.42
11:46:08.890625,-2.91
11:46:08.906250,-3.18
11:46:08.921875,-3.20
11:46:08.937500,-3.05
11:46:08.953125,-2.94
11:46:08.968750,-3.09
11:46:08.984375,-3.66
11:46:09,-4.61
11:46:09.015625,-5.74
11:46:09.031250,-6.74
11:46:09.046875,-7.34
11:46:09.062500,-7.42
11:46:09.078125,-7.15
11:46:09.093750,-6.87
11:46:09.109375,-7.01
11:46:09.125000,-7.83
11:46:09.140625,-9.29
11:46:09.156250,-11.06
11:46:09.171875,-12.61
11:46:09.187500,-13.52
11:46:09.203125,-13.61
11:46:09.218750,-13.07
11:46:09.234375,-12.35
11:46:09.250000,-12.00
11:46:09.265625,-12.46
11:46:09.281250,-13.97
11:46:09.296875,-16.48
11:46:09.312500,-19.59
11:46:09.328125,-22.46
11:46:09.343750,-23.86
11:46:09.359375,-22.48
11:46:09.375000,-17.39
11:46:09.390625,-8.52
11:46:09.406250,3.21
11:46:09.421875,16.12
11:46:09.437500,28.36
11:46:09.453125,38.49
11:46:09.468750,45.79
11:46:09.484375,50.18
11:46:09.500000,51.99
11:46:09.515625,51.78
11:46:09.531250,50.24
11:46:09.546875,48.13
11:46:09.562500,46.10
11:46:09.578125,44.52
11:46:09.593750,43.30
11:46:09.609375,42.15
11:46:09.625000,40.95
11:46:09.640625,39.97
11:46:09.656250,39.71
11:46:09.671875,40.29
11:46:09.687500,41.00
11:46:09.703125,40.23
11:46:09.718750,36.22
11:46:09.734375,28.10
11:46:09.750000,16.53
11:46:09.765625,3.61
11:46:09.781250,-8.27
11:46:09.796875,-17.51
11:46:09.812500,-24.02
11:46:09.828125,-28.75
11:46:09.843750,-32.81
11:46:09.859375,-36.54
11:46:09.875000,-39.31
11:46:09.890625,-40.12
11:46:09.906250,-38.35
11:46:09.921875,-34.51
11:46:09.937500,-30.05
11:46:09.953125,-26.84
11:46:09.968750,-26.08
11:46:09.984375,-27.64
11:46:10,-30.08
11:46:10.015625,-31.37
11:46:10.031250,-29.98
11:46:10.046875,-25.71
11:46:10.062500,-19.87
11:46:10.078125,-14.55
11:46:10.093750,-11.57
11:46:10.109375,-11.53
11:46:10.125000,-13.53
11:46:10.140625,-15.66
11:46:10.156250,-16.07
11:46:10.171875,-13.88
11:46:10.187500,-9.46
11:46:10.203125,-4.09
11:46:10.218750,0.87
11:46:10.234375,4.59
11:46:10.250000,7.10
11:46:10.265625,8.97
11:46:10.281250,10.86
11:46:10.296875,13.00
11:46:10.312500,15.07
11:46:10.328125,16.36
11:46:10.343750,16.08
11:46:10.359375,13.85
11:46:10.375000,9.96
11:46:10.390625,5.28
11:46:10.406250,0.98
11:46:10.421875,-2.02
11:46:10.437500,-3.40
11:46:10.453125,-3.48
11:46:10.468750,-2.98
11:46:10.484375,-2.52
11:46:10.500000,-2.27
11:46:10.515625,-1.81
11:46:10.531250,-0.50
11:46:10.546875,2.08
11:46:10.562500,5.65
11:46:10.578125,9.18
11:46:10.593750,11.37
11:46:10.609375,11.17
11:46:10.625000,8.27
11:46:10.640625,3.18
11:46:10.656250,-3.06
11:46:10.671875,-9.40
11:46:10.687500,-15.19
11:46:10.703125,-20.28
11:46:10.718750,-24.81
11:46:10.734375,-28.77
11:46:10.750000,-31.85
11:46:10.765625,-33.52
11:46:10.781250,-33.37
11:46:10.796875,-31.40
11:46:10.812500,-28.15
11:46:10.828125,-24.55
11:46:10.843750,-21.22
11:46:10.859375,-19.02
11:46:10.875000,-18.42
11:46:10.890625,-19.50
11:46:10.906250,-21.96
11:46:10.921875,-25.25
11:46:10.937500,-28.65
11:46:10.953125,-31.34
11:46:10.968750,-32.51
11:46:10.984375,-31.47
11:46:11,-27.89
11:46:11.015625,-21.77
11:46:11.031250,-13.42
11:46:11.046875,-3.36
11:46:11.062500,7.83
11:46:11.078125,19.61
11:46:11.093750,31.38
11:46:11.109375,42.49
11:46:11.125000,52.19
11:46:11.140625,59.80
11:46:11.156250,65.00
11:46:11.171875,68.00
11:46:11.187500,69.56
11:46:11.203125,70.69
11:46:11.218750,72.24
11:46:11.234375,74.55
11:46:11.250000,77.35
11:46:11.265625,79.93
11:46:11.281250,81.58
11:46:11.296875,81.93
11:46:11.312500,81.15
11:46:11.328125,79.74
11:46:11.343750,78.20
11:46:11.359375,76.73
11:46:11.375000,75.04
11:46:11.390625,72.53
11:46:11.406250,68.53
11:46:11.421875,62.70
11:46:11.437500,55.25
11:46:11.453125,47.06
11:46:11.468750,39.55
11:46:11.484375,34.36
11:46:11.500000,32.87
11:46:11.515625,35.77
11:46:11.531250,42.59
11:46:11.546875,51.70
11:46:11.562500,60.57
11:46:11.578125,66.44
11:46:11.593750,67.14
11:46:11.609375,61.66
11:46:11.625000,50.49
11:46:11.640625,35.24
11:46:11.656250,18.05
11:46:11.671875,0.78
11:46:11.687500,-15.64
11:46:11.703125,-31.36
11:46:11.718750,-47.26
11:46:11.734375,-64.15
11:46:11.750000,-81.92
11:46:11.765625,-99.06
11:46:11.781250,-112.83
11:46:11.796875,-120.10
11:46:11.812500,-118.43
11:46:11.828125,-107.08
11:46:11.843750,-87.30
11:46:11.859375,-61.93
11:46:11.875000,-34.51
11:46:11.890625,-8.33
11:46:11.906250,14.26
11:46:11.921875,31.94
11:46:11.937500,44.27
11:46:11.953125,51.29
11:46:11.968750,53.28
11:46:11.984375,50.72
11:46:12,44.41
11:46:12.015625,35.49
11:46:12.031250,25.33
11:46:12.046875,15.28
11:46:12.062500,6.31
11:46:12.078125,-1.17
11:46:12.093750,-7.39
11:46:12.109375,-12.96
11:46:12.125000,-18.44
11:46:12.140625,-24.11
11:46:12.156250,-29.74
11:46:12.171875,-34.85
11:46:12.187500,-38.97
11:46:12.203125,-41.90
11:46:12.218750,-43.86
11:46:12.234375,-45.36
11:46:12.250000,-46.95
11:46:12.265625,-48.93
11:46:12.281250,-51.29
11:46:12.296875,-53.72
11:46:12.312500,-55.85
11:46:12.328125,-57.41
11:46:12.343750,-58.36
11:46:12.359375,-58.93
11:46:12.375000,-59.44
11:46:12.390625,-60.25
11:46:12.406250,-61.63
11:46:12.421875,-63.76
11:46:12.437500,-66.67
11:46:12.453125,-70.29
11:46:12.468750,-74.30
11:46:12.484375,-78.20
11:46:12.500000,-81.25
11:46:12.515625,-82.65
11:46:12.531250,-81.68
11:46:12.546875,-77.89
11:46:12.562500,-71.19
11:46:12.578125,-61.90
11:46:12.593750,-50.59
11:46:12.609375,-37.95
11:46:12.625000,-24.62
11:46:12.640625,-11.13
11:46:12.656250,2.12
11:46:12.671875,14.87
11:46:12.687500,26.86
11:46:12.703125,37.87
11:46:12.718750,47.68
11:46:12.734375,56.07
11:46:12.750000,62.90
11:46:12.765625,68.07
11:46:12.781250,71.55
11:46:12.796875,73.35
11:46:12.812500,73.51
11:46:12.828125,72.12
11:46:12.843750,69.30
11:46:12.859375,65.22
11:46:12.875000,60.09
11:46:12.890625,54.09
11:46:12.906250,47.35
11:46:12.921875,39.99
11:46:12.937500,32.04
11:46:12.953125,23.61
11:46:12.968750,14.92
11:46:12.984375,6.30
11:46:13,-1.95
11:46:13.015625,-9.59
11:46:13.031250,-16.53
11:46:13.046875,-22.76
11:46:13.062500,-28.33
11:46:13.078125,-33.39
11:46:13.093750,-38.02
11:46:13.109375,-42.25
11:46:13.125000,-46.10
11:46:13.140625,-49.57
11:46:13.156250,-52.74
11:46:13.171875,-55.69
11:46:13.187500,-58.52
11:46:13.203125,-61.40
11:46:13.218750,-64.49
11:46:13.234375,-67.83
11:46:13.250000,-71.22
11:46:13.265625,-74.08
11:46:13.281250,-75.65
11:46:13.296875,-75.21
11:46:13.312500,-72.25
11:46:13.328125,-66.63
11:46:13.343750,-58.69
11:46:13.359375,-49.33
11:46:13.375000,-39.45
11:46:13.390625,-29.63
11:46:13.406250,-19.96
11:46:13.421875,-10.34
11:46:13.437500,-0.73
11:46:13.453125,8.80
11:46:13.468750,17.99
11:46:13.484375,26.44
11:46:13.500000,33.08
11:46:13.515625,37.02
11:46:13.531250,37.96
11:46:13.546875,36.13
11:46:13.562500,31.98
11:46:13.578125,25.95
11:46:13.593750,18.51
11:46:13.609375,10.20
11:46:13.625000,1.69
11:46:13.640625,-7.01
11:46:13.656250,-15.51
11:46:13.671875,-22.77
11:46:13.687500,-27.49
11:46:13.703125,-28.97
11:46:13.718750,-27.76
11:46:13.734375,-25.48
11:46:13.750000,-24.27
11:46:13.765625,-26.02
11:46:13.781250,-32.45
11:46:13.796875,-44.05
11:46:13.812500,-59.54
11:46:13.828125,-76.37
11:46:13.843750,-91.83
11:46:13.859375,-103.83
11:46:13.875000,-110.98
11:46:13.890625,-112.59
11:46:13.906250,-100.53
11:46:13.921875,-71.84
11:46:13.937500,-31.97
11:46:13.953125,8.85
11:46:13.968750,42.72
11:46:13.984375,67.22
11:46:14,83.49
11:46:14.015625,94.10
11:46:14.031250,101.69
11:46:14.046875,110.05
11:46:14.062500,122.46
11:46:14.078125,141.01
11:46:14.093750,166.22
11:46:14.109375,196.07
11:46:14.125000,225.82
11:46:14.140625,249.07
11:46:14.156250,261.14
11:46:14.171875,261.48
11:46:14.187500,244.00
11:46:14.203125,212.13
11:46:14.218750,174.65
11:46:14.234375,141.04
11:46:14.250000,116.73
11:46:14.265625,101.49
11:46:14.281250,90.77
11:46:14.296875,79.95
11:46:14.312500,63.44
11:46:14.328125,38.36
11:46:14.343750,5.76
11:46:14.359375,-30.79
11:46:14.375000,-65.46
11:46:14.390625,-91.65
11:46:14.406250,-100.05
11:46:14.421875,-85.44
11:46:14.437500,-48.80
11:46:14.453125,1.74
11:46:14.468750,53.35
11:46:14.484375,93.38
11:46:14.500000,112.42
11:46:14.515625,107.29
11:46:14.531250,81.22
11:46:14.546875,41.67
11:46:14.562500,-3.76
11:46:14.578125,-49.64
11:46:14.593750,-93.67
11:46:14.609375,-135.66
11:46:14.625000,-175.49
11:46:14.640625,-212.64
11:46:14.656250,-245.47
11:46:14.671875,-271.33
11:46:14.687500,-287.44
11:46:14.703125,-292.49
11:46:14.718750,-287.36
11:46:14.734375,-275.18
11:46:14.750000,-260.16
11:46:14.765625,-245.58
11:46:14.781250,-232.53
11:46:14.796875,-219.17
11:46:14.812500,-201.53
11:46:14.828125,-175.69
11:46:14.843750,-140.70
11:46:14.859375,-99.70
11:46:14.875000,-59.25
11:46:14.890625,-26.47
11:46:14.906250,-5.86
11:46:14.921875,2.45
11:46:14.937500,2.31
11:46:14.953125,-0.52
11:46:14.968750,-1.16
11:46:14.984375,2.47
11:46:15,9.46
11:46:15.015625,17.31
11:46:15.031250,23.71
11:46:15.046875,27.98
11:46:15.062500,31.16
11:46:15.078125,34.94
11:46:15.093750,40.40
11:46:15.109375,47.25
11:46:15.125000,53.94
11:46:15.140625,58.76
11:46:15.156250,60.95
11:46:15.171875,61.16
11:46:15.187500,61.06
11:46:15.203125,62.44
11:46:15.218750,65.98
11:46:15.234375,70.92
11:46:15.250000,75.35
11:46:15.265625,77.09
11:46:15.281250,74.70
11:46:15.296875,68.11
11:46:15.312500,58.59
11:46:15.328125,48.33
11:46:15.343750,39.84
11:46:15.359375,35.14
11:46:15.375000,35.15
11:46:15.390625,39.28
11:46:15.406250,45.35
11:46:15.421875,50.45
11:46:15.437500,52.13
11:46:15.453125,49.73
11:46:15.468750,45.05
11:46:15.484375,41.70
11:46:15.500000,43.37
11:46:15.515625,51.78
11:46:15.531250,65.29
11:46:15.546875,79.02
11:46:15.562500,86.75
11:46:15.578125,83.48
11:46:15.593750,67.69
11:46:15.609375,42.04
11:46:15.625000,12.27
11:46:15.640625,-15.11
11:46:15.656250,-35.14
11:46:15.671875,-45.82
11:46:15.687500,-48.07
11:46:15.703125,-44.45
11:46:15.718750,-37.60
11:46:15.734375,-29.20
11:46:15.750000,-19.76
11:46:15.765625,-9.45
11:46:15.781250,1.14
11:46:15.796875,10.61
11:46:15.812500,17.20
11:46:15.828125,19.68
11:46:15.843750,18.11
11:46:15.859375,13.87
11:46:15.875000,9.05
11:46:15.890625,5.53
11:46:15.906250,4.21
11:46:15.921875,4.83
11:46:15.937500,6.09
11:46:15.953125,6.09
11:46:15.968750,2.71
11:46:15.984375,-6.10
11:46:16,-21.45
11:46:16.015625,-42.84
11:46:16.031250,-67.52
11:46:16.046875,-90.73
11:46:16.062500,-106.70
11:46:16.078125,-110.24
11:46:16.093750,-98.31
11:46:16.109375,-70.92
11:46:16.125000,-31.23
11:46:16.140625,15.12
11:46:16.156250,61.04
11:46:16.171875,99.23
11:46:16.187500,123.47
11:46:16.203125,129.89
11:46:16.218750,117.96
11:46:16.234375,90.81
11:46:16.250000,54.72
11:46:16.265625,17.53
11:46:16.281250,-13.33
11:46:16.296875,-32.79
11:46:16.312500,-39.32
11:46:16.328125,-34.79
11:46:16.343750,-23.35
11:46:16.359375,-9.71
11:46:16.375000,2.51
11:46:16.390625,11.71
11:46:16.406250,18.34
11:46:16.421875,23.88
11:46:16.437500,29.59
11:46:16.453125,35.73
11:46:16.468750,41.67
11:46:16.484375,46.53
11:46:16.500000,50.20
11:46:16.515625,53.60
11:46:16.531250,58.18
11:46:16.546875,64.97
11:46:16.562500,73.69
11:46:16.578125,82.82
11:46:16.593750,90.16
11:46:16.609375,93.91
11:46:16.625000,93.57
11:46:16.640625,90.14
11:46:16.656250,85.73
11:46:16.671875,82.82
11:46:16.687500,83.58
11:46:16.703125,89.40
11:46:16.718750,100.70
11:46:16.734375,116.68
11:46:16.750000,135.05
11:46:16.765625,152.04
11:46:16.781250,162.76
11:46:16.796875,162.50
11:46:16.812500,148.39
11:46:16.828125,120.73
11:46:16.843750,83.31
11:46:16.859375,42.25
11:46:16.875000,3.90
11:46:16.890625,-27.23
11:46:16.906250,-49.47
11:46:16.921875,-63.71
11:46:16.937500,-72.13
11:46:16.953125,-76.85
11:46:16.968750,-79.26
11:46:16.984375,-80.14
11:46:17,-80.29
11:46:17.015625,-80.81
11:46:17.031250,-82.94
11:46:17.046875,-87.48
11:46:17.062500,-94.23
11:46:17.078125,-101.92
11:46:17.093750,-108.54
11:46:17.109375,-112.18
11:46:17.125000,-111.68
11:46:17.140625,-106.93
11:46:17.156250,-98.82
11:46:17.171875,-88.71
11:46:17.187500,-77.88
11:46:17.203125,-67.08
11:46:17.218750,-56.34
11:46:17.234375,-45.21
11:46:17.250000,-33.20
11:46:17.265625,-20.27
11:46:17.281250,-7.07
11:46:17.296875,5.28
11:46:17.312500,15.54
11:46:17.328125,22.93
11:46:17.343750,27.42
11:46:17.359375,29.66
11:46:17.375000,30.66
11:46:17.390625,31.35
11:46:17.406250,32.26
11:46:17.421875,33.36
11:46:17.437500,34.30
11:46:17.453125,34.62
11:46:17.468750,34.07
11:46:17.484375,32.76
11:46:17.500000,31.03
11:46:17.515625,29.36
11:46:17.531250,28.02
11:46:17.546875,27.07
11:46:17.562500,26.22
11:46:17.578125,25.03
11:46:17.593750,22.99
11:46:17.609375,19.72
11:46:17.625000,15.00
11:46:17.640625,8.85
11:46:17.656250,1.46
11:46:17.671875,-6.82
11:46:17.687500,-15.57
11:46:17.703125,-24.36
11:46:17.718750,-32.83
11:46:17.734375,-40.80
11:46:17.750000,-48.25
11:46:17.765625,-55.35
11:46:17.781250,-62.32
11:46:17.796875,-69.36
11:46:17.812500,-76.48
11:46:17.828125,-83.50
11:46:17.843750,-89.97
11:46:17.859375,-95.21
11:46:17.875000,-98.50
11:46:17.890625,-99.24
11:46:17.906250,-97.07
11:46:17.921875,-92.03
11:46:17.937500,-84.44
11:46:17.953125,-74.79
11:46:17.968750,-63.66
11:46:17.984375,-51.59
11:46:18,-39.16
11:46:18.015625,-26.98
11:46:18.031250,-15.75
11:46:18.046875,-6.17
11:46:18.062500,1.20
11:46:18.078125,6.04
11:46:18.093750,8.32
11:46:18.109375,8.32
11:46:18.125000,6.43
11:46:18.140625,3.08
11:46:18.156250,-1.31
11:46:18.171875,-6.34
11:46:18.187500,-11.64
11:46:18.203125,-16.88
11:46:18.218750,-21.75
11:46:18.234375,-25.99
11:46:18.250000,-29.40
11:46:18.265625,-31.77
11:46:18.281250,-32.94
11:46:18.296875,-32.83
11:46:18.312500,-31.65
11:46:18.328125,-29.77
11:46:18.343750,-27.79
11:46:18.359375,-26.23
11:46:18.375000,-25.37
11:46:18.390625,-25.19
11:46:18.406250,-25.34
11:46:18.421875,-25.41
11:46:18.437500,-25.07
11:46:18.453125,-24.25
11:46:18.468750,-23.14
11:46:18.484375,-22.04
11:46:18.500000,-21.27
11:46:18.515625,-21.03
11:46:18.531250,-21.38
11:46:18.546875,-22.41
11:46:18.562500,-24.26
11:46:18.578125,-27.25
11:46:18.593750,-31.76
11:46:18.609375,-37.97
11:46:18.625000,-45.62
11:46:18.640625,-54.00
11:46:18.656250,-61.92
11:46:18.671875,-68.16
11:46:18.687500,-71.81
11:46:18.703125,-72.52
11:46:18.718750,-70.56
11:46:18.734375,-66.58
11:46:18.750000,-61.22
11:46:18.765625,-54.97
11:46:18.781250,-48.11
11:46:18.796875,-40.83
11:46:18.812500,-33.41
11:46:18.828125,-26.34
11:46:18.843750,-20.29
11:46:18.859375,-15.95
11:46:18.875000,-13.77
11:46:18.890625,-13.75
11:46:18.906250,-15.33
11:46:18.921875,-17.48
11:46:18.937500,-18.91
11:46:18.953125,-18.37
11:46:18.968750,-14.76
11:46:18.984375,-7.25
11:46:19,4.61
11:46:19.015625,20.91
11:46:19.031250,41.29
11:46:19.046875,64.84
11:46:19.062500,90.16
11:46:19.078125,115.36
11:46:19.093750,138.37
11:46:19.109375,157.32
11:46:19.125000,170.96
11:46:19.140625,178.83
11:46:19.156250,181.15
11:46:19.171875,178.53
11:46:19.187500,171.65
11:46:19.203125,161.14
11:46:19.218750,147.67
11:46:19.234375,132.10
11:46:19.250000,115.52
11:46:19.265625,99.13
11:46:19.281250,83.87
11:46:19.296875,70.06
11:46:19.312500,57.41
11:46:19.328125,45.25
11:46:19.343750,33.00
11:46:19.359375,20.56
11:46:19.375000,8.29
11:46:19.390625,-3.23
11:46:19.406250,-13.59
11:46:19.421875,-22.81
11:46:19.437500,-31.24
11:46:19.453125,-39.32
11:46:19.468750,-47.22
11:46:19.484375,-54.68
11:46:19.500000,-60.97
11:46:19.515625,-65.14
11:46:19.531250,-66.39
11:46:19.546875,-64.51
11:46:19.562500,-60.00
11:46:19.578125,-54.07
11:46:19.593750,-48.19
11:46:19.609375,-43.63
11:46:19.625000,-40.91
11:46:19.640625,-39.76
11:46:19.656250,-39.23
11:46:19.671875,-38.29
11:46:19.687500,-36.23
11:46:19.703125,-32.88
11:46:19.718750,-28.59
11:46:19.734375,-23.84
11:46:19.750000,-18.94
11:46:19.765625,-13.92
11:46:19.781250,-8.55
11:46:19.796875,-2.70
11:46:19.812500,3.56
11:46:19.828125,9.76
11:46:19.843750,15.28
11:46:19.859375,19.48
11:46:19.875000,21.98
11:46:19.890625,22.72
11:46:19.906250,21.95
11:46:19.921875,20.03
11:46:19.937500,17.25
11:46:19.953125,13.73
11:46:19.968750,9.42
11:46:19.984375,4.21
11:46:20,-1.89
11:46:20.015625,-8.69
11:46:20.031250,-15.78
11:46:20.046875,-22.69
11:46:20.062500,-29.01
11:46:20.078125,-34.48
11:46:20.093750,-38.96
11:46:20.109375,-42.32
11:46:20.125000,-44.30
11:46:20.140625,-44.51
11:46:20.156250,-42.52
11:46:20.171875,-38.07
11:46:20.187500,-31.22
11:46:20.203125,-22.41
11:46:20.218750,-12.39
11:46:20.234375,-1.99
11:46:20.250000,8.02
11:46:20.265625,17.08
11:46:20.281250,24.85
11:46:20.296875,31.15
11:46:20.312500,35.83
11:46:20.328125,38.80
11:46:20.343750,40.04
11:46:20.359375,39.60
11:46:20.375000,37.75
11:46:20.390625,34.92
11:46:20.406250,31.67
11:46:20.421875,28.63
11:46:20.437500,26.31
11:46:20.453125,25.06
11:46:20.468750,24.97
11:46:20.484375,25.92
11:46:20.500000,27.69
11:46:20.515625,30.07
11:46:20.531250,32.91
11:46:20.546875,36.07
11:46:20.562500,39.39
11:46:20.578125,42.55
11:46:20.593750,45.13
11:46:20.609375,46.66
11:46:20.625000,46.78
11:46:20.640625,45.34
11:46:20.656250,42.47
11:46:20.671875,38.54
11:46:20.687500,34.02
11:46:20.703125,29.37
11:46:20.718750,24.86
11:46:20.734375,20.61
11:46:20.750000,16.52
11:46:20.765625,12.33
11:46:20.781250,7.67
11:46:20.796875,2.26
11:46:20.812500,-4.08
11:46:20.828125,-11.22
11:46:20.843750,-18.77
11:46:20.859375,-26.10
11:46:20.875000,-32.49
11:46:20.890625,-37.26
11:46:20.906250,-39.93
11:46:20.921875,-40.23
11:46:20.937500,-38.17
11:46:20.953125,-33.99
11:46:20.968750,-28.10
11:46:20.984375,-21.01
11:46:21,-13.29
11:46:21.015625,-5.44
11:46:21.031250,2.16
11:46:21.046875,9.19
11:46:21.062500,15.37
11:46:21.078125,20.42
11:46:21.093750,24.06
11:46:21.109375,26.17
11:46:21.125000,26.82
11:46:21.140625,26.41
11:46:21.156250,25.49
11:46:21.171875,24.56
11:46:21.187500,23.87
11:46:21.203125,23.33
11:46:21.218750,22.60
11:46:21.234375,21.37
11:46:21.250000,19.58
11:46:21.265625,17.38
11:46:21.281250,15.15
11:46:21.296875,13.13
11:46:21.312500,11.38
11:46:21.328125,9.77
11:46:21.343750,8.10
11:46:21.359375,6.24
11:46:21.375000,4.26
11:46:21.390625,2.37
11:46:21.406250,0.86
11:46:21.421875,0.00
11:46:21.437500,-0.02
11:46:21.453125,0.89
11:46:21.468750,3.01
11:46:21.484375,6.44
11:46:21.500000,10.91
11:46:21.515625,15.85
11:46:21.531250,20.46
11:46:21.546875,23.97
11:46:21.562500,25.78
11:46:21.578125,25.48
11:46:21.593750,22.99
11:46:21.609375,18.80
11:46:21.625000,13.61
11:46:21.640625,8.12
11:46:21.656250,2.89
11:46:21.671875,-1.60
11:46:21.687500,-4.80
11:46:21.703125,-6.18
11:46:21.718750,-5.37
11:46:21.734375,-2.33
11:46:21.750000,3.34
11:46:21.765625,11.47
11:46:21.781250,21.28
11:46:21.796875,31.54
11:46:21.812500,41.14
11:46:21.828125,49.61
11:46:21.843750,56.95
11:46:21.859375,63.34
11:46:21.875000,68.90
11:46:21.890625,75.35
11:46:21.906250,83.64
11:46:21.921875,93.27
11:46:21.937500,102.45
11:46:21.953125,109.50
11:46:21.968750,113.91
11:46:21.984375,116.30
11:46:22,117.74
11:46:22.015625,119.02
11:46:22.031250,124.18
11:46:22.046875,135.49
11:46:22.062500,151.81
11:46:22.078125,169.21
11:46:22.093750,183.52
11:46:22.109375,192.79
11:46:22.125000,197.34
11:46:22.140625,198.63
11:46:22.156250,198.19
11:46:22.171875,203.13
11:46:22.187500,217.89
11:46:22.203125,241.42
11:46:22.218750,267.49
11:46:22.234375,288.96
11:46:22.250000,301.85
11:46:22.265625,306.24
11:46:22.281250,305.24
11:46:22.296875,303.87
11:46:22.312500,315.73
11:46:22.328125,351.04
11:46:22.343750,410.96
11:46:22.359375,486.61
11:46:22.375000,563.80
11:46:22.390625,629.31
11:46:22.406250,674.21
11:46:22.421875,694.78
11:46:22.437500,642.66
11:46:22.453125,498.41
11:46:22.468750,281.80
11:46:22.484375,44.38
11:46:22.500000,-164.54
11:46:22.515625,-322.26
11:46:22.531250,-430.02
11:46:22.546875,-499.81
11:46:22.562500,-544.94
11:46:22.578125,-575.37
11:46:22.593750,-588.82
11:46:22.609375,-582.16
11:46:22.625000,-557.59
11:46:22.640625,-521.21
11:46:22.656250,-480.02
11:46:22.671875,-438.51
11:46:22.687500,-399.01
11:46:22.703125,-364.25
11:46:22.718750,-337.22
11:46:22.734375,-313.64
11:46:22.750000,-289.31
11:46:22.765625,-262.76
11:46:22.781250,-235.74
11:46:22.796875,-210.90
11:46:22.812500,-188.94
11:46:22.828125,-169.06
11:46:22.843750,-152.37
11:46:22.859375,-141.63
11:46:22.875000,-135.76
11:46:22.890625,-134.34
11:46:22.906250,-138.15
11:46:22.921875,-148.25
11:46:22.937500,-163.87
11:46:22.953125,-181.45
11:46:22.968750,-196.63
11:46:22.984375,-208.48
11:46:23,-218.57
11:46:23.015625,-225.72
11:46:23.031250,-228.42
11:46:23.046875,-224.56
11:46:23.062500,-212.02
11:46:23.078125,-189.12
11:46:23.093750,-155.58
11:46:23.109375,-105.80
11:46:23.125000,-44.77
11:46:23.140625,11.92
11:46:23.156250,49.86
11:46:23.171875,63.26
11:46:23.187500,58.49
11:46:23.203125,48.13
11:46:23.218750,43.16
11:46:23.234375,48.24
11:46:23.250000,59.86
11:46:23.265625,68.88
11:46:23.281250,66.50
11:46:23.296875,51.23
11:46:23.312500,25.57
11:46:23.328125,-4.62
11:46:23.343750,-33.39
11:46:23.359375,-57.40
11:46:23.375000,-77.12
11:46:23.390625,-91.64
11:46:23.406250,-96.69
11:46:23.421875,-102.03
11:46:23.437500,-104.53
11:46:23.453125,-101.73
11:46:23.468750,-91.20
11:46:23.484375,-72.05
11:46:23.500000,-45.23
11:46:23.515625,-13.21
11:46:23.531250,21.09
11:46:23.546875,53.81
11:46:23.562500,81.38
11:46:23.578125,104.02
11:46:23.593750,117.80
11:46:23.609375,119.50
11:46:23.625000,110.46
11:46:23.640625,96.83
11:46:23.656250,85.30
11:46:23.671875,79.18
11:46:23.687500,76.67
11:46:23.703125,71.35
11:46:23.718750,60.64
11:46:23.734375,43.63
11:46:23.750000,23.18
11:46:23.765625,4.04
11:46:23.781250,-9.58
11:46:23.796875,-15.81
11:46:23.812500,-14.31
11:46:23.828125,-8.65
11:46:23.843750,-4.53
11:46:23.859375,-3.86
11:46:23.875000,-6.83
11:46:23.890625,-10.58
11:46:23.906250,-13.13
11:46:23.921875,-11.40
11:46:23.937500,-4.57
11:46:23.953125,6.44
11:46:23.968750,19.80
11:46:23.984375,34.32
11:46:24,53.52
11:46:24.015625,77.35
11:46:24.031250,102.05
11:46:24.046875,119.51
11:46:24.062500,122.82
11:46:24.078125,110.96
11:46:24.093750,91.36
11:46:24.109375,68.64
11:46:24.125000,44.64
11:46:24.140625,21.86
11:46:24.156250,0.53
11:46:24.171875,-20.37
11:46:24.187500,-41.51
11:46:24.203125,-62.21
11:46:24.218750,-81.04
11:46:24.234375,-97.02
11:46:24.250000,-104.30
11:46:24.265625,-113.33
11:46:24.281250,-123.42
11:46:24.296875,-134.15
11:46:24.312500,-143.60
11:46:24.328125,-147.50
11:46:24.343750,-141.33
11:46:24.359375,-122.88
11:46:24.375000,-94.23
11:46:24.390625,-61.82
11:46:24.406250,-34.37
11:46:24.421875,-16.81
11:46:24.437500,-8.09
11:46:24.453125,-6.65
11:46:24.468750,-8.45
11:46:24.484375,-9.32
11:46:24.500000,-6.67
11:46:24.515625,-0.72
11:46:24.531250,6.12
11:46:24.546875,10.65
11:46:24.562500,12.51
11:46:24.578125,11.42
11:46:24.593750,5.66
11:46:24.609375,-3.85
11:46:24.625000,-16.44
11:46:24.640625,-30.57
11:46:24.656250,-44.05
11:46:24.671875,-54.30
11:46:24.687500,-59.58
11:46:24.703125,-58.47
11:46:24.718750,-52.32
11:46:24.734375,-45.05
11:46:24.750000,-38.55
11:46:24.765625,-37.16
11:46:24.781250,-44.17
11:46:24.796875,-60.31
11:46:24.812500,-83.00
11:46:24.828125,-106.87
11:46:24.843750,-124.44
11:46:24.859375,-129.15
11:46:24.875000,-117.52
11:46:24.890625,-89.87
11:46:24.906250,-51.22
11:46:24.921875,-8.92
11:46:24.937500,29.51
11:46:24.953125,58.65
11:46:24.968750,76.32
11:46:24.984375,83.84
11:46:25,84.56
11:46:25.015625,82.11
11:46:25.031250,79.55
11:46:25.046875,78.07
11:46:25.062500,78.01
11:46:25.078125,79.41
11:46:25.093750,82.56
11:46:25.109375,88.10
11:46:25.125000,96.51
11:46:25.140625,107.56
11:46:25.156250,119.53
11:46:25.171875,129.80
11:46:25.187500,135.27
11:46:25.203125,134.15
11:46:25.218750,126.48
11:46:25.234375,114.30
11:46:25.250000,100.69
11:46:25.265625,88.70
11:46:25.281250,80.48
11:46:25.296875,77.05
11:46:25.312500,78.61
11:46:25.328125,84.55
11:46:25.343750,93.39
11:46:25.359375,102.16
11:46:25.375000,106.44
11:46:25.390625,101.77
11:46:25.406250,85.86
11:46:25.421875,60.76
11:46:25.437500,33.19
11:46:25.453125,12.39
11:46:25.468750,6.15
11:46:25.484375,17.54
11:46:25.500000,43.55
11:46:25.515625,76.56
11:46:25.531250,107.65
11:46:25.546875,129.69
11:46:25.562500,139.21
11:46:25.578125,136.22
11:46:25.593750,122.98
11:46:25.609375,102.64
11:46:25.625000,78.54
11:46:25.640625,53.88
11:46:25.656250,31.37
11:46:25.671875,12.82
11:46:25.687500,-1.45
11:46:25.703125,-12.54
11:46:25.718750,-22.55
11:46:25.734375,-33.72
11:46:25.750000,-47.95
11:46:25.765625,-66.09
11:46:25.781250,-87.64
11:46:25.796875,-110.96
11:46:25.812500,-133.40
11:46:25.828125,-152.30
11:46:25.843750,-165.39
11:46:25.859375,-171.42
11:46:25.875000,-170.45
11:46:25.890625,-163.27
11:46:25.906250,-150.76
11:46:25.921875,-133.35
11:46:25.937500,-110.82
11:46:25.953125,-82.84
11:46:25.968750,-50.43
11:46:25.984375,-15.84
11:46:26,17.00
11:46:26.015625,42.66
11:46:26.031250,55.33
11:46:26.046875,50.65
11:46:26.062500,27.37
11:46:26.078125,-11.51
11:46:26.093750,-59.33
11:46:26.109375,-108.20
11:46:26.125000,-150.11
11:46:26.140625,-179.40
11:46:26.156250,-194.26
11:46:26.171875,-196.98
11:46:26.187500,-192.38
11:46:26.203125,-185.51
11:46:26.218750,-179.72
11:46:26.234375,-175.48
11:46:26.250000,-171.56
11:46:26.265625,-164.64
11:46:26.281250,-151.22
11:46:26.296875,-129.92
11:46:26.312500,-102.22
11:46:26.328125,-71.58
11:46:26.343750,-41.64
11:46:26.359375,-14.43
11:46:26.375000,15.71
11:46:26.390625,49.00
11:46:26.406250,81.62
11:46:26.421875,107.62
11:46:26.437500,122.11
11:46:26.453125,123.11
11:46:26.468750,112.28
11:46:26.484375,94.56
11:46:26.500000,76.39
11:46:26.515625,63.37
11:46:26.531250,57.51
11:46:26.546875,58.42
11:46:26.562500,64.00
11:46:26.578125,71.55
11:46:26.593750,78.70
11:46:26.609375,83.94
11:46:26.625000,87.08
11:46:26.640625,88.35
11:46:26.656250,88.07
11:46:26.671875,85.68
11:46:26.687500,81.26
11:46:26.703125,75.39
11:46:26.718750,68.94
11:46:26.734375,62.70
11:46:26.750000,57.35
11:46:26.765625,53.20
11:46:26.781250,50.08
11:46:26.796875,47.37
11:46:26.812500,43.68
11:46:26.828125,37.98
11:46:26.843750,29.79
11:46:26.859375,19.14
11:46:26.875000,6.33
11:46:26.890625,-7.67
11:46:26.906250,-21.76
11:46:26.921875,-35.03
11:46:26.937500,-46.91
11:46:26.953125,-57.37
11:46:26.968750,-66.47
11:46:26.984375,-74.18
11:46:27,-80.37
11:46:27.015625,-84.71
11:46:27.031250,-86.82
11:46:27.046875,-86.39
11:46:27.062500,-83.36
11:46:27.078125,-77.96
11:46:27.093750,-70.72
11:46:27.109375,-62.30
11:46:27.125000,-53.37
11:46:27.140625,-44.67
11:46:27.156250,-36.87
11:46:27.171875,-30.62
11:46:27.187500,-26.34
11:46:27.203125,-24.18
11:46:27.218750,-23.89
11:46:27.234375,-24.92
11:46:27.250000,-26.56
11:46:27.265625,-28.10
11:46:27.281250,-28.95
11:46:27.296875,-28.62
11:46:27.312500,-26.69
11:46:27.328125,-22.94
11:46:27.343750,-17.35
11:46:27.359375,-10.19
11:46:27.375000,-2.01
11:46:27.390625,6.55
11:46:27.406250,14.91
11:46:27.421875,22.67
11:46:27.437500,29.64
11:46:27.453125,35.68
11:46:27.468750,40.57
11:46:27.484375,44.01
11:46:27.500000,45.76
11:46:27.515625,45.84
11:46:27.531250,44.59
11:46:27.546875,42.46
11:46:27.562500,39.84
11:46:27.578125,36.82
11:46:27.593750,33.29
11:46:27.609375,29.17
11:46:27.625000,24.67
11:46:27.640625,20.37
11:46:27.656250,16.98
11:46:27.671875,14.92
11:46:27.687500,14.11
11:46:27.703125,13.92
11:46:27.718750,13.55
11:46:27.734375,12.39
11:46:27.750000,10.30
11:46:27.765625,7.54
11:46:27.781250,4.52
11:46:27.796875,1.45
11:46:27.812500,-1.74
11:46:27.828125,-5.29
11:46:27.843750,-9.45
11:46:27.859375,-14.27
11:46:27.875000,-19.58
11:46:27.890625,-25.09
11:46:27.906250,-30.56
11:46:27.921875,-35.87
11:46:27.937500,-41.04
11:46:27.953125,-46.09
11:46:27.968750,-50.87
11:46:27.984375,-54.99
11:46:28,-57.85
11:46:28.015625,-58.80
11:46:28.031250,-57.36
11:46:28.046875,-53.39
11:46:28.062500,-47.18
11:46:28.078125,-39.30
11:46:28.093750,-30.44
11:46:28.109375,-21.14
11:46:28.125000,-11.76
11:46:28.140625,-2.37
11:46:28.156250,6.96
11:46:28.171875,16.13
11:46:28.187500,24.80
11:46:28.203125,32.57
11:46:28.218750,39.11
11:46:28.234375,44.32
11:46:28.250000,48.38
11:46:28.265625,51.62
11:46:28.281250,54.30
11:46:28.296875,56.44
11:46:28.312500,57.81
11:46:28.328125,58.09
11:46:28.343750,57.05
11:46:28.359375,54.66
11:46:28.375000,51.10
11:46:28.390625,46.58
11:46:28.406250,41.26
11:46:28.421875,35.17
11:46:28.437500,28.27
11:46:28.453125,20.58
11:46:28.468750,12.24
11:46:28.484375,3.53
11:46:28.500000,-5.23
11:46:28.515625,-13.73
11:46:28.531250,-21.66
11:46:28.546875,-28.69
11:46:28.562500,-34.42
11:46:28.578125,-38.40
11:46:28.593750,-40.41
11:46:28.609375,-40.56
11:46:28.625000,-39.45
11:46:28.640625,-38.05
11:46:28.656250,-37.41
11:46:28.671875,-38.25
11:46:28.687500,-40.67
11:46:28.703125,-44.10
11:46:28.718750,-47.43
11:46:28.734375,-49.48
11:46:28.750000,-49.29
11:46:28.765625,-46.39
11:46:28.781250,-40.81
11:46:28.796875,-33.05
11:46:28.812500,-23.82
11:46:28.828125,-13.89
11:46:28.843750,-4.02
11:46:28.859375,5.18
11:46:28.875000,13.35
11:46:28.890625,20.31
11:46:28.906250,26.10
11:46:28.921875,30.82
11:46:28.937500,34.58
11:46:28.953125,37.41
11:46:28.968750,39.24
11:46:28.984375,39.96
11:46:29,39.45
11:46:29.015625,37.71
11:46:29.031250,34.88
11:46:29.046875,31.25
11:46:29.062500,27.29
11:46:29.078125,23.60
11:46:29.093750,20.73
11:46:29.109375,19.16
11:46:29.125000,19.05
11:46:29.140625,20.29
11:46:29.156250,22.38
11:46:29.171875,24.66
11:46:29.187500,26.41
11:46:29.203125,27.09
11:46:29.218750,26.46
11:46:29.234375,24.54
11:46:29.250000,21.60
11:46:29.265625,17.95
11:46:29.281250,13.90
11:46:29.296875,9.69
11:46:29.312500,5.51
11:46:29.328125,1.54
11:46:29.343750,-2.13
11:46:29.359375,-5.53
11:46:29.375000,-8.81
11:46:29.390625,-12.25
11:46:29.406250,-16.19
11:46:29.421875,-20.85
11:46:29.437500,-26.27
11:46:29.453125,-32.27
11:46:29.468750,-38.45
11:46:29.484375,-44.25
11:46:29.500000,-49.04
11:46:29.515625,-52.14
11:46:29.531250,-52.99
11:46:29.546875,-51.16
11:46:29.562500,-46.46
11:46:29.578125,-39.01
11:46:29.593750,-29.20
11:46:29.609375,-17.66
11:46:29.625000,-5.12
11:46:29.640625,7.64
11:46:29.656250,19.84
11:46:29.671875,30.82
11:46:29.687500,40.07
11:46:29.703125,47.24
11:46:29.718750,52.20
11:46:29.734375,55.00
11:46:29.750000,55.88
11:46:29.765625,55.23
11:46:29.781250,53.54
11:46:29.796875,51.33
11:46:29.812500,49.03
11:46:29.828125,46.98
11:46:29.843750,45.27
11:46:29.859375,43.83
11:46:29.875000,42.43
11:46:29.890625,40.84
11:46:29.906250,38.87
11:46:29.921875,36.37
11:46:29.937500,33.33
11:46:29.953125,29.77
11:46:29.968750,25.83
11:46:29.984375,21.70
11:46:30,17.62
11:46:30.015625,13.81
11:46:30.031250,10.39
11:46:30.046875,7.38
11:46:30.062500,4.65
11:46:30.078125,2.08
11:46:30.093750,-0.42
11:46:30.109375,-2.89
11:46:30.125000,-5.29
11:46:30.140625,-7.62
11:46:30.156250,-9.91
11:46:30.171875,-12.29
11:46:30.187500,-14.92
11:46:30.203125,-17.91
11:46:30.218750,-21.27
11:46:30.234375,-24.92
11:46:30.250000,-28.67
11:46:30.265625,-32.19
11:46:30.281250,-35.05
11:46:30.296875,-36.67
11:46:30.312500,-36.50
11:46:30.328125,-34.09
11:46:30.343750,-29.30
11:46:30.359375,-22.42
11:46:30.375000,-14.09
11:46:30.390625,-5.18
11:46:30.406250,3.50
11:46:30.421875,11.32
11:46:30.437500,17.97
11:46:30.453125,23.42
11:46:30.468750,27.74
11:46:30.484375,31.01
11:46:30.500000,33.22
11:46:30.515625,34.30
11:46:30.531250,34.25
11:46:30.546875,33.23
11:46:30.562500,31.59
11:46:30.578125,29.87
11:46:30.593750,28.57
11:46:30.609375,28.05
11:46:30.625000,28.36
11:46:30.640625,29.29
11:46:30.656250,30.49
11:46:30.671875,31.64
11:46:30.687500,32.52
11:46:30.703125,33.04
11:46:30.718750,33.22
11:46:30.734375,33.05
11:46:30.750000,32.54
11:46:30.765625,31.64
11:46:30.781250,30.29
11:46:30.796875,28.48
11:46:30.812500,26.13
11:46:30.828125,23.21
11:46:30.843750,19.65
11:46:30.859375,15.46
11:46:30.875000,10.76
11:46:30.890625,5.75
11:46:30.906250,0.69
11:46:30.921875,-4.20
11:46:30.937500,-8.80
11:46:30.953125,-13.18
11:46:30.968750,-17.48
11:46:30.984375,-21.94
11:46:31,-26.78
11:46:31.015625,-32.12
11:46:31.031250,-37.93
11:46:31.046875,-43.93
11:46:31.062500,-49.56
11:46:31.078125,-54.08
11:46:31.093750,-56.69
11:46:31.109375,-56.80
11:46:31.125000,-54.18
11:46:31.140625,-49.04
11:46:31.156250,-41.93
11:46:31.171875,-33.56
11:46:31.187500,-24.59
11:46:31.203125,-15.51
11:46:31.218750,-6.69
11:46:31.234375,1.61
11:46:31.250000,9.11
11:46:31.265625,15.50
11:46:31.281250,20.53
11:46:31.296875,24.09
11:46:31.312500,26.24
11:46:31.328125,27.21
11:46:31.343750,27.33
11:46:31.359375,26.85
11:46:31.375000,25.99
11:46:31.390625,24.83
11:46:31.406250,23.41
11:46:31.421875,21.77
11:46:31.437500,19.99
11:46:31.453125,18.22
11:46:31.468750,16.62
11:46:31.484375,15.30
11:46:31.500000,14.24
11:46:31.515625,13.26
11:46:31.531250,12.07
11:46:31.546875,10.42
11:46:31.562500,8.24
11:46:31.578125,5.66
11:46:31.593750,3.02
11:46:31.609375,0.69
11:46:31.625000,-1.12
11:46:31.640625,-2.45
11:46:31.656250,-3.58
11:46:31.671875,-4.86
11:46:31.687500,-6.57
11:46:31.703125,-8.73
11:46:31.718750,-11.14
11:46:31.734375,-13.48
11:46:31.750000,-15.45
11:46:31.765625,-16.94
11:46:31.781250,-18.03
11:46:31.796875,-18.94
11:46:31.812500,-19.96
11:46:31.828125,-21.32
11:46:31.843750,-23.07
11:46:31.859375,-25.07
11:46:31.875000,-26.92
11:46:31.890625,-28.05
11:46:31.906250,-27.79
11:46:31.921875,-25.61
11:46:31.937500,-21.33
11:46:31.953125,-15.23
11:46:31.968750,-8.09
11:46:31.984375,-0.94
11:46:32,5.30
11:46:32.015625,10.14
11:46:32.031250,13.68
11:46:32.046875,16.50
11:46:32.062500,19.31
11:46:32.078125,22.66
11:46:32.093750,26.77
11:46:32.109375,31.55
11:46:32.125000,36.78
11:46:32.140625,42.22
11:46:32.156250,47.63
11:46:32.171875,52.70
11:46:32.187500,56.94
11:46:32.203125,59.83
11:46:32.218750,61.04
11:46:32.234375,60.65
11:46:32.250000,59.26
11:46:32.265625,57.78
11:46:32.281250,56.98
11:46:32.296875,57.32
11:46:32.312500,58.76
11:46:32.328125,61.05
11:46:32.343750,63.81
11:46:32.359375,66.70
11:46:32.375000,69.21
11:46:32.390625,70.50
11:46:32.406250,69.28
11:46:32.421875,64.15
11:46:32.437500,54.14
11:46:32.453125,39.19
11:46:32.468750,20.40
11:46:32.484375,-0.21
11:46:32.500000,-20.33
11:46:32.515625,-38.08
11:46:32.531250,-52.40
11:46:32.546875,-63.12
11:46:32.562500,-70.65
11:46:32.578125,-75.63
11:46:32.593750,-78.59
11:46:32.609375,-79.94
11:46:32.625000,-79.99
11:46:32.640625,-79.07
11:46:32.656250,-77.52
11:46:32.671875,-75.57
11:46:32.687500,-73.26
11:46:32.703125,-70.42
11:46:32.718750,-66.73
11:46:32.734375,-61.93
11:46:32.750000,-55.94
11:46:32.765625,-48.93
11:46:32.781250,-41.24
11:46:32.796875,-33.29
11:46:32.812500,-25.46
11:46:32.828125,-18.03
11:46:32.843750,-11.19
11:46:32.859375,-5.08
11:46:32.875000,0.23
11:46:32.890625,4.73
11:46:32.906250,8.45
11:46:32.921875,11.53
11:46:32.937500,14.09
11:46:32.953125,16.26
11:46:32.968750,18.11
11:46:32.984375,19.60
11:46:33,20.61
11:46:33.015625,20.98
11:46:33.031250,20.61
11:46:33.046875,19.48
11:46:33.062500,17.73
11:46:33.078125,15.60
11:46:33.093750,13.36
11:46:33.109375,11.24
11:46:33.125000,9.31
11:46:33.140625,7.57
11:46:33.156250,5.95
11:46:33.171875,4.41
11:46:33.187500,3.03
11:46:33.203125,1.98
11:46:33.218750,1.43
11:46:33.234375,1.50
11:46:33.250000,2.13
11:46:33.265625,3.10
11:46:33.281250,4.03
11:46:33.296875,4.52
11:46:33.312500,4.27
11:46:33.328125,3.14
11:46:33.343750,1.23
11:46:33.359375,-1.14
11:46:33.375000,-3.46
11:46:33.390625,-5.18
11:46:33.406250,-5.80
11:46:33.421875,-5.10
11:46:33.437500,-3.16
11:46:33.453125,-0.45
11:46:33.468750,2.35
11:46:33.484375,4.60
11:46:33.500000,5.98
11:46:33.515625,6.66
11:46:33.531250,7.27
11:46:33.546875,8.57
11:46:33.562500,11.24
11:46:33.578125,15.51
11:46:33.593750,21.27
11:46:33.609375,28.06
11:46:33.625000,35.40
11:46:33.640625,42.91
11:46:33.656250,50.34
11:46:33.671875,57.51
11:46:33.687500,64.24
11:46:33.703125,70.29
11:46:33.718750,75.35
11:46:33.734375,78.96
11:46:33.750000,80.60
11:46:33.765625,79.73
11:46:33.781250,76.01
11:46:33.796875,69.57
11:46:33.812500,61.30
11:46:33.828125,52.72
11:46:33.843750,45.55
11:46:33.859375,40.90
11:46:33.875000,38.54
11:46:33.890625,36.78
11:46:33.906250,32.96
11:46:33.921875,24.56
11:46:33.937500,10.28
11:46:33.953125,-9.38
11:46:33.968750,-32.37
11:46:33.984375,-55.89
11:46:34,-77.37
11:46:34.015625,-95.03
11:46:34.031250,-107.91
11:46:34.046875,-115.64
11:46:34.062500,-118.22
11:46:34.078125,-116.01
11:46:34.093750,-109.99
11:46:34.109375,-101.90
11:46:34.125000,-93.94
11:46:34.140625,-88.15
11:46:34.156250,-85.74
11:46:34.171875,-86.60
11:46:34.187500,-89.50
11:46:34.203125,-92.61
11:46:34.218750,-94.20
11:46:34.234375,-93.28
11:46:34.250000,-89.65
11:46:34.265625,-83.76
11:46:34.281250,-76.20
11:46:34.296875,-67.48
11:46:34.312500,-57.79
11:46:34.328125,-47.15
11:46:34.343750,-35.60
11:46:34.359375,-23.41
11:46:34.375000,-11.16
11:46:34.390625,0.37
11:46:34.406250,10.40
11:46:34.421875,18.30
11:46:34.437500,23.74
11:46:34.453125,26.77
11:46:34.468750,27.70
11:46:34.484375,27.08
11:46:34.500000,25.57
11:46:34.515625,23.80
11:46:34.531250,22.32
11:46:34.546875,21.48
11:46:34.562500,21.44
11:46:34.578125,22.16
11:46:34.593750,23.38
11:46:34.609375,24.74
11:46:34.625000,25.78
11:46:34.640625,26.12
11:46:34.656250,25.46
11:46:34.671875,23.69
11:46:34.687500,20.87
11:46:34.703125,17.21
11:46:34.718750,13.03
11:46:34.734375,8.70
11:46:34.750000,4.68
11:46:34.765625,1.47
11:46:34.781250,-0.42
11:46:34.796875,-0.67
11:46:34.812500,0.74
11:46:34.828125,3.42
11:46:34.843750,6.65
11:46:34.859375,9.57
11:46:34.875000,11.45
11:46:34.890625,11.84
11:46:34.906250,10.66
11:46:34.921875,8.04
11:46:34.937500,4.22
11:46:34.953125,-0.48
11:46:34.968750,-5.69
11:46:34.984375,-10.84
11:46:35,-15.31
11:46:35.015625,-18.49
11:46:35.031250,-20.02
11:46:35.046875,-19.88
11:46:35.062500,-18.38
11:46:35.078125,-15.96
11:46:35.093750,-13.02
11:46:35.109375,-9.74
11:46:35.125000,-6.13
11:46:35.140625,-2.09
11:46:35.156250,2.38
11:46:35.171875,7.16
11:46:35.187500,11.97
11:46:35.203125,16.49
11:46:35.218750,20.40
11:46:35.234375,23.47
11:46:35.250000,25.61
11:46:35.265625,26.85
11:46:35.281250,27.38
11:46:35.296875,27.48
11:46:35.312500,27.50
11:46:35.328125,27.73
11:46:35.343750,28.46
11:46:35.359375,29.95
11:46:35.375000,32.55
11:46:35.390625,36.65
11:46:35.406250,42.64
11:46:35.421875,50.64
11:46:35.437500,60.39
11:46:35.453125,71.06
11:46:35.468750,81.42
11:46:35.484375,90.09
11:46:35.500000,95.90
11:46:35.515625,98.18
11:46:35.531250,96.85
11:46:35.546875,92.33
11:46:35.562500,85.33
11:46:35.578125,76.67
11:46:35.593750,67.18
11:46:35.609375,57.60
11:46:35.625000,48.54
11:46:35.640625,40.41
11:46:35.656250,33.36
11:46:35.671875,27.19
11:46:35.687500,21.48
11:46:35.703125,15.68
11:46:35.718750,9.38
11:46:35.734375,2.44
11:46:35.750000,-4.88
11:46:35.765625,-12.02
11:46:35.781250,-18.25
11:46:35.796875,-22.98
11:46:35.812500,-25.87
11:46:35.828125,-26.93
11:46:35.843750,-26.50
11:46:35.859375,-25.05
11:46:35.875000,-23.12
11:46:35.890625,-21.15
11:46:35.906250,-19.45
11:46:35.921875,-18.17
11:46:35.937500,-17.41
11:46:35.953125,-17.18
11:46:35.968750,-17.49
11:46:35.984375,-18.31
11:46:36,-19.55
11:46:36.015625,-21.15
11:46:36.031250,-23.02
11:46:36.046875,-25.11
11:46:36.062500,-27.34
11:46:36.078125,-29.59
11:46:36.093750,-31.68
11:46:36.109375,-33.37
11:46:36.125000,-34.45
11:46:36.140625,-34.78
11:46:36.156250,-34.41
11:46:36.171875,-33.62
11:46:36.187500,-32.82
11:46:36.203125,-32.50
11:46:36.218750,-33.04
11:46:36.234375,-34.57
11:46:36.250000,-36.96
11:46:36.265625,-39.81
11:46:36.281250,-42.61
11:46:36.296875,-44.87
11:46:36.312500,-46.21
11:46:36.328125,-46.49
11:46:36.343750,-45.79
11:46:36.359375,-44.33
11:46:36.375000,-42.50
11:46:36.390625,-40.67
11:46:36.406250,-39.15
11:46:36.421875,-38.18
11:46:36.437500,-37.79
11:46:36.453125,-37.89
11:46:36.468750,-38.20
11:46:36.484375,-38.40
11:46:36.500000,-38.12
11:46:36.515625,-37.07
11:46:36.531250,-35.10
11:46:36.546875,-32.13
11:46:36.562500,-28.23
11:46:36.578125,-23.49
11:46:36.593750,-18.04
11:46:36.609375,-11.96
11:46:36.625000,-5.37
11:46:36.640625,1.53
11:46:36.656250,8.43
11:46:36.671875,14.88
11:46:36.687500,20.40
11:46:36.703125,24.62
11:46:36.718750,27.35
11:46:36.734375,28.64
11:46:36.750000,28.71
11:46:36.765625,27.87
11:46:36.781250,26.44
11:46:36.796875,24.69
11:46:36.812500,22.83
11:46:36.828125,21.01
11:46:36.843750,19.32
11:46:36.859375,17.77
11:46:36.875000,16.36
11:46:36.890625,15.09
11:46:36.906250,14.00
11:46:36.921875,13.22
11:46:36.937500,12.84
11:46:36.953125,12.83
11:46:36.968750,13.02
11:46:36.984375,13.12
11:46:37,12.76
11:46:37.015625,11.71
11:46:37.031250,9.91
11:46:37.046875,7.46
11:46:37.062500,4.59
11:46:37.078125,1.49
11:46:37.093750,-1.68
11:46:37.109375,-4.91
11:46:37.125000,-8.22
11:46:37.140625,-11.64
11:46:37.156250,-15.16
11:46:37.171875,-18.69
11:46:37.187500,-22.08
11:46:37.203125,-25.01
11:46:37.218750,-27.16
11:46:37.234375,-28.12
11:46:37.250000,-27.54
11:46:37.265625,-25.18
11:46:37.281250,-21.02
11:46:37.296875,-15.27
11:46:37.312500,-8.39
11:46:37.328125,-0.99
11:46:37.343750,6.30
11:46:37.359375,12.95
11:46:37.375000,18.63
11:46:37.390625,23.18
11:46:37.406250,26.59
11:46:37.421875,28.96
11:46:37.437500,30.44
11:46:37.453125,31.25
11:46:37.468750,31.69
11:46:37.484375,32.03
11:46:37.500000,32.45
11:46:37.515625,32.92
11:46:37.531250,33.20
11:46:37.546875,32.89
11:46:37.562500,31.64
11:46:37.578125,29.29
11:46:37.593750,25.95
11:46:37.609375,21.95
11:46:37.625000,17.76
11:46:37.640625,13.79
11:46:37.656250,10.33
11:46:37.671875,7.50
11:46:37.687500,5.33
11:46:37.703125,3.77
11:46:37.718750,2.78
11:46:37.734375,2.22
11:46:37.750000,1.92
11:46:37.765625,1.60
11:46:37.781250,0.91
11:46:37.796875,-0.49
11:46:37.812500,-2.85
11:46:37.828125,-6.16
11:46:37.843750,-10.15
11:46:37.859375,-14.32
11:46:37.875000,-18.13
11:46:37.890625,-21.12
11:46:37.906250,-23.04
11:46:37.921875,-23.73
11:46:37.937500,-23.07
11:46:37.953125,-20.77
11:46:37.968750,-16.50
11:46:37.984375,-9.95
11:46:38,-1.10
11:46:38.015625,9.56
11:46:38.031250,21.02
11:46:38.046875,31.84
11:46:38.062500,40.51
11:46:38.078125,45.68
11:46:38.093750,46.47
11:46:38.109375,42.64
11:46:38.125000,34.57
11:46:38.140625,23.24
11:46:38.156250,10.03
11:46:38.171875,-3.51
11:46:38.187500,-15.89
11:46:38.203125,-25.93
11:46:38.218750,-32.90
11:46:38.234375,-36.56
11:46:38.250000,-37.17
11:46:38.265625,-35.38
11:46:38.281250,-32.11
11:46:38.296875,-28.34
11:46:38.312500,-24.90
11:46:38.328125,-22.38
11:46:38.343750,-20.95
11:46:38.359375,-20.48
11:46:38.375000,-20.61
11:46:38.390625,-20.93
11:46:38.406250,-21.11
11:46:38.421875,-20.94
11:46:38.437500,-20.39
11:46:38.453125,-19.52
11:46:38.468750,-18.45
11:46:38.484375,-17.26
11:46:38.500000,-16.05
11:46:38.515625,-14.83
11:46:38.531250,-13.55
11:46:38.546875,-12.19
11:46:38.562500,-10.69
11:46:38.578125,-9.11
11:46:38.593750,-7.55
11:46:38.609375,-6.20
11:46:38.625000,-5.25
11:46:38.640625,-4.92
11:46:38.656250,-5.26
11:46:38.671875,-6.20
11:46:38.687500,-7.51
11:46:38.703125,-8.84
11:46:38.718750,-9.88
11:46:38.734375,-10.34
11:46:38.750000,-10.09
11:46:38.765625,-9.06
11:46:38.781250,-7.22
11:46:38.796875,-4.62
11:46:38.812500,-1.30
11:46:38.828125,2.55
11:46:38.843750,6.65
11:46:38.859375,10.61
11:46:38.875000,14.09
11:46:38.890625,16.85
11:46:38.906250,18.85
11:46:38.921875,20.19
11:46:38.937500,20.92
11:46:38.953125,21.07
11:46:38.968750,20.53
11:46:38.984375,19.28
11:46:39,17.43
11:46:39.015625,15.30
11:46:39.031250,13.34
11:46:39.046875,11.95
11:46:39.062500,11.31
11:46:39.078125,11.36
11:46:39.093750,11.85
11:46:39.109375,12.49
11:46:39.125000,13.09
11:46:39.140625,13.59
11:46:39.156250,14.03
11:46:39.171875,14.44
11:46:39.187500,14.79
11:46:39.203125,14.99
11:46:39.218750,14.94
11:46:39.234375,14.54
11:46:39.250000,13.68
11:46:39.265625,12.32
11:46:39.281250,10.44
11:46:39.296875,8.09
11:46:39.312500,5.40
11:46:39.328125,2.52
11:46:39.343750,-0.38
11:46:39.359375,-3.20
11:46:39.375000,-5.85
11:46:39.390625,-8.26
11:46:39.406250,-10.32
11:46:39.421875,-11.86
11:46:39.437500,-12.73
11:46:39.453125,-12.86
11:46:39.468750,-12.38
11:46:39.484375,-11.51
11:46:39.500000,-10.53
11:46:39.515625,-9.56
11:46:39.531250,-8.52
11:46:39.546875,-7.15
11:46:39.562500,-5.09
11:46:39.578125,-2.10
11:46:39.593750,1.92
11:46:39.609375,6.86
11:46:39.625000,12.43
11:46:39.640625,18.29
11:46:39.656250,24.11
11:46:39.671875,29.55
11:46:39.687500,34.30
11:46:39.703125,38.06
11:46:39.718750,40.60
11:46:39.734375,41.83
11:46:39.750000,41.90
11:46:39.765625,41.14
11:46:39.781250,40.05
11:46:39.796875,39.08
11:46:39.812500,38.53
11:46:39.828125,38.50
11:46:39.843750,38.94
11:46:39.859375,39.81
11:46:39.875000,41.10
11:46:39.890625,42.91
11:46:39.906250,45.35
11:46:39.921875,48.46
11:46:39.937500,52.12
11:46:39.953125,56.01
11:46:39.968750,59.68
11:46:39.984375,62.62
11:46:40,64.32
11:46:40.015625,64.40
11:46:40.031250,62.64
11:46:40.046875,59.04
11:46:40.062500,53.75
11:46:40.078125,46.94
11:46:40.093750,38.63
11:46:40.109375,28.73
11:46:40.125000,17.11
11:46:40.140625,3.78
11:46:40.156250,-10.87
11:46:40.171875,-26.08
11:46:40.187500,-40.82
11:46:40.203125,-54.09
11:46:40.218750,-65.13
11:46:40.234375,-73.53
11:46:40.250000,-79.27
11:46:40.265625,-82.54
11:46:40.281250,-83.61
11:46:40.296875,-82.79
11:46:40.312500,-80.40
11:46:40.328125,-76.79
11:46:40.343750,-72.32
11:46:40.359375,-67.39
11:46:40.375000,-62.33
11:46:40.390625,-57.55
11:46:40.406250,-53.45
11:46:40.421875,-50.45
11:46:40.437500,-48.80
11:46:40.453125,-48.51
11:46:40.468750,-49.27
11:46:40.484375,-50.58
11:46:40.500000,-51.92
11:46:40.515625,-52.97
11:46:40.531250,-53.63
11:46:40.546875,-53.96
11:46:40.562500,-53.99
11:46:40.578125,-53.66
11:46:40.593750,-52.79
11:46:40.609375,-51.19
11:46:40.625000,-48.80
11:46:40.640625,-45.75
11:46:40.656250,-42.26
11:46:40.671875,-38.61
11:46:40.687500,-34.97
11:46:40.703125,-31.45
11:46:40.718750,-28.08
11:46:40.734375,-24.87
11:46:40.750000,-21.79
11:46:40.765625,-18.80
11:46:40.781250,-15.88
11:46:40.796875,-13.01
11:46:40.812500,-10.28
11:46:40.828125,-7.81
11:46:40.843750,-5.71
11:46:40.859375,-4.07
11:46:40.875000,-2.86
11:46:40.890625,-1.96
11:46:40.906250,-1.22
11:46:40.921875,-0.52
11:46:40.937500,0.13
11:46:40.953125,0.65
11:46:40.968750,0.89
11:46:40.984375,0.76
11:46:41,0.25
11:46:41.015625,-0.50
11:46:41.031250,-1.31
11:46:41.046875,-1.99
11:46:41.062500,-2.45
11:46:41.078125,-2.65
11:46:41.093750,-2.50
11:46:41.109375,-1.82
11:46:41.125000,-0.43
11:46:41.140625,1.79
11:46:41.156250,4.80
11:46:41.171875,8.45
11:46:41.187500,12.40
11:46:41.203125,16.28
11:46:41.218750,19.76
11:46:41.234375,22.60
11:46:41.250000,24.71
11:46:41.265625,26.04
11:46:41.281250,26.60
11:46:41.296875,26.43
11:46:41.312500,25.73
11:46:41.328125,24.75
11:46:41.343750,23.67
11:46:41.359375,22.59
11:46:41.375000,21.58
11:46:41.390625,20.80
11:46:41.406250,20.39
11:46:41.421875,20.51
11:46:41.437500,21.17
11:46:41.453125,22.50
11:46:41.468750,24.23
11:46:41.484375,25.70
11:46:41.500000,26.06
11:46:41.515625,24.80
11:46:41.531250,22.08
11:46:41.546875,18.57
11:46:41.562500,15.04
11:46:41.578125,12.19
11:46:41.593750,10.92
11:46:41.609375,11.45
11:46:41.625000,13.05
11:46:41.640625,14.45
11:46:41.656250,14.71
11:46:41.671875,13.80
11:46:41.687500,12.52
11:46:41.703125,11.88
11:46:41.718750,12.96
11:46:41.734375,17.28
11:46:41.750000,25.37
11:46:41.765625,36.35
11:46:41.781250,48.24
11:46:41.796875,59.12
11:46:41.812500,67.97
11:46:41.828125,74.68
11:46:41.843750,79.40
11:46:41.859375,83.32
11:46:41.875000,89.35
11:46:41.890625,100.42
11:46:41.906250,117.78
11:46:41.921875,139.78
11:46:41.937500,162.17
11:46:41.953125,179.42
11:46:41.968750,186.32
11:46:41.984375,179.06
11:46:42,148.65
11:46:42.015625,95.35
11:46:42.031250,30.71
11:46:42.046875,-28.42
11:46:42.062500,-70.67
11:46:42.078125,-94.85
11:46:42.093750,-106.12
11:46:42.109375,-110.92
11:46:42.125000,-117.08
11:46:42.140625,-128.24
11:46:42.156250,-144.93
11:46:42.171875,-165.72
11:46:42.187500,-187.88
11:46:42.203125,-207.75
11:46:42.218750,-221.59
11:46:42.234375,-226.48
11:46:42.250000,-216.02
11:46:42.265625,-189.86
11:46:42.281250,-146.41
11:46:42.296875,-92.28
11:46:42.312500,-38.60
11:46:42.328125,5.82
11:46:42.343750,38.99
11:46:42.359375,63.70
11:46:42.375000,83.53
11:46:42.390625,99.41
11:46:42.406250,109.87
11:46:42.421875,111.10
11:46:42.437500,100.80
11:46:42.453125,80.01
11:46:42.468750,52.64
11:46:42.484375,23.53
11:46:42.500000,-4.23
11:46:42.515625,-28.69
11:46:42.531250,-46.62
11:46:42.546875,-57.39
11:46:42.562500,-63.26
11:46:42.578125,-68.33
11:46:42.593750,-75.89
11:46:42.609375,-88.55
11:46:42.625000,-102.65
11:46:42.640625,-113.25
11:46:42.656250,-115.73
11:46:42.671875,-107.07
11:46:42.687500,-87.61
11:46:42.703125,-60.23
11:46:42.718750,-26.28
11:46:42.734375,9.83
11:46:42.750000,43.65
11:46:42.765625,72.22
11:46:42.781250,93.52
11:46:42.796875,106.95
11:46:42.812500,112.83
11:46:42.828125,111.59
11:46:42.843750,104.27
11:46:42.859375,92.80
11:46:42.875000,79.69
11:46:42.890625,68.05
11:46:42.906250,60.50
11:46:42.921875,57.46
11:46:42.937500,57.49
11:46:42.953125,58.10
11:46:42.968750,56.61
11:46:42.984375,51.47
11:46:43,42.80
11:46:43.015625,31.75
11:46:43.031250,20.24
11:46:43.046875,10.18
11:46:43.062500,2.34
11:46:43.078125,-3.47
11:46:43.093750,-7.98
11:46:43.109375,-12.17
11:46:43.125000,-16.66
11:46:43.140625,-21.55
11:46:43.156250,-26.66
11:46:43.171875,-31.48
11:46:43.187500,-35.36
11:46:43.203125,-37.96
11:46:43.218750,-39.18
11:46:43.234375,-39.06
11:46:43.250000,-37.91
11:46:43.265625,-35.85
11:46:43.281250,-32.82
11:46:43.296875,-28.82
11:46:43.312500,-24.13
11:46:43.328125,-19.36
11:46:43.343750,-15.46
11:46:43.359375,-13.25
11:46:43.375000,-12.99
11:46:43.390625,-14.66
11:46:43.406250,-17.50
11:46:43.421875,-20.31
11:46:43.437500,-22.09
11:46:43.453125,-22.51
11:46:43.468750,-21.98
11:46:43.484375,-21.39
11:46:43.500000,-21.52
11:46:43.515625,-22.72
11:46:43.531250,-25.42
11:46:43.546875,-29.39
11:46:43.562500,-33.82
11:46:43.578125,-37.75
11:46:43.593750,-40.74
11:46:43.609375,-43.00
11:46:43.625000,-45.12
11:46:43.640625,-47.68
11:46:43.656250,-50.84
11:46:43.671875,-54.98
11:46:43.687500,-59.71
11:46:43.703125,-63.83
11:46:43.718750,-66.00
11:46:43.734375,-65.52
11:46:43.750000,-62.65
11:46:43.765625,-58.45
11:46:43.781250,-54.40
11:46:43.796875,-46.75
11:46:43.812500,-34.52
11:46:43.828125,-19.75
11:46:43.843750,-6.12
11:46:43.859375,3.96
11:46:43.875000,10.51
11:46:43.890625,14.93
11:46:43.906250,18.56
11:46:43.921875,21.95
11:46:43.937500,24.92
11:46:43.953125,26.01
11:46:43.968750,24.19
11:46:43.984375,19.65
11:46:44,14.09
11:46:44.015625,10.16
11:46:44.031250,10.84
11:46:44.046875,18.32
11:46:44.062500,32.91
11:46:44.078125,52.41
11:46:44.093750,72.11
11:46:44.109375,87.12
11:46:44.125000,94.34
11:46:44.140625,94.16
11:46:44.156250,88.10
11:46:44.171875,78.40
11:46:44.187500,67.10
11:46:44.203125,55.37
11:46:44.218750,43.62
11:46:44.234375,31.73
11:46:44.250000,20.16
11:46:44.265625,10.25
11:46:44.281250,3.60
11:46:44.296875,1.12
11:46:44.312500,2.70
11:46:44.328125,7.23
11:46:44.343750,13.04
11:46:44.359375,18.27
11:46:44.375000,21.49
11:46:44.390625,22.17
11:46:44.406250,20.78
11:46:44.421875,18.38
11:46:44.437500,15.87
11:46:44.453125,13.77
11:46:44.468750,11.98
11:46:44.484375,10.58
11:46:44.500000,9.21
11:46:44.515625,7.40
11:46:44.531250,4.98
11:46:44.546875,2.13
11:46:44.562500,-0.76
11:46:44.578125,-3.65
11:46:44.593750,-6.61
11:46:44.609375,-9.83
11:46:44.625000,-13.56
11:46:44.640625,-18.10
11:46:44.656250,-23.40
11:46:44.671875,-28.93
11:46:44.687500,-33.72
11:46:44.703125,-36.70
11:46:44.718750,-37.47
11:46:44.734375,-35.82
11:46:44.750000,-31.64
11:46:44.765625,-25.08
11:46:44.781250,-16.90
11:46:44.796875,-8.12
11:46:44.812500,0.17
11:46:44.828125,7.10
11:46:44.843750,12.15
11:46:44.859375,14.33
11:46:44.875000,13.33
11:46:44.890625,9.65
11:46:44.906250,4.21
11:46:44.921875,-2.32
11:46:44.937500,-9.58
11:46:44.953125,-17.32
11:46:44.968750,-25.39
11:46:44.984375,-33.66
11:46:45,-42.95
11:46:45.015625,-53.36
11:46:45.031250,-63.85
11:46:45.046875,-72.69
11:46:45.062500,-78.43
11:46:45.078125,-80.40
11:46:45.093750,-78.80
11:46:45.109375,-74.78
11:46:45.125000,-63.76
11:46:45.140625,-45.79
11:46:45.156250,-25.19
11:46:45.171875,-7.09
11:46:45.187500,6.34
11:46:45.203125,15.73
11:46:45.218750,22.76
11:46:45.234375,29.07
11:46:45.250000,35.55
11:46:45.265625,42.50
11:46:45.281250,48.54
11:46:45.296875,52.30
11:46:45.312500,53.16
11:46:45.328125,51.57
11:46:45.343750,48.94
11:46:45.359375,47.28
11:46:45.375000,48.82
11:46:45.390625,54.17
11:46:45.406250,62.40
11:46:45.421875,70.33
11:46:45.437500,74.69
11:46:45.453125,73.61
11:46:45.468750,67.00
11:46:45.484375,55.78
11:46:45.500000,40.50
11:46:45.515625,22.95
11:46:45.531250,4.83
11:46:45.546875,-12.13
11:46:45.562500,-25.27
11:46:45.578125,-30.72
11:46:45.593750,-25.20
11:46:45.609375,-8.46
11:46:45.625000,15.70
11:46:45.640625,40.63
11:46:45.656250,59.66
11:46:45.671875,68.38
11:46:45.687500,66.10
11:46:45.703125,54.94
11:46:45.718750,37.88
11:46:45.734375,18.53
11:46:45.750000,-0.18
11:46:45.765625,-16.52
11:46:45.781250,-29.62
11:46:45.796875,-38.86
11:46:45.812500,-44.01
11:46:45.828125,-45.31
11:46:45.843750,-43.62
11:46:45.859375,-40.19
11:46:45.875000,-36.20
11:46:45.890625,-32.56
11:46:45.906250,-29.67
11:46:45.921875,-27.64
11:46:45.937500,-26.33
11:46:45.953125,-25.62
11:46:45.968750,-25.43
11:46:45.984375,-25.74
11:46:46,-26.81
11:46:46.015625,-29.24
11:46:46.031250,-33.58
11:46:46.046875,-40.19
11:46:46.062500,-48.84
11:46:46.078125,-58.54
11:46:46.093750,-67.66
11:46:46.109375,-74.34
11:46:46.125000,-77.03
11:46:46.140625,-74.92
11:46:46.156250,-68.22
11:46:46.171875,-57.55
11:46:46.187500,-43.86
11:46:46.203125,-28.20
11:46:46.218750,-11.65
11:46:46.234375,4.67
11:46:46.250000,19.36
11:46:46.265625,30.73
11:46:46.281250,38.42
11:46:46.296875,40.79
11:46:46.312500,37.47
11:46:46.328125,30.18
11:46:46.343750,22.02
11:46:46.359375,15.82
11:46:46.375000,13.02
11:46:46.390625,13.50
11:46:46.406250,15.99
11:46:46.421875,18.92
11:46:46.437500,20.89
11:46:46.453125,21.55
11:46:46.468750,20.90
11:46:46.484375,18.89
11:46:46.500000,15.35
11:46:46.515625,10.21
11:46:46.531250,4.06
11:46:46.546875,-1.75
11:46:46.562500,-5.35
11:46:46.578125,-6.19
11:46:46.593750,-3.43
11:46:46.609375,2.07
11:46:46.625000,8.22
11:46:46.640625,12.64
11:46:46.656250,13.85
11:46:46.671875,11.81
11:46:46.687500,7.73
11:46:46.703125,3.29
11:46:46.718750,-0.36
11:46:46.734375,-2.62
11:46:46.750000,-3.74
11:46:46.765625,-3.96
11:46:46.781250,-3.17
11:46:46.796875,-0.85
11:46:46.812500,3.54
11:46:46.828125,10.03
11:46:46.843750,18.00
11:46:46.859375,26.34
11:46:46.875000,34.40
11:46:46.890625,41.17
11:46:46.906250,46.07
11:46:46.921875,49.07
11:46:46.937500,50.38
11:46:46.953125,50.26
11:46:46.968750,48.91
11:46:46.984375,46.52
11:46:47,43.31
11:46:47.015625,39.62
11:46:47.031250,35.75
11:46:47.046875,31.87
11:46:47.062500,28.03
11:46:47.078125,24.08
11:46:47.093750,19.82
11:46:47.109375,15.14
11:46:47.125000,10.05
11:46:47.140625,4.70
11:46:47.156250,-0.68
11:46:47.171875,-5.82
11:46:47.187500,-10.42
11:46:47.203125,-14.19
11:46:47.218750,-16.99
11:46:47.234375,-18.84
11:46:47.250000,-20.00
11:46:47.265625,-20.79
11:46:47.281250,-21.59
11:46:47.296875,-22.72
11:46:47.312500,-24.49
11:46:47.328125,-27.15
11:46:47.343750,-30.87
11:46:47.359375,-35.77
11:46:47.375000,-41.87
11:46:47.390625,-49.01
11:46:47.406250,-56.92
11:46:47.421875,-65.26
11:46:47.437500,-73.69
11:46:47.453125,-81.89
11:46:47.468750,-89.47
11:46:47.484375,-95.86
11:46:47.500000,-100.32
11:46:47.515625,-102.15
11:46:47.531250,-100.81
11:46:47.546875,-96.11
11:46:47.562500,-88.28
11:46:47.578125,-77.71
11:46:47.593750,-64.80
11:46:47.609375,-49.77
11:46:47.625000,-32.79
11:46:47.640625,-14.16
11:46:47.656250,5.39
11:46:47.671875,24.67
11:46:47.687500,42.19
11:46:47.703125,56.58
11:46:47.718750,66.99
11:46:47.734375,73.35
11:46:47.750000,76.29
11:46:47.765625,76.83
11:46:47.781250,76.01
11:46:47.796875,74.56
11:46:47.812500,72.89
11:46:47.828125,71.03
11:46:47.843750,68.92
11:46:47.859375,66.48
11:46:47.875000,63.65
11:46:47.890625,60.37
11:46:47.906250,56.53
11:46:47.921875,51.97
11:46:47.937500,46.51
11:46:47.953125,40.08
11:46:47.968750,32.82
11:46:47.984375,25.04
11:46:48,17.14
11:46:48.015625,9.48
11:46:48.031250,2.24
11:46:48.046875,-4.64
11:46:48.062500,-11.41
11:46:48.078125,-18.38
11:46:48.093750,-25.84
11:46:48.109375,-33.92
11:46:48.125000,-42.60
11:46:48.140625,-51.84
11:46:48.156250,-61.60
11:46:48.171875,-71.86
11:46:48.187500,-82.55
11:46:48.203125,-93.39
11:46:48.218750,-103.79
11:46:48.234375,-112.92
11:46:48.250000,-119.83
11:46:48.265625,-123.70
11:46:48.281250,-124.06
11:46:48.296875,-120.93
11:46:48.312500,-114.76
11:46:48.328125,-106.31
11:46:48.343750,-96.48
11:46:48.359375,-86.13
11:46:48.375000,-76.06
11:46:48.390625,-66.91
11:46:48.406250,-59.09
11:46:48.421875,-52.74
11:46:48.437500,-47.59
11:46:48.453125,-43.05
11:46:48.468750,-38.21
11:46:48.484375,-32.14
11:46:48.500000,-24.15
11:46:48.515625,-14.07
11:46:48.531250,-2.21
11:46:48.546875,10.79
11:46:48.562500,24.38
11:46:48.578125,38.47
11:46:48.593750,53.51
11:46:48.609375,70.19
11:46:48.625000,88.90
11:46:48.640625,109.24
11:46:48.656250,129.80
11:46:48.671875,148.44
11:46:48.687500,162.85
11:46:48.703125,171.33
11:46:48.718750,173.11
11:46:48.734375,168.41
11:46:48.750000,158.05
11:46:48.765625,143.03
11:46:48.781250,124.32
11:46:48.796875,102.81
11:46:48.812500,79.55
11:46:48.828125,55.77
11:46:48.843750,32.82
11:46:48.859375,11.91
11:46:48.875000,-6.20
11:46:48.890625,-21.28
11:46:48.906250,-33.44
11:46:48.921875,-42.93
11:46:48.937500,-49.82
11:46:48.953125,-53.96
11:46:48.968750,-55.14
11:46:48.984375,-53.35
11:46:49,-48.93
11:46:49.015625,-42.49
11:46:49.031250,-34.77
11:46:49.046875,-26.35
11:46:49.062500,-17.57
11:46:49.078125,-8.59
11:46:49.093750,0.50
11:46:49.109375,9.48
11:46:49.125000,17.98
11:46:49.140625,25.52
11:46:49.156250,31.61
11:46:49.171875,35.99
11:46:49.187500,38.64
11:46:49.203125,39.81
11:46:49.218750,39.96
11:46:49.234375,39.64
11:46:49.250000,39.35
11:46:49.265625,39.41
11:46:49.281250,39.87
11:46:49.296875,40.53
11:46:49.312500,41.02
11:46:49.328125,40.92
11:46:49.343750,39.94
11:46:49.359375,37.95
11:46:49.375000,34.98
11:46:49.390625,31.14
11:46:49.406250,26.52
11:46:49.421875,21.13
11:46:49.437500,15.06
11:46:49.453125,8.57
11:46:49.468750,2.15
11:46:49.484375,-3.52
11:46:49.500000,-7.90
11:46:49.515625,-10.76
11:46:49.531250,-12.46
11:46:49.546875,-13.76
11:46:49.562500,-15.57
11:46:49.578125,-18.52
11:46:49.593750,-22.81
11:46:49.609375,-28.22
11:46:49.625000,-34.52
11:46:49.640625,-41.78
11:46:49.656250,-50.46
11:46:49.671875,-61.26
11:46:49.687500,-74.67
11:46:49.703125,-90.63
11:46:49.718750,-108.46
11:46:49.734375,-127.03
11:46:49.750000,-144.96
11:46:49.765625,-160.58
11:46:49.781250,-171.88
11:46:49.796875,-176.47
11:46:49.812500,-171.94
11:46:49.828125,-156.61
11:46:49.843750,-130.39
11:46:49.859375,-95.25
11:46:49.875000,-54.88
11:46:49.890625,-13.85
11:46:49.906250,23.71
11:46:49.921875,54.86
11:46:49.937500,78.35
11:46:49.953125,94.30
11:46:49.968750,103.70
11:46:49.984375,107.93
11:46:50,108.40
11:46:50.015625,106.43
11:46:50.031250,102.99
11:46:50.046875,98.70
11:46:50.062500,93.69
11:46:50.078125,87.86
11:46:50.093750,81.01
11:46:50.109375,73.11
11:46:50.125000,64.44
11:46:50.140625,55.42
11:46:50.156250,46.50
11:46:50.171875,38.00
11:46:50.187500,30.14
11:46:50.203125,23.06
11:46:50.218750,16.95
11:46:50.234375,12.01
11:46:50.250000,8.33
11:46:50.265625,5.82
11:46:50.281250,4.14
11:46:50.296875,2.89
11:46:50.312500,1.71
11:46:50.328125,0.62
11:46:50.343750,-0.13
11:46:50.359375,-0.17
11:46:50.375000,0.65
11:46:50.390625,2.04
11:46:50.406250,3.26
11:46:50.421875,3.37
11:46:50.437500,1.67
11:46:50.453125,-2.04
11:46:50.468750,-7.30
11:46:50.484375,-13.19
11:46:50.500000,-18.67
11:46:50.515625,-22.80
11:46:50.531250,-25.02
11:46:50.546875,-25.13
11:46:50.562500,-23.24
11:46:50.578125,-19.56
11:46:50.593750,-14.36
11:46:50.609375,-7.88
11:46:50.625000,-0.37
11:46:50.640625,7.89
11:46:50.656250,16.51
11:46:50.671875,24.94
11:46:50.687500,32.65
11:46:50.703125,39.15
11:46:50.718750,44.19
11:46:50.734375,47.80
11:46:50.750000,50.19
11:46:50.765625,51.71
11:46:50.781250,52.60
11:46:50.796875,53.00
11:46:50.812500,52.84
11:46:50.828125,52.08
11:46:50.843750,50.72
11:46:50.859375,48.88
11:46:50.875000,46.77
11:46:50.890625,44.59
11:46:50.906250,42.39
11:46:50.921875,40.11
11:46:50.937500,37.56
11:46:50.953125,34.51
11:46:50.968750,30.84
11:46:50.984375,26.56
11:46:51,21.78
11:46:51.015625,16.65
11:46:51.031250,11.29
11:46:51.046875,5.83
11:46:51.062500,0.32
11:46:51.078125,-5.13
11:46:51.093750,-10.46
11:46:51.109375,-15.60
11:46:51.125000,-20.51
11:46:51.140625,-25.19
11:46:51.156250,-29.63
11:46:51.171875,-33.88
11:46:51.187500,-37.99
11:46:51.203125,-42.03
11:46:51.218750,-46.07
11:46:51.234375,-50.11
11:46:51.250000,-54.02
11:46:51.265625,-57.47
11:46:51.281250,-59.91
11:46:51.296875,-60.71
11:46:51.312500,-59.27
11:46:51.328125,-55.27
11:46:51.343750,-48.74
11:46:51.359375,-40.11
11:46:51.375000,-30.03
11:46:51.390625,-19.30
11:46:51.406250,-8.57
11:46:51.421875,1.67
11:46:51.437500,11.09
11:46:51.453125,19.42
11:46:51.468750,26.45
11:46:51.484375,31.99
11:46:51.500000,35.95
11:46:51.515625,38.43
11:46:51.531250,39.70
11:46:51.546875,40.13
11:46:51.562500,40.06
11:46:51.578125,39.71
11:46:51.593750,39.10
11:46:51.609375,38.18
11:46:51.625000,36.89
11:46:51.640625,35.20
11:46:51.656250,33.19
11:46:51.671875,30.93
11:46:51.687500,28.55
11:46:51.703125,26.15
11:46:51.718750,23.84
11:46:51.734375,21.69
11:46:51.750000,19.71
11:46:51.765625,17.83
11:46:51.781250,15.91
11:46:51.796875,13.88
11:46:51.812500,11.73
11:46:51.828125,9.49
11:46:51.843750,7.21
11:46:51.859375,4.86
11:46:51.875000,2.34
11:46:51.890625,-0.46
11:46:51.906250,-3.60
11:46:51.921875,-7.04
11:46:51.937500,-10.63
11:46:51.953125,-14.21
11:46:51.968750,-17.64
11:46:51.984375,-20.74
11:46:52,-23.27
11:46:52.015625,-24.94
11:46:52.031250,-25.44
11:46:52.046875,-24.58
11:46:52.062500,-22.39
11:46:52.078125,-19.07
11:46:52.093750,-14.91
11:46:52.109375,-10.21
11:46:52.125000,-5.09
11:46:52.140625,0.40
11:46:52.156250,6.22
11:46:52.171875,12.34
11:46:52.187500,18.54
11:46:52.203125,24.52
11:46:52.218750,29.92
11:46:52.234375,34.40
11:46:52.250000,37.71
11:46:52.265625,39.72
11:46:52.281250,40.45
11:46:52.296875,39.99
11:46:52.312500,38.55
11:46:52.328125,36.28
11:46:52.343750,33.37
11:46:52.359375,29.98
11:46:52.375000,26.29
11:46:52.390625,22.44
11:46:52.406250,18.58
11:46:52.421875,14.82
11:46:52.437500,11.18
11:46:52.453125,7.66
11:46:52.468750,4.17
11:46:52.484375,0.62
11:46:52.500000,-3.05
11:46:52.515625,-6.94
11:46:52.531250,-11.03
11:46:52.546875,-15.29
11:46:52.562500,-19.53
11:46:52.578125,-23.57
11:46:52.593750,-27.19
11:46:52.609375,-30.31
11:46:52.625000,-32.99
11:46:52.640625,-35.46
11:46:52.656250,-38.04
11:46:52.671875,-41.02
11:46:52.687500,-44.56
11:46:52.703125,-48.71
11:46:52.718750,-53.37
11:46:52.734375,-58.26
11:46:52.750000,-62.93
11:46:52.765625,-66.73
11:46:52.781250,-68.89
11:46:52.796875,-68.81
11:46:52.812500,-66.14
11:46:52.828125,-61.02
11:46:52.843750,-53.96
11:46:52.859375,-45.67
11:46:52.875000,-36.75
11:46:52.890625,-27.52
11:46:52.906250,-18.03
11:46:52.921875,-8.15
11:46:52.937500,2.12
11:46:52.953125,12.58
11:46:52.968750,22.78
11:46:52.984375,32.15
11:46:53,40.25
11:46:53.015625,46.85
11:46:53.031250,52.06
11:46:53.046875,56.23
11:46:53.062500,59.87
11:46:53.078125,63.42
11:46:53.093750,67.14
11:46:53.109375,70.91
11:46:53.125000,74.23
11:46:53.140625,76.21
11:46:53.156250,75.81
11:46:53.171875,72.11
11:46:53.187500,64.65
11:46:53.203125,53.69
11:46:53.218750,40.14
11:46:53.234375,25.41
11:46:53.250000,10.99
11:46:53.265625,-2.03
11:46:53.281250,-13.13
11:46:53.296875,-22.47
11:46:53.312500,-30.60
11:46:53.328125,-38.11
11:46:53.343750,-45.40
11:46:53.359375,-52.53
11:46:53.375000,-59.32
11:46:53.390625,-65.55
11:46:53.406250,-71.07
11:46:53.421875,-75.87
11:46:53.437500,-80.07
11:46:53.453125,-83.76
11:46:53.468750,-87.05
11:46:53.484375,-90.00
11:46:53.500000,-92.68
11:46:53.515625,-95.09
11:46:53.531250,-97.06
11:46:53.546875,-98.20
11:46:53.562500,-97.87
11:46:53.578125,-95.37
11:46:53.593750,-90.15
11:46:53.609375,-82.00
11:46:53.625000,-71.19
11:46:53.640625,-58.28
11:46:53.656250,-44.05
11:46:53.671875,-29.30
11:46:53.687500,-14.68
11:46:53.703125,-0.75
11:46:53.718750,12.06
11:46:53.734375,23.40
11:46:53.750000,33.01
11:46:53.765625,40.71
11:46:53.781250,46.50
11:46:53.796875,50.51
11:46:53.812500,52.99
11:46:53.828125,54.29
11:46:53.843750,54.76
11:46:53.859375,54.67
11:46:53.875000,54.14
11:46:53.890625,53.17
11:46:53.906250,51.73
11:46:53.921875,49.82
11:46:53.937500,47.57
11:46:53.953125,45.16
11:46:53.968750,42.76
11:46:53.984375,40.43
11:46:54,38.05
11:46:54.015625,35.38
11:46:54.031250,32.18
11:46:54.046875,28.35
11:46:54.062500,23.95
11:46:54.078125,19.24
11:46:54.093750,14.56
11:46:54.109375,10.17
11:46:54.125000,6.19
11:46:54.140625,2.52
11:46:54.156250,-1.01
11:46:54.171875,-4.60
11:46:54.187500,-8.40
11:46:54.203125,-12.47
11:46:54.218750,-16.85
11:46:54.234375,-21.63
11:46:54.250000,-26.91
11:46:54.265625,-32.77
11:46:54.281250,-39.11
11:46:54.296875,-45.63
11:46:54.312500,-51.79
11:46:54.328125,-56.89
11:46:54.343750,-60.21
11:46:54.359375,-61.15
11:46:54.375000,-59.40
11:46:54.390625,-54.94
11:46:54.406250,-48.08
11:46:54.421875,-39.37
11:46:54.437500,-29.44
11:46:54.453125,-18.89
11:46:54.468750,-8.13
11:46:54.484375,2.50
11:46:54.500000,12.72
11:46:54.515625,22.15
11:46:54.531250,30.38
11:46:54.546875,36.96
11:46:54.562500,41.65
11:46:54.578125,44.54
11:46:54.593750,45.93
11:46:54.609375,46.33
11:46:54.625000,46.18
11:46:54.640625,45.76
11:46:54.656250,45.10
11:46:54.671875,44.15
11:46:54.687500,42.86
11:46:54.703125,41.25
11:46:54.718750,39.43
11:46:54.734375,37.48
11:46:54.750000,35.46
11:46:54.765625,33.34
11:46:54.781250,31.06
11:46:54.796875,28.59
11:46:54.812500,25.97
11:46:54.828125,23.31
11:46:54.843750,20.65
11:46:54.859375,17.94
11:46:54.875000,15.04
11:46:54.890625,11.79
11:46:54.906250,8.07
11:46:54.921875,3.90
11:46:54.937500,-0.62
11:46:54.953125,-5.36
11:46:54.968750,-10.18
11:46:54.984375,-15.01
11:46:55,-19.81
11:46:55.015625,-24.61
11:46:55.031250,-29.47
11:46:55.046875,-34.53
11:46:55.062500,-39.97
11:46:55.078125,-45.85
11:46:55.093750,-52.08
11:46:55.109375,-58.27
11:46:55.125000,-63.77
11:46:55.140625,-67.81
11:46:55.156250,-69.69
11:46:55.171875,-68.94
11:46:55.187500,-65.43
11:46:55.203125,-59.37
11:46:55.218750,-51.16
11:46:55.234375,-41.30
11:46:55.250000,-30.29
11:46:55.265625,-18.62
11:46:55.281250,-6.77
11:46:55.296875,4.77
11:46:55.312500,15.49
11:46:55.328125,24.94
11:46:55.343750,32.79
11:46:55.359375,38.89
11:46:55.375000,43.32
11:46:55.390625,46.32
11:46:55.406250,48.23
11:46:55.421875,49.33
11:46:55.437500,49.83
11:46:55.453125,49.77
11:46:55.468750,49.15
11:46:55.484375,47.96
11:46:55.500000,46.28
11:46:55.515625,44.26
11:46:55.531250,41.99
11:46:55.546875,39.52
11:46:55.562500,36.79
11:46:55.578125,33.71
11:46:55.593750,30.20
11:46:55.609375,26.33
11:46:55.625000,22.27
11:46:55.640625,18.22
11:46:55.656250,14.36
11:46:55.671875,10.74
11:46:55.687500,7.30
11:46:55.703125,3.89
11:46:55.718750,0.39
11:46:55.734375,-3.28
11:46:55.750000,-7.09
11:46:55.765625,-10.93
11:46:55.781250,-14.70
11:46:55.796875,-18.33
11:46:55.812500,-21.83
11:46:55.828125,-25.29
11:46:55.843750,-28.86
11:46:55.859375,-32.68
11:46:55.875000,-36.87
11:46:55.890625,-41.49
11:46:55.906250,-46.51
11:46:55.921875,-51.70
11:46:55.937500,-56.64
11:46:55.953125,-60.66
11:46:55.968750,-62.95
11:46:55.984375,-62.79
11:46:56,-59.78
11:46:56.015625,-53.97
11:46:56.031250,-45.85
11:46:56.046875,-36.12
11:46:56.062500,-25.51
11:46:56.078125,-14.51
11:46:56.093750,-3.47
11:46:56.109375,7.31
11:46:56.125000,17.47
11:46:56.140625,26.54
11:46:56.156250,34.04
11:46:56.171875,39.61
11:46:56.187500,43.22
11:46:56.203125,45.12
11:46:56.218750,45.81
11:46:56.234375,45.77
11:46:56.250000,45.38
11:46:56.265625,44.77
11:46:56.281250,43.91
11:46:56.296875,42.70
11:46:56.312500,41.09
11:46:56.328125,39.15
11:46:56.343750,37.04
11:46:56.359375,34.93
11:46:56.375000,32.84
11:46:56.390625,30.70
11:46:56.406250,28.30
11:46:56.421875,25.46
11:46:56.437500,22.16
11:46:56.453125,18.57
11:46:56.468750,14.95
11:46:56.484375,11.59
11:46:56.500000,8.62
11:46:56.515625,5.91
11:46:56.531250,3.18
11:46:56.546875,0.08
11:46:56.562500,-3.65
11:46:56.578125,-7.97
11:46:56.593750,-12.62
11:46:56.609375,-17.15
11:46:56.625000,-21.22
11:46:56.640625,-24.72
11:46:56.656250,-27.83
11:46:56.671875,-31.00
11:46:56.687500,-34.64
11:46:56.703125,-39.01
11:46:56.718750,-44.06
11:46:56.734375,-49.46
11:46:56.750000,-54.72
11:46:56.765625,-59.29
11:46:56.781250,-62.58
11:46:56.796875,-64.02
11:46:56.812500,-63.14
11:46:56.828125,-59.60
11:46:56.843750,-53.35
11:46:56.859375,-44.68
11:46:56.875000,-34.18
11:46:56.890625,-22.61
11:46:56.906250,-10.76
11:46:56.921875,0.68
11:46:56.937500,11.24
11:46:56.953125,20.60
11:46:56.968750,28.56
11:46:56.984375,35.05
11:46:57,40.07
11:46:57.015625,43.69
11:46:57.031250,46.03
11:46:57.046875,47.24
11:46:57.062500,47.45
11:46:57.078125,46.88
11:46:57.093750,45.72
11:46:57.109375,44.20
11:46:57.125000,42.55
11:46:57.140625,40.92
11:46:57.156250,39.34
11:46:57.171875,37.74
11:46:57.187500,35.99
11:46:57.203125,33.93
11:46:57.218750,31.47
11:46:57.234375,28.60
11:46:57.250000,25.37
11:46:57.265625,21.92
11:46:57.281250,18.36
11:46:57.296875,14.76
11:46:57.312500,11.16
11:46:57.328125,7.55
11:46:57.343750,3.85
11:46:57.359375,-0.00
11:46:57.375000,-4.04
11:46:57.390625,-8.23
11:46:57.406250,-12.50
11:46:57.421875,-16.74
11:46:57.437500,-20.92
11:46:57.453125,-25.10
11:46:57.468750,-29.43
11:46:57.484375,-34.04
11:46:57.500000,-39.00
11:46:57.515625,-44.20
11:46:57.531250,-49.48
11:46:57.546875,-54.55
11:46:57.562500,-59.07
11:46:57.578125,-62.61
11:46:57.593750,-64.67
11:46:57.609375,-64.77
11:46:57.625000,-62.53
11:46:57.640625,-57.83
11:46:57.656250,-50.86
11:46:57.671875,-42.12
11:46:57.687500,-32.20
11:46:57.703125,-21.67
11:46:57.718750,-10.99
11:46:57.734375,-0.49
11:46:57.750000,9.49
11:46:57.765625,18.58
11:46:57.781250,26.38
11:46:57.796875,32.58
11:46:57.812500,37.01
11:46:57.828125,39.76
11:46:57.843750,41.13
11:46:57.859375,41.54
11:46:57.875000,41.43
11:46:57.890625,41.10
11:46:57.906250,40.71
11:46:57.921875,40.23
11:46:57.937500,39.52
11:46:57.953125,38.42
11:46:57.968750,36.85
11:46:57.984375,34.80
11:46:58,32.39
11:46:58.015625,29.80
11:46:58.031250,27.26
11:46:58.046875,24.85
11:46:58.062500,22.59
11:46:58.078125,20.34
11:46:58.093750,17.91
11:46:58.109375,15.12
11:46:58.125000,11.88
11:46:58.140625,8.20
11:46:58.156250,4.20
11:46:58.171875,0.01
11:46:58.187500,-4.23
11:46:58.203125,-8.41
11:46:58.218750,-12.44
11:46:58.234375,-16.25
11:46:58.250000,-19.82
11:46:58.265625,-23.17
11:46:58.281250,-26.46
11:46:58.296875,-29.95
11:46:58.312500,-33.91
11:46:58.328125,-38.54
11:46:58.343750,-43.75
11:46:58.359375,-49.20
11:46:58.375000,-54.22
11:46:58.390625,-58.01
11:46:58.406250,-59.83
11:46:58.421875,-59.17
11:46:58.437500,-55.87
11:46:58.453125,-50.07
11:46:58.468750,-42.18
11:46:58.484375,-32.68
11:46:58.500000,-22.14
11:46:58.515625,-11.15
11:46:58.531250,-0.29
11:46:58.546875,9.87
11:46:58.562500,18.83
11:46:58.578125,26.28
11:46:58.593750,32.12
11:46:58.609375,36.47
11:46:58.625000,39.58
11:46:58.640625,41.68
11:46:58.656250,42.96
11:46:58.671875,43.52
11:46:58.687500,43.53
11:46:58.703125,43.16
11:46:58.718750,42.59
11:46:58.734375,41.92
11:46:58.750000,41.07
11:46:58.765625,39.85
11:46:58.781250,38.02
11:46:58.796875,35.52
11:46:58.812500,32.43
11:46:58.828125,28.99
11:46:58.843750,25.49
11:46:58.859375,22.11
11:46:58.875000,18.93
11:46:58.890625,15.87
11:46:58.906250,12.88
11:46:58.921875,9.90
11:46:58.937500,6.90
11:46:58.953125,3.87
11:46:58.968750,0.73
11:46:58.984375,-2.62
11:46:59,-6.26
11:46:59.015625,-10.24
11:46:59.031250,-14.55
11:46:59.046875,-19.10
11:46:59.062500,-23.82
11:46:59.078125,-28.67
11:46:59.093750,-33.69
11:46:59.109375,-38.93
11:46:59.125000,-44.41
11:46:59.140625,-49.97
11:46:59.156250,-55.17
11:46:59.171875,-59.31
11:46:59.187500,-61.58
11:46:59.203125,-61.27
11:46:59.218750,-58.09
11:46:59.234375,-52.22
11:46:59.250000,-44.27
11:46:59.265625,-35.05
11:46:59.281250,-25.25
11:46:59.296875,-15.35
11:46:59.312500,-5.62
11:46:59.328125,3.74
11:46:59.343750,12.43
11:46:59.359375,20.05
11:46:59.375000,26.22
11:46:59.390625,30.74
11:46:59.406250,33.72
11:46:59.421875,35.51
11:46:59.437500,36.58
11:46:59.453125,37.31
11:46:59.468750,37.89
11:46:59.484375,38.29
11:46:59.500000,38.41
11:46:59.515625,38.10
11:46:59.531250,37.29
11:46:59.546875,35.96
11:46:59.562500,34.16
11:46:59.578125,31.98
11:46:59.593750,29.48
11:46:59.609375,26.71
11:46:59.625000,23.72
11:46:59.640625,20.51
11:46:59.656250,17.11
11:46:59.671875,13.53
11:46:59.687500,9.82
11:46:59.703125,6.01
11:46:59.718750,2.13
11:46:59.734375,-1.89
11:46:59.750000,-6.09
11:46:59.765625,-10.51
11:46:59.781250,-15.14
11:46:59.796875,-19.90
11:46:59.812500,-24.73
11:46:59.828125,-29.65
11:46:59.843750,-34.77
11:46:59.859375,-40.29
11:46:59.875000,-46.30
11:46:59.890625,-52.71
11:46:59.906250,-59.14
11:46:59.921875,-64.92
11:46:59.937500,-69.31
11:46:59.953125,-71.56
11:46:59.968750,-71.11
11:46:59.984375,-67.77
11:47:00,-61.66
11:47:00.015625,-53.19
11:47:00.031250,-42.97
11:47:00.046875,-31.64
11:47:00.062500,-19.78
11:47:00.078125,-7.82
11:47:00.093750,3.91
11:47:00.109375,15.07
11:47:00.125000,25.26
11:47:00.140625,34.04
11:47:00.156250,41.04
11:47:00.171875,46.07
11:47:00.187500,49.27
11:47:00.203125,50.98
11:47:00.218750,51.64
11:47:00.234375,51.66
11:47:00.250000,51.28
11:47:00.265625,50.59
11:47:00.281250,49.59
11:47:00.296875,48.27
11:47:00.312500,46.65
11:47:00.328125,44.78
11:47:00.343750,42.71
11:47:00.359375,40.50
11:47:00.375000,38.10
11:47:00.390625,35.46
11:47:00.406250,32.51
11:47:00.421875,29.17
11:47:00.437500,25.43
11:47:00.453125,21.37
11:47:00.468750,17.10
11:47:00.484375,12.78
11:47:00.500000,8.52
11:47:00.515625,4.38
11:47:00.531250,0.29
11:47:00.546875,-3.84
11:47:00.562500,-8.08
11:47:00.578125,-12.49
11:47:00.593750,-17.11
11:47:00.609375,-21.92
11:47:00.625000,-26.85
11:47:00.640625,-31.79
11:47:00.656250,-36.73
11:47:00.671875,-41.62
11:47:00.687500,-46.40
11:47:00.703125,-50.90
11:47:00.718750,-54.81
11:47:00.734375,-57.65
11:47:00.750000,-58.90
11:47:00.765625,-57.91
11:47:00.781250,-54.25
11:47:00.796875,-47.82
11:47:00.812500,-38.73
11:47:00.828125,-27.32
11:47:00.843750,-14.09
11:47:00.859375,0.25
11:47:00.875000,14.76
11:47:00.890625,28.42
11:47:00.906250,40.73
11:47:00.921875,51.50
11:47:00.937500,60.82
11:47:00.953125,69.01
11:47:00.968750,76.37
11:47:00.984375,83.02
11:47:01,88.69
11:47:01.015625,92.88
11:47:01.031250,95.07
11:47:01.046875,95.65
11:47:01.062500,95.28
11:47:01.078125,94.70
11:47:01.093750,94.55
11:47:01.109375,95.26
11:47:01.125000,97.04
11:47:01.140625,99.64
11:47:01.156250,102.34
11:47:01.171875,103.48
11:47:01.187500,101.38
11:47:01.203125,93.88
11:47:01.218750,79.28
11:47:01.234375,57.78
11:47:01.250000,32.31
11:47:01.265625,8.27
11:47:01.281250,-8.19
11:47:01.296875,-11.90
11:47:01.312500,-7.24
11:47:01.328125,0.72
11:47:01.343750,6.36
11:47:01.359375,5.52
11:47:01.375000,-3.43
11:47:01.390625,-19.78
11:47:01.406250,-41.02
11:47:01.421875,-63.59
11:47:01.437500,-83.32
11:47:01.453125,-96.27
11:47:01.468750,-101.97
11:47:01.484375,-101.44
11:47:01.500000,-96.89
11:47:01.515625,-90.57
11:47:01.531250,-84.18
11:47:01.546875,-78.60
11:47:01.562500,-74.00
11:47:01.578125,-69.22
11:47:01.593750,-62.57
11:47:01.609375,-51.55
11:47:01.625000,-34.01
11:47:01.640625,-9.14
11:47:01.656250,21.78
11:47:01.671875,54.76
11:47:01.687500,83.94
11:47:01.703125,99.31
11:47:01.718750,94.46
11:47:01.734375,72.41
11:47:01.750000,44.89
11:47:01.765625,23.84
11:47:01.781250,14.52
11:47:01.796875,14.99
11:47:01.812500,19.83
11:47:01.828125,24.36
11:47:01.843750,27.05
11:47:01.859375,30.21
11:47:01.875000,36.58
11:47:01.890625,46.88
11:47:01.906250,58.94
11:47:01.921875,69.07
11:47:01.937500,74.24
11:47:01.953125,73.23
11:47:01.968750,66.90
11:47:01.984375,57.42
11:47:02,47.31
11:47:02.015625,38.67
11:47:02.031250,32.08
11:47:02.046875,26.56
11:47:02.062500,20.66
11:47:02.078125,13.68
11:47:02.093750,6.03
11:47:02.109375,-1.26
11:47:02.125000,-7.30
11:47:02.140625,-11.71
11:47:02.156250,-14.99
11:47:02.171875,-18.43
11:47:02.187500,-23.48
11:47:02.203125,-30.83
11:47:02.218750,-40.03
11:47:02.234375,-49.90
11:47:02.250000,-59.32
11:47:02.265625,-67.73
11:47:02.281250,-75.23
11:47:02.296875,-82.18
11:47:02.312500,-88.91
11:47:02.328125,-95.29
11:47:02.343750,-100.57
11:47:02.359375,-103.66
11:47:02.375000,-103.86
11:47:02.390625,-101.41
11:47:02.406250,-97.56
11:47:02.421875,-93.77
11:47:02.437500,-90.89
11:47:02.453125,-88.54
11:47:02.468750,-85.28
11:47:02.484375,-79.24
11:47:02.500000,-68.86
11:47:02.515625,-53.38
11:47:02.531250,-33.06
11:47:02.546875,-8.94
11:47:02.562500,17.10
11:47:02.578125,42.37
11:47:02.593750,63.43
11:47:02.609375,76.67
11:47:02.625000,79.46
11:47:02.640625,71.21
11:47:02.656250,54.01
11:47:02.671875,31.96
11:47:02.687500,9.80
11:47:02.703125,-8.76
11:47:02.718750,-21.85
11:47:02.734375,-29.47
11:47:02.750000,-32.66
11:47:02.765625,-32.66
11:47:02.781250,-30.56
11:47:02.796875,-27.31
11:47:02.812500,-23.92
11:47:02.828125,-21.32
11:47:02.843750,-20.02
11:47:02.859375,-19.76
11:47:02.875000,-19.46
11:47:02.890625,-17.71
11:47:02.906250,-13.49
11:47:02.921875,-6.81
11:47:02.937500,1.21
11:47:02.953125,8.67
11:47:02.968750,13.61
11:47:02.984375,14.48
11:47:03,10.40
11:47:03.015625,1.20
11:47:03.031250,-12.58
11:47:03.046875,-29.54
11:47:03.062500,-47.43
11:47:03.078125,-63.33
11:47:03.093750,-74.56
11:47:03.109375,-79.51
11:47:03.125000,-78.40
11:47:03.140625,-73.05
11:47:03.156250,-66.01
11:47:03.171875,-59.30
11:47:03.187500,-53.59
11:47:03.203125,-48.42
11:47:03.218750,-43.15
11:47:03.234375,-38.08
11:47:03.250000,-34.88
11:47:03.265625,-36.02
11:47:03.281250,-43.41
11:47:03.296875,-57.16
11:47:03.312500,-75.18
11:47:03.328125,-93.72
11:47:03.343750,-108.65
11:47:03.359375,-116.85
11:47:03.375000,-117.10
11:47:03.390625,-110.07
11:47:03.406250,-97.78
11:47:03.421875,-82.68
11:47:03.437500,-66.81
11:47:03.453125,-51.61
11:47:03.468750,-38.00
11:47:03.484375,-26.92
11:47:03.500000,-19.81
11:47:03.515625,-18.64
11:47:03.531250,-25.26
11:47:03.546875,-40.31
11:47:03.562500,-62.23
11:47:03.578125,-86.99
11:47:03.593750,-108.82
11:47:03.609375,-121.62
11:47:03.625000,-120.62
11:47:03.640625,-103.64
11:47:03.656250,-71.46
11:47:03.671875,-27.72
11:47:03.687500,21.91
11:47:03.703125,70.70
11:47:03.718750,112.10
11:47:03.734375,141.02
11:47:03.750000,154.78
11:47:03.765625,153.71
11:47:03.781250,140.80
11:47:03.796875,120.82
11:47:03.812500,98.96
11:47:03.828125,79.74
11:47:03.843750,66.35
11:47:03.859375,60.44
11:47:03.875000,62.14
11:47:03.890625,70.00
11:47:03.906250,81.12
11:47:03.921875,91.53
11:47:03.937500,97.48
11:47:03.953125,96.93
11:47:03.968750,90.91
11:47:03.984375,83.58
11:47:04,80.72
11:47:04.015625,87.00
11:47:04.031250,103.47
11:47:04.046875,126.58
11:47:04.062500,149.52
11:47:04.078125,165.24
11:47:04.093750,169.71
11:47:04.109375,163.58
11:47:04.125000,151.51
11:47:04.140625,139.55
11:47:04.156250,132.13
11:47:04.171875,130.34
11:47:04.187500,132.09
11:47:04.203125,133.88
11:47:04.218750,132.91
11:47:04.234375,128.34
11:47:04.250000,121.15
11:47:04.265625,113.08
11:47:04.281250,105.35
11:47:04.296875,98.01
11:47:04.312500,90.08
11:47:04.328125,80.24
11:47:04.343750,67.62
11:47:04.359375,52.18
11:47:04.375000,34.72
11:47:04.390625,16.32
11:47:04.406250,-2.15
11:47:04.421875,-20.53
11:47:04.437500,-39.18
11:47:04.453125,-58.58
11:47:04.468750,-78.59
11:47:04.484375,-98.03
11:47:04.500000,-115.00
11:47:04.515625,-127.97
11:47:04.531250,-137.02
11:47:04.546875,-144.27
11:47:04.562500,-153.20
11:47:04.578125,-166.72
11:47:04.593750,-185.34
11:47:04.609375,-206.40
11:47:04.625000,-225.14
11:47:04.640625,-236.98
11:47:04.656250,-239.71
11:47:04.671875,-234.24
11:47:04.687500,-223.48
11:47:04.703125,-210.25
11:47:04.718750,-195.55
11:47:04.734375,-178.28
11:47:04.750000,-156.33
11:47:04.765625,-128.37
11:47:04.781250,-94.88
11:47:04.796875,-58.07
11:47:04.812500,-20.85
11:47:04.828125,14.32
11:47:04.843750,46.03
11:47:04.859375,73.60
11:47:04.875000,96.33
11:47:04.890625,112.88
11:47:04.906250,121.28
11:47:04.921875,119.66
11:47:04.937500,107.44
11:47:04.953125,86.31
11:47:04.968750,60.46
11:47:04.984375,35.69
11:47:05,17.78
11:47:05.015625,10.50
11:47:05.031250,14.45
11:47:05.046875,27.03
11:47:05.062500,43.75
11:47:05.078125,60.00
11:47:05.093750,72.58
11:47:05.109375,80.21
11:47:05.125000,83.04
11:47:05.140625,81.57
11:47:05.156250,75.86
11:47:05.171875,65.44
11:47:05.187500,49.85
11:47:05.203125,29.48
11:47:05.218750,5.85
11:47:05.234375,-18.67
11:47:05.250000,-41.69
11:47:05.265625,-61.63
11:47:05.281250,-78.04
11:47:05.296875,-91.30
11:47:05.312500,-101.86
11:47:05.328125,-109.72
11:47:05.343750,-114.24
11:47:05.359375,-114.63
11:47:05.375000,-110.58
11:47:05.390625,-102.66
11:47:05.406250,-92.25
11:47:05.421875,-80.99
11:47:05.437500,-70.15
11:47:05.453125,-60.14
11:47:05.468750,-50.61
11:47:05.484375,-40.74
11:47:05.500000,-29.84
11:47:05.515625,-17.63
11:47:05.531250,-4.48
11:47:05.546875,8.74
11:47:05.562500,20.95
11:47:05.578125,31.17
11:47:05.593750,38.80
11:47:05.609375,43.83
11:47:05.625000,46.73
11:47:05.640625,48.18
11:47:05.656250,48.79
11:47:05.671875,48.90
11:47:05.687500,48.60
11:47:05.703125,47.92
11:47:05.718750,47.01
11:47:05.734375,46.15
11:47:05.750000,45.62
11:47:05.765625,45.44
11:47:05.781250,45.24
11:47:05.796875,44.35
11:47:05.812500,42.14
11:47:05.828125,38.28
11:47:05.843750,33.04
11:47:05.859375,27.14
11:47:05.875000,21.45
11:47:05.890625,16.67
11:47:05.906250,12.98
11:47:05.921875,10.00
11:47:05.937500,7.00
11:47:05.953125,3.26
11:47:05.968750,-1.72
11:47:05.984375,-7.97
11:47:06,-15.18
11:47:06.015625,-22.78
11:47:06.031250,-30.17
11:47:06.046875,-36.81
11:47:06.062500,-42.12
11:47:06.078125,-45.50
11:47:06.093750,-46.36
11:47:06.109375,-44.30
11:47:06.125000,-39.26
11:47:06.140625,-31.61
11:47:06.156250,-22.04
11:47:06.171875,-11.31
11:47:06.187500,-0.07
11:47:06.203125,11.29
11:47:06.218750,22.45
11:47:06.234375,33.09
11:47:06.250000,42.72
11:47:06.265625,50.81
11:47:06.281250,56.95
11:47:06.296875,61.02
11:47:06.312500,63.20
11:47:06.328125,63.91
11:47:06.343750,63.62
11:47:06.359375,62.71
11:47:06.375000,61.42
11:47:06.390625,59.90
11:47:06.406250,58.24
11:47:06.421875,56.42
11:47:06.437500,54.36
11:47:06.453125,51.91
11:47:06.468750,48.96
11:47:06.484375,45.46
11:47:06.500000,41.41
11:47:06.515625,36.91
11:47:06.531250,31.99
11:47:06.546875,26.67
11:47:06.562500,20.97
11:47:06.578125,15.01
11:47:06.593750,9.04
11:47:06.609375,3.37
11:47:06.625000,-1.78
11:47:06.640625,-6.35
11:47:06.656250,-10.49
11:47:06.671875,-14.45
11:47:06.687500,-18.47
11:47:06.703125,-22.70
11:47:06.718750,-27.17
11:47:06.734375,-31.93
11:47:06.750000,-37.04
11:47:06.765625,-42.49
11:47:06.781250,-48.05
11:47:06.796875,-53.18
11:47:06.812500,-56.99
11:47:06.828125,-58.43
11:47:06.843750,-56.59
11:47:06.859375,-50.92
11:47:06.875000,-41.40
11:47:06.890625,-28.53
11:47:06.906250,-13.23
11:47:06.921875,3.31
11:47:06.937500,19.82
11:47:06.953125,35.14
11:47:06.968750,48.31
11:47:06.984375,58.76
11:47:07,66.26
11:47:07.015625,70.98
11:47:07.031250,73.32
11:47:07.046875,73.80
11:47:07.062500,72.93
11:47:07.078125,71.17
11:47:07.093750,68.83
11:47:07.109375,66.13
11:47:07.125000,63.15
11:47:07.140625,59.87
11:47:07.156250,56.27
11:47:07.171875,52.29
11:47:07.187500,47.98
11:47:07.203125,43.44
11:47:07.218750,38.77
11:47:07.234375,33.96
11:47:07.250000,28.84
11:47:07.265625,23.15
11:47:07.281250,16.63
11:47:07.296875,9.21
11:47:07.312500,1.01
11:47:07.328125,-7.63
11:47:07.343750,-16.25
11:47:07.359375,-24.48
11:47:07.375000,-32.09
11:47:07.390625,-39.09
11:47:07.406250,-45.69
11:47:07.421875,-52.14
11:47:07.437500,-58.67
11:47:07.453125,-65.38
11:47:07.468750,-72.20
11:47:07.484375,-78.97
11:47:07.500000,-85.48
11:47:07.515625,-91.45
11:47:07.531250,-96.56
11:47:07.546875,-100.38
11:47:07.562500,-102.31
11:47:07.578125,-101.63
11:47:07.593750,-97.65
11:47:07.609375,-89.92
11:47:07.625000,-78.38
11:47:07.640625,-63.52
11:47:07.656250,-46.21
11:47:07.671875,-27.59
11:47:07.687500,-8.76
11:47:07.703125,9.26
11:47:07.718750,25.66
11:47:07.734375,39.76
11:47:07.750000,51.11
11:47:07.765625,59.46
11:47:07.781250,64.84
11:47:07.796875,67.59
11:47:07.812500,68.25
11:47:07.828125,67.46
11:47:07.843750,65.83
11:47:07.859375,63.83
11:47:07.875000,61.70
11:47:07.890625,59.54
11:47:07.906250,57.33
11:47:07.921875,55.02
11:47:07.937500,52.52
11:47:07.953125,49.77
11:47:07.968750,46.71
11:47:07.984375,43.30
11:47:08,39.48
11:47:08.015625,35.16
11:47:08.031250,30.27
11:47:08.046875,24.78
11:47:08.062500,18.75
11:47:08.078125,12.33
11:47:08.093750,5.76
11:47:08.109375,-0.75
11:47:08.125000,-7.05
11:47:08.140625,-13.18
11:47:08.156250,-19.24
11:47:08.171875,-25.40
11:47:08.187500,-31.80
11:47:08.203125,-38.53
11:47:08.218750,-45.62
11:47:08.234375,-53.09
11:47:08.250000,-60.96
11:47:08.265625,-69.12
11:47:08.281250,-77.20
11:47:08.296875,-84.48
11:47:08.312500,-89.95
11:47:08.328125,-92.57
11:47:08.343750,-91.57
11:47:08.359375,-86.78
11:47:08.375000,-78.66
11:47:08.390625,-68.09
11:47:08.406250,-55.96
11:47:08.421875,-42.90
11:47:08.437500,-29.06
11:47:08.453125,-14.37
11:47:08.468750,1.17
11:47:08.484375,17.12
11:47:08.500000,32.61
11:47:08.515625,46.44
11:47:08.531250,57.55
11:47:08.546875,65.33
11:47:08.562500,69.80
11:47:08.578125,71.52
11:47:08.593750,71.36
11:47:08.609375,70.14
11:47:08.625000,68.50
11:47:08.640625,66.73
11:47:08.656250,64.91
11:47:08.671875,63.01
11:47:08.687500,60.99
11:47:08.703125,58.97
11:47:08.718750,57.03
11:47:08.734375,55.10
11:47:08.750000,52.90
11:47:08.765625,50.08
11:47:08.781250,46.29
11:47:08.796875,41.28
11:47:08.812500,34.95
11:47:08.828125,27.52
11:47:08.843750,19.54
11:47:08.859375,11.63
11:47:08.875000,4.19
11:47:08.890625,-2.66
11:47:08.906250,-9.14
11:47:08.921875,-15.64
11:47:08.937500,-22.68
11:47:08.953125,-30.65
11:47:08.968750,-39.65
11:47:08.984375,-49.18
11:47:09,-58.61
11:47:09.015625,-67.48
11:47:09.031250,-75.49
11:47:09.046875,-82.26
11:47:09.062500,-87.32
11:47:09.078125,-90.20
11:47:09.093750,-90.50
11:47:09.109375,-87.90
11:47:09.125000,-81.47
11:47:09.140625,-70.88
11:47:09.156250,-56.74
11:47:09.171875,-40.39
11:47:09.187500,-23.08
11:47:09.203125,-5.92
11:47:09.218750,10.10
11:47:09.234375,23.95
11:47:09.250000,34.97
11:47:09.265625,44.37
11:47:09.281250,52.90
11:47:09.296875,59.94
11:47:09.312500,64.17
11:47:09.328125,65.07
11:47:09.343750,63.26
11:47:09.359375,59.90
11:47:09.375000,55.47
11:47:09.390625,49.42
11:47:09.406250,42.41
11:47:09.421875,33.41
11:47:09.437500,20.31
11:47:09.453125,2.65
11:47:09.468750,-15.81
11:47:09.484375,-28.08
11:47:09.500000,-27.47
11:47:09.515625,-10.92
11:47:09.531250,20.34
11:47:09.546875,64.80
11:47:09.562500,117.83
11:47:09.578125,172.08
11:47:09.593750,219.85
11:47:09.609375,255.74
11:47:09.625000,276.91
11:47:09.640625,282.07
11:47:09.656250,271.11
11:47:09.671875,225.87
11:47:09.687500,145.64
11:47:09.703125,50.07
11:47:09.718750,-34.78
11:47:09.734375,-95.55
11:47:09.750000,-133.83
11:47:09.765625,-157.73
11:47:09.781250,-174.85
11:47:09.796875,-191.09
11:47:09.812500,-206.93
11:47:09.828125,-216.77
11:47:09.843750,-216.27
11:47:09.859375,-205.31
11:47:09.875000,-187.23
11:47:09.890625,-165.74
11:47:09.906250,-143.44
11:47:09.921875,-119.78
11:47:09.937500,-96.11
11:47:09.953125,-73.52
11:47:09.968750,-50.22
11:47:09.984375,-25.52
11:47:10,-1.13
11:47:10.015625,19.87
11:47:10.031250,35.49
11:47:10.046875,45.56
11:47:10.062500,51.11
11:47:10.078125,53.22
11:47:10.093750,53.36
11:47:10.109375,54.23
11:47:10.125000,57.12
11:47:10.140625,61.14
11:47:10.156250,64.26
11:47:10.171875,65.05
11:47:10.187500,63.34
11:47:10.203125,59.86
11:47:10.218750,55.38
11:47:10.234375,50.93
11:47:10.250000,47.92
11:47:10.265625,46.82
11:47:10.281250,46.85
11:47:10.296875,46.62
11:47:10.312500,45.09
11:47:10.328125,42.04
11:47:10.343750,37.86
11:47:10.359375,32.90
11:47:10.375000,27.69
11:47:10.390625,22.74
11:47:10.406250,18.14
11:47:10.421875,13.48
11:47:10.437500,8.27
11:47:10.453125,2.25
11:47:10.468750,-4.40
11:47:10.484375,-11.32
11:47:10.500000,-18.32
11:47:10.515625,-25.37
11:47:10.531250,-32.65
11:47:10.546875,-40.34
11:47:10.562500,-48.42
11:47:10.578125,-56.40
11:47:10.593750,-63.42
11:47:10.609375,-68.39
11:47:10.625000,-70.40
11:47:10.640625,-69.03
11:47:10.656250,-64.41
11:47:10.671875,-57.16
11:47:10.687500,-48.29
11:47:10.703125,-38.85
11:47:10.718750,-29.74
11:47:10.734375,-21.56
11:47:10.750000,-14.59
11:47:10.765625,-8.81
11:47:10.781250,-4.05
11:47:10.796875,-0.09
11:47:10.812500,3.19
11:47:10.828125,5.87
11:47:10.843750,8.02
11:47:10.859375,9.80
11:47:10.875000,11.52
11:47:10.890625,13.58
11:47:10.906250,16.29
11:47:10.921875,19.76
11:47:10.937500,23.94
11:47:10.953125,28.61
11:47:10.968750,33.55
11:47:10.984375,38.53
11:47:11,43.23
11:47:11.015625,47.22
11:47:11.031250,49.90
11:47:11.046875,50.77
11:47:11.062500,49.65
11:47:11.078125,46.95
11:47:11.093750,43.59
11:47:11.109375,40.65
11:47:11.125000,38.88
11:47:11.140625,38.22
11:47:11.156250,37.79
11:47:11.171875,36.19
11:47:11.187500,32.11
11:47:11.203125,24.95
11:47:11.218750,15.02
11:47:11.234375,3.37
11:47:11.250000,-8.85
11:47:11.265625,-20.85
11:47:11.281250,-32.55
11:47:11.296875,-44.39
11:47:11.312500,-56.85
11:47:11.328125,-69.90
11:47:11.343750,-82.77
11:47:11.359375,-94.16
11:47:11.375000,-102.67
11:47:11.390625,-107.45
11:47:11.406250,-108.38
11:47:11.421875,-106.01
11:47:11.437500,-101.10
11:47:11.453125,-94.21
11:47:11.468750,-85.52
11:47:11.484375,-74.89
11:47:11.500000,-62.22
11:47:11.515625,-47.82
11:47:11.531250,-32.55
11:47:11.546875,-17.76
11:47:11.562500,-4.90
11:47:11.578125,4.89
11:47:11.593750,11.18
11:47:11.609375,14.31
11:47:11.625000,15.20
11:47:11.640625,15.00
11:47:11.656250,14.57
11:47:11.671875,14.29
11:47:11.687500,14.00
11:47:11.703125,13.26
11:47:11.718750,11.71
11:47:11.734375,9.33
11:47:11.750000,6.47
11:47:11.765625,3.61
11:47:11.781250,1.11
11:47:11.796875,-1.06
11:47:11.812500,-3.31
11:47:11.828125,-6.33
11:47:11.843750,-10.84
11:47:11.859375,-17.35
11:47:11.875000,-26.02
11:47:11.890625,-36.75
11:47:11.906250,-49.20
11:47:11.921875,-62.97
11:47:11.937500,-77.54
11:47:11.953125,-92.22
11:47:11.968750,-106.10
11:47:11.984375,-118.03
11:47:12,-126.94
11:47:12.015625,-132.21
11:47:12.031250,-134.06
11:47:12.046875,-133.53
11:47:12.062500,-132.13
11:47:12.078125,-131.23
11:47:12.093750,-131.43
11:47:12.109375,-132.51
11:47:12.125000,-133.71
11:47:12.140625,-134.31
11:47:12.156250,-133.96
11:47:12.171875,-132.73
11:47:12.187500,-130.60
11:47:12.203125,-127.14
11:47:12.218750,-121.43
11:47:12.234375,-112.40
11:47:12.250000,-99.49
11:47:12.265625,-83.04
11:47:12.281250,-64.34
11:47:12.296875,-45.08
11:47:12.312500,-26.64
11:47:12.328125,-9.43
11:47:12.343750,7.31
11:47:12.359375,25.21
11:47:12.375000,46.02
11:47:12.390625,70.65
11:47:12.406250,98.69
11:47:12.421875,128.32
11:47:12.437500,156.89
11:47:12.453125,181.95
11:47:12.468750,201.92
11:47:12.484375,216.45
11:47:12.500000,226.04
11:47:12.515625,231.48
11:47:12.531250,233.20
11:47:12.546875,231.26
11:47:12.562500,225.56
11:47:12.578125,216.25
11:47:12.593750,203.96
11:47:12.609375,189.57
11:47:12.625000,173.78
11:47:12.640625,156.69
11:47:12.656250,137.92
11:47:12.671875,117.00
11:47:12.687500,94.09
11:47:12.703125,70.36
11:47:12.718750,47.89
11:47:12.734375,29.07
11:47:12.750000,15.72
11:47:12.765625,8.32
11:47:12.781250,5.79
11:47:12.796875,5.92
11:47:12.812500,6.17
11:47:12.828125,4.62
11:47:12.843750,0.38
11:47:12.859375,-6.40
11:47:12.875000,-14.92
11:47:12.890625,-24.23
11:47:12.906250,-33.47
11:47:12.921875,-41.78
11:47:12.937500,-48.19
11:47:12.953125,-51.59
11:47:12.968750,-51.02
11:47:12.984375,-46.05
11:47:13,-37.02
11:47:13.015625,-25.03
11:47:13.031250,-11.51
11:47:13.046875,2.27
11:47:13.062500,15.50
11:47:13.078125,27.82
11:47:13.093750,39.06
11:47:13.109375,48.99
11:47:13.125000,57.17
11:47:13.140625,63.26
11:47:13.156250,67.21
11:47:13.171875,69.40
11:47:13.187500,70.48
11:47:13.203125,70.97
11:47:13.218750,71.01
11:47:13.234375,70.23
11:47:13.250000,68.01
11:47:13.265625,63.84
11:47:13.281250,57.67
11:47:13.296875,49.98
11:47:13.312500,41.51
11:47:13.328125,33.01
11:47:13.343750,24.94
11:47:13.359375,17.33
11:47:13.375000,10.02
11:47:13.390625,2.77
11:47:13.406250,-4.49
11:47:13.421875,-11.66
11:47:13.437500,-18.57
11:47:13.453125,-25.07
11:47:13.468750,-31.10
11:47:13.484375,-36.76
11:47:13.500000,-42.19
11:47:13.515625,-47.50
11:47:13.531250,-52.79
11:47:13.546875,-58.12
11:47:13.562500,-63.54
11:47:13.578125,-69.15
11:47:13.593750,-75.02
11:47:13.609375,-81.18
11:47:13.625000,-87.54
11:47:13.640625,-93.89
11:47:13.656250,-99.82
11:47:13.671875,-104.74
11:47:13.687500,-107.90
11:47:13.703125,-108.50
11:47:13.718750,-105.84
11:47:13.734375,-99.54
11:47:13.750000,-89.67
11:47:13.765625,-76.81
11:47:13.781250,-61.96
11:47:13.796875,-46.29
11:47:13.812500,-30.86
11:47:13.828125,-16.39
11:47:13.843750,-3.25
11:47:13.859375,8.42
11:47:13.875000,18.57
11:47:13.890625,27.07
11:47:13.906250,33.78
11:47:13.921875,38.60
11:47:13.937500,41.67
11:47:13.953125,43.45
11:47:13.968750,44.53
11:47:13.984375,45.44
11:47:14,46.52
11:47:14.015625,47.70
11:47:14.031250,48.70
11:47:14.046875,49.15
11:47:14.062500,48.80
11:47:14.078125,47.66
11:47:14.093750,45.93
11:47:14.109375,43.90
11:47:14.125000,41.82
11:47:14.140625,39.79
11:47:14.156250,37.77
11:47:14.171875,35.65
11:47:14.187500,33.35
11:47:14.203125,30.91
11:47:14.218750,28.44
11:47:14.234375,26.06
11:47:14.250000,23.85
11:47:14.265625,21.76
11:47:14.281250,19.63
11:47:14.296875,17.20
11:47:14.312500,14.19
11:47:14.328125,10.38
11:47:14.343750,5.63
11:47:14.359375,-0.14
11:47:14.375000,-6.88
11:47:14.390625,-14.39
11:47:14.406250,-22.22
11:47:14.421875,-29.60
11:47:14.437500,-35.54
11:47:14.453125,-38.97
11:47:14.468750,-39.09
11:47:14.484375,-35.65
11:47:14.500000,-28.99
11:47:14.515625,-20.03
11:47:14.531250,-9.80
11:47:14.546875,0.74
11:47:14.562500,10.96
11:47:14.578125,20.55
11:47:14.593750,29.31
11:47:14.609375,37.02
11:47:14.625000,43.33
11:47:14.640625,47.95
11:47:14.656250,50.77
11:47:14.671875,51.97
11:47:14.687500,52.02
11:47:14.703125,51.45
11:47:14.718750,50.63
11:47:14.734375,49.66
11:47:14.750000,48.42
11:47:14.765625,46.81
11:47:14.781250,44.90
11:47:14.796875,43.05
11:47:14.812500,41.78
11:47:14.828125,41.53
11:47:14.843750,42.39
11:47:14.859375,44.00
11:47:14.875000,45.56
11:47:14.890625,46.12
11:47:14.906250,44.84
11:47:14.921875,41.20
11:47:14.937500,35.16
11:47:14.953125,27.08
11:47:14.968750,17.58
11:47:14.984375,7.39
11:47:15,-2.81
11:47:15.015625,-12.44
11:47:15.031250,-21.11
11:47:15.046875,-28.61
11:47:15.062500,-35.00
11:47:15.078125,-40.54
11:47:15.093750,-45.70
11:47:15.109375,-51.01
11:47:15.125000,-56.90
11:47:15.140625,-63.55
11:47:15.156250,-70.89
11:47:15.171875,-78.67
11:47:15.187500,-86.54
11:47:15.203125,-94.05
11:47:15.218750,-100.63
11:47:15.234375,-105.52
11:47:15.250000,-107.86
11:47:15.265625,-106.83
11:47:15.281250,-102.04
11:47:15.296875,-93.67
11:47:15.312500,-82.51
11:47:15.328125,-69.64
11:47:15.343750,-56.11
11:47:15.359375,-42.66
11:47:15.375000,-29.63
11:47:15.390625,-17.22
11:47:15.406250,-5.72
11:47:15.421875,4.41
11:47:15.437500,12.63
11:47:15.453125,18.58
11:47:15.468750,22.34
11:47:15.484375,24.39
11:47:15.500000,25.49
11:47:15.515625,26.30
11:47:15.531250,27.14
11:47:15.546875,27.96
11:47:15.562500,28.43
11:47:15.578125,28.17
11:47:15.593750,27.00
11:47:15.609375,25.01
11:47:15.625000,22.45
11:47:15.640625,19.67
11:47:15.656250,16.85
11:47:15.671875,14.00
11:47:15.687500,10.99
11:47:15.703125,7.65
11:47:15.718750,3.91
11:47:15.734375,-0.22
11:47:15.750000,-4.59
11:47:15.765625,-9.15
11:47:15.781250,-13.94
11:47:15.796875,-19.06
11:47:15.812500,-24.50
11:47:15.828125,-30.06
11:47:15.843750,-35.30
11:47:15.859375,-39.69
11:47:15.875000,-42.88
11:47:15.890625,-44.86
11:47:15.906250,-46.05
11:47:15.921875,-47.15
11:47:15.937500,-48.76
11:47:15.953125,-51.10
11:47:15.968750,-53.92
11:47:15.984375,-56.68
11:47:16,-58.71
11:47:16.015625,-59.46
11:47:16.031250,-58.62
11:47:16.046875,-56.14
11:47:16.062500,-52.18
11:47:16.078125,-46.86
11:47:16.093750,-40.16
11:47:16.109375,-32.00
11:47:16.125000,-22.38
11:47:16.140625,-11.49
11:47:16.156250,0.16
11:47:16.171875,11.75
11:47:16.187500,22.37
11:47:16.203125,31.06
11:47:16.218750,37.36
11:47:16.234375,41.43
11:47:16.250000,43.95
11:47:16.265625,45.75
11:47:16.281250,47.57
11:47:16.296875,49.84
11:47:16.312500,52.66
11:47:16.328125,55.77
11:47:16.343750,58.36
11:47:16.359375,59.79
11:47:16.375000,59.88
11:47:16.390625,58.54
11:47:16.406250,55.61
11:47:16.421875,50.85
11:47:16.437500,44.10
11:47:16.453125,35.54
11:47:16.468750,25.66
11:47:16.484375,14.54
11:47:16.500000,3.02
11:47:16.515625,-7.38
11:47:16.531250,-15.30
11:47:16.546875,-20.43
11:47:16.562500,-23.56
11:47:16.578125,-25.97
11:47:16.593750,-28.74
11:47:16.609375,-32.41
11:47:16.625000,-38.00
11:47:16.640625,-44.99
11:47:16.656250,-51.55
11:47:16.671875,-56.00
11:47:16.687500,-58.08
11:47:16.703125,-59.02
11:47:16.718750,-60.58
11:47:16.734375,-64.05
11:47:16.750000,-69.92
11:47:16.765625,-79.24
11:47:16.781250,-90.95
11:47:16.796875,-102.01
11:47:16.812500,-108.87
11:47:16.828125,-109.07
11:47:16.843750,-101.57
11:47:16.859375,-86.33
11:47:16.875000,-64.04
11:47:16.890625,-27.32
11:47:16.906250,20.37
11:47:16.921875,66.84
11:47:16.937500,100.48
11:47:16.953125,118.05
11:47:16.968750,124.01
11:47:16.984375,124.60
11:47:17,123.41
11:47:17.015625,121.94
11:47:17.031250,120.35
11:47:17.046875,116.23
11:47:17.062500,108.87
11:47:17.078125,99.57
11:47:17.093750,90.42
11:47:17.109375,82.68
11:47:17.125000,76.37
11:47:17.140625,70.87
11:47:17.156250,65.60
11:47:17.171875,60.16
11:47:17.187500,53.35
11:47:17.203125,45.25
11:47:17.218750,37.28
11:47:17.234375,31.01
11:47:17.250000,26.94
11:47:17.265625,24.29
11:47:17.281250,21.83
11:47:17.296875,18.67
11:47:17.312500,14.51
11:47:17.328125,9.11
11:47:17.343750,3.50
11:47:17.359375,-0.37
11:47:17.375000,-0.63
11:47:17.390625,3.35
11:47:17.406250,10.76
11:47:17.421875,19.84
11:47:17.437500,28.51
11:47:17.453125,34.78
11:47:17.468750,36.66
11:47:17.484375,33.11
11:47:17.500000,24.12
11:47:17.515625,10.61
11:47:17.531250,-5.92
11:47:17.546875,-23.57
11:47:17.562500,-40.22
11:47:17.578125,-53.82
11:47:17.593750,-62.94
11:47:17.609375,-67.21
11:47:17.625000,-67.10
11:47:17.640625,-63.69
11:47:17.656250,-58.21
11:47:17.671875,-51.90
11:47:17.687500,-45.60
11:47:17.703125,-39.65
11:47:17.718750,-33.96
11:47:17.734375,-28.18
11:47:17.750000,-22.00
11:47:17.765625,-15.25
11:47:17.781250,-8.09
11:47:17.796875,-0.89
11:47:17.812500,5.77
11:47:17.828125,11.28
11:47:17.843750,15.16
11:47:17.859375,17.09
11:47:17.875000,17.06
11:47:17.890625,15.32
11:47:17.906250,12.39
11:47:17.921875,8.96
11:47:17.937500,5.69
11:47:17.953125,3.06
11:47:17.968750,1.12
11:47:17.984375,-0.53
11:47:18,-2.67
11:47:18.015625,-6.16
11:47:18.031250,-11.64
11:47:18.046875,-19.16
11:47:18.062500,-28.23
11:47:18.078125,-37.93
11:47:18.093750,-47.27
11:47:18.109375,-55.55
11:47:18.125000,-62.53
11:47:18.140625,-68.44
11:47:18.156250,-73.74
11:47:18.171875,-78.94
11:47:18.187500,-84.33
11:47:18.203125,-89.93
11:47:18.218750,-95.50
11:47:18.234375,-100.47
11:47:18.250000,-104.11
11:47:18.265625,-105.56
11:47:18.281250,-104.02
11:47:18.296875,-98.94
11:47:18.312500,-90.22
11:47:18.328125,-78.26
11:47:18.343750,-63.78
11:47:18.359375,-47.67
11:47:18.375000,-30.73
11:47:18.390625,-13.59
11:47:18.406250,3.26
11:47:18.421875,19.30
11:47:18.437500,33.98
11:47:18.453125,46.72
11:47:18.468750,56.97
11:47:18.484375,64.48
11:47:18.500000,69.26
11:47:18.515625,71.66
11:47:18.531250,72.18
11:47:18.546875,71.39
11:47:18.562500,69.75
11:47:18.578125,67.56
11:47:18.593750,64.88
11:47:18.609375,61.63
11:47:18.625000,57.59
11:47:18.640625,52.59
11:47:18.656250,46.66
11:47:18.671875,40.02
11:47:18.687500,33.07
11:47:18.703125,26.20
11:47:18.718750,19.64
11:47:18.734375,13.38
11:47:18.750000,7.25
11:47:18.765625,1.05
11:47:18.781250,-5.38
11:47:18.796875,-11.98
11:47:18.812500,-18.60
11:47:18.828125,-25.06
11:47:18.843750,-31.21
11:47:18.859375,-36.99
11:47:18.875000,-42.35
11:47:18.890625,-47.26
11:47:18.906250,-51.68
11:47:18.921875,-55.72
11:47:18.937500,-59.67
11:47:18.953125,-63.96
11:47:18.968750,-68.97
11:47:18.984375,-74.75
11:47:19,-80.79
11:47:19.015625,-85.97
11:47:19.031250,-88.93
11:47:19.046875,-88.43
11:47:19.062500,-83.76
11:47:19.078125,-74.90
11:47:19.093750,-62.35
11:47:19.109375,-46.92
11:47:19.125000,-29.39
11:47:19.140625,-10.52
11:47:19.156250,8.88
11:47:19.171875,27.81
11:47:19.187500,45.11
11:47:19.203125,59.62
11:47:19.218750,70.53
11:47:19.234375,77.61
11:47:19.250000,81.31
11:47:19.265625,82.56
11:47:19.281250,82.45
11:47:19.296875,81.87
11:47:19.312500,81.26
11:47:19.328125,80.57
11:47:19.343750,79.46
11:47:19.359375,77.44
11:47:19.375000,74.23
11:47:19.390625,69.86
11:47:19.406250,64.68
11:47:19.421875,59.15
11:47:19.437500,53.66
11:47:19.453125,48.40
11:47:19.468750,43.30
11:47:19.484375,38.16
11:47:19.500000,32.81
11:47:19.515625,27.22
11:47:19.531250,21.53
11:47:19.546875,15.90
11:47:19.562500,10.41
11:47:19.578125,4.96
11:47:19.593750,-0.64
11:47:19.609375,-6.66
11:47:19.625000,-13.22
11:47:19.640625,-20.31
11:47:19.656250,-27.82
11:47:19.671875,-35.64
11:47:19.687500,-43.74
11:47:19.703125,-52.10
11:47:19.718750,-60.60
11:47:19.734375,-68.76
11:47:19.750000,-75.73
11:47:19.765625,-80.44
11:47:19.781250,-81.84
11:47:19.796875,-79.30
11:47:19.812500,-72.78
11:47:19.828125,-62.77
11:47:19.843750,-50.05
11:47:19.859375,-35.40
11:47:19.875000,-19.47
11:47:19.890625,-2.74
11:47:19.906250,14.25
11:47:19.921875,30.77
11:47:19.937500,45.89
11:47:19.953125,58.70
11:47:19.968750,68.54
11:47:19.984375,75.27
11:47:20,79.27
11:47:20.015625,81.29
11:47:20.031250,82.09
11:47:20.046875,82.17
11:47:20.062500,81.74
11:47:20.078125,80.71
11:47:20.093750,79.00
11:47:20.109375,76.64
11:47:20.125000,73.87
11:47:20.140625,71.07
11:47:20.156250,68.47
11:47:20.171875,66.10
11:47:20.187500,63.68
11:47:20.203125,60.81
11:47:20.218750,57.09
11:47:20.234375,52.38
11:47:20.250000,46.82
11:47:20.265625,40.75
11:47:20.281250,34.57
11:47:20.296875,28.58
11:47:20.312500,22.85
11:47:20.328125,17.17
11:47:20.343750,11.17
11:47:20.359375,4.38
11:47:20.375000,-3.59
11:47:20.390625,-13.01
11:47:20.406250,-23.97
11:47:20.421875,-36.37
11:47:20.437500,-49.88
11:47:20.453125,-63.98
11:47:20.468750,-77.95
11:47:20.484375,-90.88
11:47:20.500000,-101.84
11:47:20.515625,-109.92
11:47:20.531250,-114.39
11:47:20.546875,-114.68
11:47:20.562500,-110.34
11:47:20.578125,-101.09
11:47:20.593750,-86.83
11:47:20.609375,-67.84
11:47:20.625000,-44.90
11:47:20.640625,-19.45
11:47:20.656250,6.51
11:47:20.671875,30.76
11:47:20.687500,51.30
11:47:20.703125,66.80
11:47:20.718750,76.80
11:47:20.734375,81.73
11:47:20.750000,82.69
11:47:20.765625,81.10
11:47:20.781250,78.31
11:47:20.796875,75.26
11:47:20.812500,72.45
11:47:20.828125,69.99
11:47:20.843750,67.98
11:47:20.859375,66.63
11:47:20.875000,66.41
11:47:20.890625,67.94
11:47:20.906250,71.83
11:47:20.921875,78.09
11:47:20.937500,85.70
11:47:20.953125,92.59
11:47:20.968750,96.20
11:47:20.984375,94.17
11:47:21,85.08
11:47:21.015625,68.87
11:47:21.031250,46.99
11:47:21.046875,22.31
11:47:21.062500,-1.87
11:47:21.078125,-22.90
11:47:21.093750,-39.37
11:47:21.109375,-50.87
11:47:21.125000,-57.77
11:47:21.140625,-60.85
11:47:21.156250,-60.97
11:47:21.171875,-58.96
11:47:21.187500,-55.17
11:47:21.203125,-50.18
11:47:21.218750,-45.29
11:47:21.234375,-42.38
11:47:21.250000,-42.93
11:47:21.265625,-47.60
11:47:21.281250,-56.30
11:47:21.296875,-68.32
11:47:21.312500,-82.51
11:47:21.328125,-96.61
11:47:21.343750,-107.80
11:47:21.359375,-113.24
11:47:21.375000,-110.65
11:47:21.390625,-98.39
11:47:21.406250,-76.52
11:47:21.421875,-47.38
11:47:21.437500,-15.15
11:47:21.453125,11.58
11:47:21.468750,25.73
11:47:21.484375,27.25
11:47:21.500000,21.89
11:47:21.515625,15.66
11:47:21.531250,12.41
11:47:21.546875,12.92
11:47:21.562500,15.77
11:47:21.578125,19.06
11:47:21.593750,21.49
11:47:21.609375,24.42
11:47:21.625000,27.84
11:47:21.640625,31.08
11:47:21.656250,32.77
11:47:21.671875,32.37
11:47:21.687500,29.45
11:47:21.703125,23.10
11:47:21.718750,12.74
11:47:21.734375,-1.15
11:47:21.750000,-16.57
11:47:21.765625,-30.29
11:47:21.781250,-38.84
11:47:21.796875,-38.59
11:47:21.812500,-25.99
11:47:21.828125,-0.46
11:47:21.843750,34.16
11:47:21.859375,71.47
11:47:21.875000,104.75
11:47:21.890625,128.59
11:47:21.906250,140.25
11:47:21.921875,139.58
11:47:21.937500,121.56
11:47:21.953125,88.14
11:47:21.968750,48.41
11:47:21.984375,12.32
11:47:22,-15.58
11:47:22.015625,-37.35
11:47:22.031250,-58.45
11:47:22.046875,-84.05
11:47:22.062500,-113.79
11:47:22.078125,-141.99
11:47:22.093750,-159.22
11:47:22.109375,-158.39
11:47:22.125000,-139.08
11:47:22.140625,-106.34
11:47:22.156250,-63.84
11:47:22.171875,-19.65
11:47:22.187500,19.51
11:47:22.203125,44.00
11:47:22.218750,49.03
11:47:22.234375,40.04
11:47:22.250000,29.96
11:47:22.265625,23.03
11:47:22.281250,17.39
11:47:22.296875,9.07
11:47:22.312500,-5.74
11:47:22.328125,-27.49
11:47:22.343750,-54.70
11:47:22.359375,-83.92
11:47:22.375000,-109.51
11:47:22.390625,-126.33
11:47:22.406250,-131.81
11:47:22.421875,-124.32
11:47:22.437500,-102.66
11:47:22.453125,-67.35
11:47:22.468750,-20.72
11:47:22.484375,33.06
11:47:22.500000,80.84
11:47:22.515625,109.27
11:47:22.531250,114.49
11:47:22.546875,102.30
11:47:22.562500,82.39
11:47:22.578125,62.31
11:47:22.593750,45.28
11:47:22.609375,32.86
11:47:22.625000,23.02
11:47:22.640625,15.40
11:47:22.656250,11.83
11:47:22.671875,14.04
11:47:22.687500,21.25
11:47:22.703125,30.79
11:47:22.718750,39.78
11:47:22.734375,45.34
11:47:22.750000,47.27
11:47:22.765625,46.73
11:47:22.781250,45.99
11:47:22.796875,47.76
11:47:22.812500,53.51
11:47:22.828125,62.05
11:47:22.843750,70.10
11:47:22.859375,74.03
11:47:22.875000,71.49
11:47:22.890625,62.95
11:47:22.906250,51.57
11:47:22.921875,43.34
11:47:22.937500,45.61
11:47:22.953125,64.32
11:47:22.968750,100.88
11:47:22.984375,150.65
11:47:23,203.93
11:47:23.015625,248.74
11:47:23.031250,274.73
11:47:23.046875,276.33
11:47:23.062500,254.59
11:47:23.078125,216.52
11:47:23.093750,172.06
11:47:23.109375,130.44
11:47:23.125000,97.29
11:47:23.140625,74.06
11:47:23.156250,58.86
11:47:23.171875,48.07
11:47:23.187500,37.79
11:47:23.203125,24.79
11:47:23.218750,6.49
11:47:23.234375,-19.29
11:47:23.250000,-54.18
11:47:23.265625,-98.44
11:47:23.281250,-149.87
11:47:23.296875,-203.57
11:47:23.312500,-252.93
11:47:23.328125,-291.51
11:47:23.343750,-315.02
11:47:23.359375,-322.23
11:47:23.375000,-314.45
11:47:23.390625,-293.91
11:47:23.406250,-262.38
11:47:23.421875,-220.69
11:47:23.437500,-169.78
11:47:23.453125,-112.32
11:47:23.468750,-53.48
11:47:23.484375,-0.43
11:47:23.500000,39.81
11:47:23.515625,62.71
11:47:23.531250,67.67
11:47:23.546875,57.75
11:47:23.562500,38.02
11:47:23.578125,13.52
11:47:23.593750,-12.15
11:47:23.609375,-36.90
11:47:23.625000,-59.72
11:47:23.640625,-79.42
11:47:23.656250,-94.12
11:47:23.671875,-101.62
11:47:23.687500,-100.41
11:47:23.703125,-90.50
11:47:23.718750,-73.62
11:47:23.734375,-52.57
11:47:23.750000,-30.03
11:47:23.765625,-7.62
11:47:23.781250,14.44
11:47:23.796875,36.75
11:47:23.812500,59.75
11:47:23.828125,82.87
11:47:23.843750,104.25
11:47:23.859375,121.22
11:47:23.875000,131.24
11:47:23.890625,132.93
11:47:23.906250,126.73
11:47:23.921875,114.81
11:47:23.937500,100.28
11:47:23.953125,86.08
11:47:23.968750,74.07
11:47:23.984375,64.65
11:47:24,57.07
11:47:24.015625,50.13
11:47:24.031250,42.96
11:47:24.046875,35.33
11:47:24.062500,27.57
11:47:24.078125,20.12
11:47:24.093750,13.16
11:47:24.109375,6.43
11:47:24.125000,-0.53
11:47:24.140625,-8.05
11:47:24.156250,-16.10
11:47:24.171875,-24.16
11:47:24.187500,-31.48
11:47:24.203125,-37.34
11:47:24.218750,-41.42
11:47:24.234375,-44.08
11:47:24.250000,-46.30
11:47:24.265625,-49.42
11:47:24.281250,-54.60
11:47:24.296875,-62.27
11:47:24.312500,-71.90
11:47:24.328125,-82.21
11:47:24.343750,-91.64
11:47:24.359375,-99.26
11:47:24.375000,-105.10
11:47:24.390625,-110.11
11:47:24.406250,-115.65
11:47:24.421875,-122.62
11:47:24.437500,-130.64
11:47:24.453125,-137.93
11:47:24.468750,-141.48
11:47:24.484375,-137.79
11:47:24.500000,-124.17
11:47:24.515625,-99.95
11:47:24.531250,-67.51
11:47:24.546875,-32.46
11:47:24.562500,-2.48
11:47:24.578125,14.72
11:47:24.593750,14.07
11:47:24.609375,-4.72
11:47:24.625000,-36.63
11:47:24.640625,-72.75
11:47:24.656250,-103.28
11:47:24.671875,-121.07
11:47:24.687500,-124.08
11:47:24.703125,-115.84
11:47:24.718750,-103.65
11:47:24.734375,-95.72
11:47:24.750000,-98.16
11:47:24.765625,-113.21
11:47:24.781250,-138.86
11:47:24.796875,-169.81
11:47:24.812500,-199.10
11:47:24.828125,-219.97
11:47:24.843750,-227.34
11:47:24.859375,-218.82
11:47:24.875000,-195.06
11:47:24.890625,-159.21
11:47:24.906250,-116.10
11:47:24.921875,-70.95
11:47:24.937500,-28.10
11:47:24.953125,9.78
11:47:24.968750,41.90
11:47:24.984375,69.00
11:47:25,92.65
11:47:25.015625,114.43
11:47:25.031250,135.15
11:47:25.046875,154.27
11:47:25.062500,169.73
11:47:25.078125,178.41
11:47:25.093750,177.13
11:47:25.109375,163.95
11:47:25.125000,139.20
11:47:25.140625,105.66
11:47:25.156250,67.97
11:47:25.171875,31.29
11:47:25.187500,-0.01
11:47:25.203125,-23.22
11:47:25.218750,-37.53
11:47:25.234375,-43.69
11:47:25.250000,-43.32
11:47:25.265625,-38.31
11:47:25.281250,-30.41
11:47:25.296875,-20.96
11:47:25.312500,-10.94
11:47:25.328125,-0.92
11:47:25.343750,8.89
11:47:25.359375,18.59
11:47:25.375000,28.45
11:47:25.390625,38.74
11:47:25.406250,49.56
11:47:25.421875,60.78
11:47:25.437500,71.96
11:47:25.453125,82.49
11:47:25.468750,91.79
11:47:25.484375,99.49
11:47:25.500000,105.52
11:47:25.515625,110.13
11:47:25.531250,113.67
11:47:25.546875,116.43
11:47:25.562500,118.44
11:47:25.578125,119.54
11:47:25.593750,119.40
11:47:25.609375,117.78
11:47:25.625000,114.57
11:47:25.640625,109.91
11:47:25.656250,104.04
11:47:25.671875,97.26
11:47:25.687500,89.78
11:47:25.703125,81.72
11:47:25.718750,73.09
11:47:25.734375,63.92
11:47:25.750000,54.29
11:47:25.765625,44.26
11:47:25.781250,33.95
11:47:25.796875,23.37
11:47:25.812500,12.52
11:47:25.828125,1.39
11:47:25.843750,-10.05
11:47:25.859375,-21.73
11:47:25.875000,-33.46
11:47:25.890625,-44.85
11:47:25.906250,-55.31
11:47:25.921875,-64.06
11:47:25.937500,-70.26
11:47:25.953125,-73.22
11:47:25.968750,-72.54
11:47:25.984375,-68.31
11:47:26,-60.99
11:47:26.015625,-51.35
11:47:26.031250,-40.23
11:47:26.046875,-28.36
11:47:26.062500,-16.34
11:47:26.078125,-4.63
11:47:26.093750,6.35
11:47:26.109375,16.20
11:47:26.125000,24.49
11:47:26.140625,30.86
11:47:26.156250,35.13
11:47:26.171875,37.36
11:47:26.187500,37.87
11:47:26.203125,37.18
11:47:26.218750,35.80
11:47:26.234375,34.11
11:47:26.250000,32.22
11:47:26.265625,30.10
11:47:26.281250,27.60
11:47:26.296875,24.66
11:47:26.312500,21.29
11:47:26.328125,17.54
11:47:26.343750,13.40
11:47:26.359375,8.76
11:47:26.375000,3.51
11:47:26.390625,-2.42
11:47:26.406250,-8.95
11:47:26.421875,-15.91
11:47:26.437500,-23.06
11:47:26.453125,-30.18
11:47:26.468750,-37.11
11:47:26.484375,-43.66
11:47:26.500000,-49.68
11:47:26.515625,-54.95
11:47:26.531250,-59.27
11:47:26.546875,-62.46
11:47:26.562500,-64.31
11:47:26.578125,-64.64
11:47:26.593750,-63.25
11:47:26.609375,-60.16
11:47:26.625000,-55.61
11:47:26.640625,-50.04
11:47:26.656250,-43.97
11:47:26.671875,-37.51
11:47:26.687500,-30.12
11:47:26.703125,-20.47
11:47:26.718750,-6.76
11:47:26.734375,12.70
11:47:26.750000,38.70
11:47:26.765625,70.71
11:47:26.781250,106.89
11:47:26.796875,144.47
11:47:26.812500,180.53
11:47:26.828125,212.46
11:47:26.843750,238.32
11:47:26.859375,256.83
11:47:26.875000,267.29
11:47:26.890625,269.60
11:47:26.906250,264.38
11:47:26.921875,253.14
11:47:26.937500,238.06
11:47:26.953125,221.60
11:47:26.968750,205.82
11:47:26.984375,191.85
11:47:27,179.72
11:47:27.015625,168.70
11:47:27.031250,157.82
11:47:27.046875,146.47
11:47:27.062500,134.55
11:47:27.078125,122.38
11:47:27.093750,110.28
11:47:27.109375,98.14
11:47:27.125000,85.38
11:47:27.140625,71.08
11:47:27.156250,54.48
11:47:27.171875,35.34
11:47:27.187500,14.20
11:47:27.203125,-7.73
11:47:27.218750,-28.87
11:47:27.234375,-47.75
11:47:27.250000,-63.39
11:47:27.265625,-75.41
11:47:27.281250,-84.07
11:47:27.296875,-89.97
11:47:27.312500,-93.96
11:47:27.328125,-97.00
11:47:27.343750,-100.10
11:47:27.359375,-104.22
11:47:27.375000,-110.03
11:47:27.390625,-117.72
11:47:27.406250,-126.86
11:47:27.421875,-136.50
11:47:27.437500,-145.42
11:47:27.453125,-152.59
11:47:27.468750,-157.48
11:47:27.484375,-160.12
11:47:27.500000,-160.96
11:47:27.515625,-160.49
11:47:27.531250,-158.96
11:47:27.546875,-156.24
11:47:27.562500,-151.92
11:47:27.578125,-145.62
11:47:27.593750,-137.17
11:47:27.609375,-126.84
11:47:27.625000,-115.30
11:47:27.640625,-103.47
11:47:27.656250,-92.19
11:47:27.671875,-81.97
11:47:27.687500,-72.82
11:47:27.703125,-64.25
11:47:27.718750,-55.50
11:47:27.734375,-45.84
11:47:27.750000,-34.91
11:47:27.765625,-22.84
11:47:27.781250,-10.30
11:47:27.796875,1.74
11:47:27.812500,12.30
11:47:27.828125,20.63
11:47:27.843750,26.35
11:47:27.859375,29.44
11:47:27.875000,30.13
11:47:27.890625,28.83
11:47:27.906250,26.00
11:47:27.921875,22.12
11:47:27.937500,17.68
11:47:27.953125,13.12
11:47:27.968750,8.77
11:47:27.984375,4.74
11:47:28,0.99
11:47:28.015625,-2.72
11:47:28.031250,-6.65
11:47:28.046875,-10.97
11:47:28.062500,-15.73
11:47:28.078125,-20.90
11:47:28.093750,-26.44
11:47:28.109375,-32.35
11:47:28.125000,-38.65
11:47:28.140625,-45.25
11:47:28.156250,-51.84
11:47:28.171875,-57.76
11:47:28.187500,-62.11
11:47:28.203125,-63.96
11:47:28.218750,-62.65
11:47:28.234375,-57.97
11:47:28.250000,-50.18
11:47:28.265625,-39.87
11:47:28.281250,-27.68
11:47:28.296875,-14.17
11:47:28.312500,0.26
11:47:28.328125,15.20
11:47:28.343750,30.06
11:47:28.359375,44.03
11:47:28.375000,56.11
11:47:28.390625,65.47
11:47:28.406250,71.63
11:47:28.421875,74.75
11:47:28.437500,75.44
11:47:28.453125,74.62
11:47:28.468750,73.16
11:47:28.484375,71.57
11:47:28.500000,69.98
11:47:28.515625,68.19
11:47:28.531250,65.86
11:47:28.546875,62.65
11:47:28.562500,58.45
11:47:28.578125,53.26
11:47:28.593750,47.20
11:47:28.609375,40.36
11:47:28.625000,32.80
11:47:28.640625,24.62
11:47:28.656250,16.03
11:47:28.671875,7.41
11:47:28.687500,-0.74
11:47:28.703125,-7.97
11:47:28.718750,-14.04
11:47:28.734375,-19.01
11:47:28.750000,-23.22
11:47:28.765625,-27.11
11:47:28.781250,-31.06
11:47:28.796875,-35.30
11:47:28.812500,-39.92
11:47:28.828125,-44.95
11:47:28.843750,-50.47
11:47:28.859375,-56.62
11:47:28.875000,-63.51
11:47:28.890625,-71.06
11:47:28.906250,-78.86
11:47:28.921875,-86.14
11:47:28.937500,-91.90
11:47:28.953125,-95.18
11:47:28.968750,-95.27
11:47:28.984375,-91.94
11:47:29,-85.43
11:47:29.015625,-76.31
11:47:29.031250,-65.20
11:47:29.046875,-52.62
11:47:29.062500,-38.92
11:47:29.078125,-24.35
11:47:29.093750,-9.26
11:47:29.109375,5.80
11:47:29.125000,20.09
11:47:29.140625,32.87
11:47:29.156250,43.57
11:47:29.171875,51.97
11:47:29.187500,58.20
11:47:29.203125,62.59
11:47:29.218750,65.54
11:47:29.234375,67.29
11:47:29.250000,67.94
11:47:29.265625,67.50
11:47:29.281250,65.99
11:47:29.296875,63.53
11:47:29.312500,60.34
11:47:29.328125,56.69
11:47:29.343750,52.79
11:47:29.359375,48.75
11:47:29.375000,44.53
11:47:29.390625,39.98
11:47:29.406250,34.86
11:47:29.421875,28.91
11:47:29.437500,21.99
11:47:29.453125,14.14
11:47:29.468750,5.64
11:47:29.484375,-3.02
11:47:29.500000,-11.34
11:47:29.515625,-18.96
11:47:29.531250,-25.73
11:47:29.546875,-31.80
11:47:29.562500,-37.36
11:47:29.578125,-42.60
11:47:29.593750,-47.62
11:47:29.609375,-52.48
11:47:29.625000,-57.30
11:47:29.640625,-62.29
11:47:29.656250,-67.61
11:47:29.671875,-73.07
11:47:29.687500,-78.02
11:47:29.703125,-81.38
11:47:29.718750,-81.95
11:47:29.734375,-78.84
11:47:29.750000,-71.84
11:47:29.765625,-61.46
11:47:29.781250,-48.69
11:47:29.796875,-34.62
11:47:29.812500,-20.13
11:47:29.828125,-5.87
11:47:29.843750,7.72
11:47:29.859375,20.20
11:47:29.875000,31.12
11:47:29.890625,40.07
11:47:29.906250,46.92
