13:06:13,-0.00
13:06:13.015625,-0.00
13:06:13.031250,-0.00
13:06:13.046875,-0.00
13:06:13.062500,-0.00
13:06:13.078125,-0.00
13:06:13.093750,-0.00
13:06:13.109375,-0.00
13:06:13.125000,-0.00
13:06:13.140625,-0.01
13:06:13.156250,-0.00
13:06:13.171875,0.00
13:06:13.187500,0.01
13:06:13.203125,0.01
13:06:13.218750,-0.00
13:06:13.234375,-0.03
13:06:13.250000,-0.05
13:06:13.265625,-0.05
13:06:13.281250,-0.00
13:06:13.296875,0.13
13:06:13.312500,0.36
13:06:13.328125,0.66
13:06:13.343750,1.01
13:06:13.359375,1.37
13:06:13.375000,1.72
13:06:13.390625,2.06
13:06:13.406250,2.40
13:06:13.421875,2.77
13:06:13.437500,3.24
13:06:13.453125,3.80
13:06:13.468750,4.42
13:06:13.484375,5.06
13:06:13.500000,5.66
13:06:13.515625,6.20
13:06:13.531250,6.68
13:06:13.546875,7.15
13:06:13.562500,7.64
13:06:13.578125,8.31
13:06:13.593750,9.14
13:06:13.609375,10.09
13:06:13.625000,11.04
13:06:13.640625,11.88
13:06:13.656250,12.56
13:06:13.671875,13.14
13:06:13.687500,13.76
13:06:13.703125,14.58
13:06:13.718750,15.96
13:06:13.734375,17.91
13:06:13.750000,20.32
13:06:13.765625,22.90
13:06:13.781250,25.38
13:06:13.796875,27.58
13:06:13.812500,29.57
13:06:13.828125,31.68
13:06:13.843750,34.20
13:06:13.859375,37.81
13:06:13.875000,42.54
13:06:13.890625,48.15
13:06:13.906250,54.10
13:06:13.921875,59.83
13:06:13.937500,64.97
13:06:13.953125,69.58
13:06:13.968750,74.14
13:06:13.984375,79.19
13:06:14,85.71
13:06:14.015625,93.76
13:06:14.031250,103.00
13:06:14.046875,112.62
13:06:14.062500,121.73
13:06:14.078125,129.77
13:06:14.093750,136.75
13:06:14.109375,144.29
13:06:14.125000,150.58
13:06:14.140625,157.77
13:06:14.156250,166.64
13:06:14.171875,177.95
13:06:14.187500,191.79
13:06:14.203125,206.97
13:06:14.218750,220.57
13:06:14.234375,228.25
13:06:14.250000,225.36
13:06:14.265625,208.37
13:06:14.281250,176.87
13:06:14.296875,132.76
13:06:14.312500,80.05
13:06:14.328125,23.07
13:06:14.343750,-34.94
13:06:14.359375,-92.44
13:06:14.375000,-149.16
13:06:14.390625,-205.23
13:06:14.406250,-260.49
13:06:14.421875,-313.74
13:06:14.437500,-363.87
13:06:14.453125,-409.83
13:06:14.468750,-450.91
13:06:14.484375,-486.50
13:06:14.500000,-515.74
13:06:14.515625,-537.23
13:06:14.531250,-549.22
13:06:14.546875,-550.04
13:06:14.562500,-538.37
13:06:14.578125,-514.20
13:06:14.593750,-478.67
13:06:14.609375,-433.88
13:06:14.625000,-382.45
13:06:14.640625,-327.02
13:06:14.656250,-269.84
13:06:14.671875,-212.63
13:06:14.687500,-156.70
13:06:14.703125,-102.95
13:06:14.718750,-52.37
13:06:14.734375,-5.90
13:06:14.750000,35.58
13:06:14.765625,71.43
13:06:14.781250,101.35
13:06:14.796875,125.50
13:06:14.812500,144.38
13:06:14.828125,158.68
13:06:14.843750,169.15
13:06:14.859375,176.37
13:06:14.875000,180.75
13:06:14.890625,182.57
13:06:14.906250,182.07
13:06:14.921875,179.51
13:06:14.937500,175.23
13:06:14.953125,169.65
13:06:14.968750,163.18
13:06:14.984375,156.15
13:06:15,148.81
13:06:15.015625,141.30
13:06:15.031250,133.69
13:06:15.046875,126.02
13:06:15.062500,118.33
13:06:15.078125,110.69
13:06:15.093750,103.16
13:06:15.109375,95.80
13:06:15.125000,88.68
13:06:15.140625,81.83
13:06:15.156250,75.25
13:06:15.171875,68.95
13:06:15.187500,62.95
13:06:15.203125,57.25
13:06:15.218750,51.86
13:06:15.234375,46.78
13:06:15.250000,42.03
13:06:15.265625,37.59
13:06:15.281250,33.45
13:06:15.296875,29.61
13:06:15.312500,26.07
13:06:15.328125,22.81
13:06:15.343750,19.82
13:06:15.359375,17.11
13:06:15.375000,14.67
13:06:15.390625,12.48
13:06:15.406250,10.54
13:06:15.421875,8.83
13:06:15.437500,7.35
13:06:15.453125,6.07
13:06:15.468750,4.97
13:06:15.484375,4.05
13:06:15.500000,3.27
13:06:15.515625,2.62
13:06:15.531250,2.09
13:06:15.546875,1.65
13:06:15.562500,1.30
13:06:15.578125,1.01
13:06:15.593750,0.79
13:06:15.609375,0.61
13:06:15.625000,0.47
13:06:15.640625,0.37
13:06:15.656250,0.28
13:06:15.671875,0.22
13:06:15.687500,0.18
13:06:15.703125,0.14
13:06:15.718750,0.12
13:06:15.734375,0.11
13:06:15.750000,0.10
13:06:15.765625,0.11
13:06:15.781250,0.12
13:06:15.796875,0.13
13:06:15.812500,0.15
13:06:15.828125,0.19
13:06:15.843750,0.22
13:06:15.859375,0.26
13:06:15.875000,0.30
13:06:15.890625,0.34
13:06:15.906250,0.39
13:06:15.921875,0.43
13:06:15.937500,0.48
13:06:15.953125,0.53
13:06:15.968750,0.58
13:06:15.984375,0.63
13:06:16,0.68
13:06:16.015625,0.74
13:06:16.031250,0.80
13:06:16.046875,0.88
13:06:16.062500,0.95
13:06:16.078125,1.04
13:06:16.093750,1.13
13:06:16.109375,1.24
13:06:16.125000,1.36
13:06:16.140625,1.49
13:06:16.156250,1.64
13:06:16.171875,1.81
13:06:16.187500,1.99
13:06:16.203125,2.20
13:06:16.218750,2.42
13:06:16.234375,2.68
13:06:16.250000,2.96
13:06:16.265625,3.26
13:06:16.281250,3.60
13:06:16.296875,3.97
13:06:16.312500,4.37
13:06:16.328125,4.80
13:06:16.343750,5.28
13:06:16.359375,5.79
13:06:16.375000,6.34
13:06:16.390625,6.93
13:06:16.406250,7.57
13:06:16.421875,8.25
13:06:16.437500,8.98
13:06:16.453125,9.76
13:06:16.468750,10.57
13:06:16.484375,11.45
13:06:16.500000,12.36
13:06:16.515625,13.33
13:06:16.531250,14.34
13:06:16.546875,15.44
13:06:16.562500,16.58
13:06:16.578125,17.81
13:06:16.593750,19.11
13:06:16.609375,20.45
13:06:16.625000,21.82
13:06:16.640625,23.17
13:06:16.656250,24.41
13:06:16.671875,25.44
13:06:16.687500,26.16
13:06:16.703125,26.41
13:06:16.718750,26.09
13:06:16.734375,25.07
13:06:16.750000,23.31
13:06:16.765625,20.77
13:06:16.781250,17.53
13:06:16.796875,13.63
13:06:16.812500,9.29
13:06:16.828125,4.71
13:06:16.843750,0.09
13:06:16.859375,-4.32
13:06:16.875000,-8.31
13:06:16.890625,-11.71
13:06:16.906250,-14.40
13:06:16.921875,-16.30
13:06:16.937500,-17.39
13:06:16.953125,-17.71
13:06:16.968750,-17.36
13:06:16.984375,-16.49
13:06:17,-15.28
13:06:17.015625,-13.89
13:06:17.031250,-12.52
13:06:17.046875,-11.27
13:06:17.062500,-10.21
13:06:17.078125,-9.33
13:06:17.093750,-8.53
13:06:17.109375,-7.76
13:06:17.125000,-6.98
13:06:17.140625,-6.15
13:06:17.156250,-5.25
13:06:17.171875,-4.30
13:06:17.187500,-3.29
13:06:17.203125,-2.16
13:06:17.218750,-0.83
13:06:17.234375,0.87
13:06:17.250000,2.88
13:06:17.265625,5.16
13:06:17.281250,7.59
13:06:17.296875,10.02
13:06:17.312500,12.24
13:06:17.328125,14.15
13:06:17.343750,15.80
13:06:17.359375,17.41
13:06:17.375000,19.39
13:06:17.390625,21.74
13:06:17.406250,24.46
13:06:17.421875,27.42
13:06:17.437500,30.31
13:06:17.453125,32.73
13:06:17.468750,34.38
13:06:17.484375,35.23
13:06:17.500000,35.57
13:06:17.515625,35.99
13:06:17.531250,36.47
13:06:17.546875,36.98
13:06:17.562500,37.26
13:06:17.578125,36.75
13:06:17.593750,34.79
13:06:17.609375,30.94
13:06:17.625000,25.26
13:06:17.640625,18.37
13:06:17.656250,11.44
13:06:17.671875,4.87
13:06:17.687500,-1.00
13:06:17.703125,-6.30
13:06:17.718750,-11.79
13:06:17.734375,-18.86
13:06:17.750000,-29.26
13:06:17.765625,-44.88
13:06:17.781250,-67.69
13:06:17.796875,-93.30
13:06:17.812500,-118.99
13:06:17.828125,-141.65
13:06:17.843750,-158.16
13:06:17.859375,-166.21
13:06:17.875000,-165.13
13:06:17.890625,-156.22
13:06:17.906250,-142.42
13:06:17.921875,-127.37
13:06:17.937500,-114.02
13:06:17.953125,-104.56
13:06:17.968750,-98.86
13:06:17.984375,-95.10
13:06:18,-90.91
13:06:18.015625,-84.52
13:06:18.031250,-75.52
13:06:18.046875,-64.81
13:06:18.062500,-53.87
13:06:18.078125,-43.92
13:06:18.093750,-35.90
13:06:18.109375,-29.65
13:06:18.125000,-24.39
13:06:18.140625,-19.50
13:06:18.156250,-14.89
13:06:18.171875,-10.98
13:06:18.187500,-8.34
13:06:18.203125,-7.25
13:06:18.218750,-7.39
13:06:18.234375,-8.41
13:06:18.250000,-9.56
13:06:18.265625,-10.14
13:06:18.281250,-9.49
13:06:18.296875,-7.09
13:06:18.312500,-2.58
13:06:18.328125,4.17
13:06:18.343750,12.89
13:06:18.359375,22.89
13:06:18.375000,33.07
13:06:18.390625,42.42
13:06:18.406250,50.38
13:06:18.421875,56.93
13:06:18.437500,62.43
13:06:18.453125,67.36
13:06:18.468750,71.91
13:06:18.484375,75.91
13:06:18.500000,78.88
13:06:18.515625,80.36
13:06:18.531250,80.18
13:06:18.546875,78.63
13:06:18.562500,76.24
13:06:18.578125,73.51
13:06:18.593750,70.58
13:06:18.609375,67.12
13:06:18.625000,62.57
13:06:18.640625,56.39
13:06:18.656250,48.48
13:06:18.671875,39.31
13:06:18.687500,29.73
13:06:18.703125,20.62
13:06:18.718750,12.45
13:06:18.734375,5.14
13:06:18.750000,-1.77
13:06:18.765625,-8.78
13:06:18.781250,-16.07
13:06:18.796875,-23.34
13:06:18.812500,-30.00
13:06:18.828125,-35.52
13:06:18.843750,-39.68
13:06:18.859375,-42.79
13:06:18.875000,-45.49
13:06:18.890625,-48.51
13:06:18.906250,-52.39
13:06:18.921875,-57.34
13:06:18.937500,-63.27
13:06:18.953125,-69.85
13:06:18.968750,-76.69
13:06:18.984375,-83.33
13:06:19,-89.22
13:06:19.015625,-93.71
13:06:19.031250,-96.06
13:06:19.046875,-95.67
13:06:19.062500,-92.28
13:06:19.078125,-86.09
13:06:19.093750,-77.87
13:06:19.109375,-68.75
13:06:19.125000,-59.97
13:06:19.140625,-52.49
13:06:19.156250,-46.85
13:06:19.171875,-43.10
13:06:19.187500,-40.92
13:06:19.203125,-39.86
13:06:19.218750,-39.53
13:06:19.234375,-39.63
13:06:19.250000,-39.90
13:06:19.265625,-40.06
13:06:19.281250,-39.79
13:06:19.296875,-38.80
13:06:19.312500,-37.15
13:06:19.328125,-35.31
13:06:19.343750,-34.10
13:06:19.359375,-34.20
13:06:19.375000,-35.61
13:06:19.390625,-37.35
13:06:19.406250,-37.61
13:06:19.421875,-34.55
13:06:19.437500,-27.15
13:06:19.453125,-15.74
13:06:19.468750,-1.92
13:06:19.484375,12.19
13:06:19.500000,24.87
13:06:19.515625,35.39
13:06:19.531250,43.98
13:06:19.546875,51.27
13:06:19.562500,57.65
13:06:19.578125,62.92
13:06:19.593750,66.45
13:06:19.609375,67.67
13:06:19.625000,66.46
13:06:19.640625,63.38
13:06:19.656250,59.32
13:06:19.671875,55.03
13:06:19.687500,50.68
13:06:19.703125,45.72
13:06:19.718750,39.19
13:06:19.734375,30.29
13:06:19.750000,18.98
13:06:19.765625,6.25
13:06:19.781250,-6.00
13:06:19.796875,-15.60
13:06:19.812500,-20.89
13:06:19.828125,-21.24
13:06:19.843750,-17.26
13:06:19.859375,-10.39
13:06:19.875000,-2.38
13:06:19.890625,5.35
13:06:19.906250,12.01
13:06:19.921875,17.43
13:06:19.937500,21.81
13:06:19.953125,25.40
13:06:19.968750,28.35
13:06:19.984375,30.61
13:06:20,32.12
13:06:20.015625,32.85
13:06:20.031250,32.93
13:06:20.046875,32.60
13:06:20.062500,32.14
13:06:20.078125,31.74
13:06:20.093750,31.39
13:06:20.109375,30.89
13:06:20.125000,29.91
13:06:20.140625,28.18
13:06:20.156250,25.69
13:06:20.171875,22.71
13:06:20.187500,19.81
13:06:20.203125,17.62
13:06:20.218750,16.57
13:06:20.234375,16.73
13:06:20.250000,17.77
13:06:20.265625,19.12
13:06:20.281250,20.14
13:06:20.296875,20.39
13:06:20.312500,19.66
13:06:20.328125,18.04
13:06:20.343750,15.78
13:06:20.359375,13.18
13:06:20.375000,10.49
13:06:20.390625,7.86
13:06:20.406250,5.35
13:06:20.421875,2.94
13:06:20.437500,0.60
13:06:20.453125,-1.74
13:06:20.468750,-4.12
13:06:20.484375,-6.67
13:06:20.500000,-9.52
13:06:20.515625,-12.78
13:06:20.531250,-16.46
13:06:20.546875,-20.51
13:06:20.562500,-24.86
13:06:20.578125,-29.44
13:06:20.593750,-34.22
13:06:20.609375,-39.04
13:06:20.625000,-43.50
13:06:20.640625,-46.86
13:06:20.656250,-48.07
13:06:20.671875,-46.22
13:06:20.687500,-40.79
13:06:20.703125,-32.06
13:06:20.718750,-21.10
13:06:20.734375,-9.48
13:06:20.750000,1.19
13:06:20.765625,9.80
13:06:20.781250,15.99
13:06:20.796875,20.16
13:06:20.812500,23.12
13:06:20.828125,25.73
13:06:20.843750,28.46
13:06:20.859375,31.38
13:06:20.875000,34.10
13:06:20.890625,36.06
13:06:20.906250,36.68
13:06:20.921875,35.59
13:06:20.937500,32.65
13:06:20.953125,28.03
13:06:20.968750,22.41
13:06:20.984375,16.87
13:06:21,12.83
13:06:21.015625,11.55
13:06:21.031250,13.63
13:06:21.046875,18.55
13:06:21.062500,24.75
13:06:21.078125,30.14
13:06:21.093750,32.91
13:06:21.109375,32.22
13:06:21.125000,28.36
13:06:21.140625,22.47
13:06:21.156250,15.87
13:06:21.171875,9.49
13:06:21.187500,3.61
13:06:21.203125,-2.04
13:06:21.218750,-7.90
13:06:21.234375,-14.19
13:06:21.250000,-20.61
13:06:21.265625,-26.34
13:06:21.281250,-30.12
13:06:21.296875,-30.67
13:06:21.312500,-27.10
13:06:21.328125,-19.32
13:06:21.343750,-8.25
13:06:21.359375,4.39
13:06:21.375000,16.44
13:06:21.390625,25.98
13:06:21.406250,31.72
13:06:21.421875,33.38
13:06:21.437500,31.62
13:06:21.453125,27.91
13:06:21.468750,24.11
13:06:21.484375,22.06
13:06:21.500000,23.16
13:06:21.515625,28.03
13:06:21.531250,36.44
13:06:21.546875,47.39
13:06:21.562500,59.43
13:06:21.578125,71.02
13:06:21.593750,80.89
13:06:21.609375,88.11
13:06:21.625000,92.18
13:06:21.640625,93.02
13:06:21.656250,90.95
13:06:21.671875,86.64
13:06:21.687500,81.06
13:06:21.703125,75.17
13:06:21.718750,69.71
13:06:21.734375,64.94
13:06:21.750000,60.67
13:06:21.765625,56.43
13:06:21.781250,51.79
13:06:21.796875,46.63
13:06:21.812500,41.24
13:06:21.828125,36.16
13:06:21.843750,31.90
13:06:21.859375,28.71
13:06:21.875000,26.41
13:06:21.890625,24.60
13:06:21.906250,22.79
13:06:21.921875,20.74
13:06:21.937500,18.43
13:06:21.953125,16.02
13:06:21.968750,13.60
13:06:21.984375,11.08
13:06:22,8.25
13:06:22.015625,4.94
13:06:22.031250,1.25
13:06:22.046875,-2.52
13:06:22.062500,-5.92
13:06:22.078125,-8.70
13:06:22.093750,-10.87
13:06:22.109375,-12.70
13:06:22.125000,-14.57
13:06:22.140625,-16.66
13:06:22.156250,-18.93
13:06:22.171875,-21.20
13:06:22.187500,-23.27
13:06:22.203125,-25.17
13:06:22.218750,-27.11
13:06:22.234375,-29.33
13:06:22.250000,-32.01
13:06:22.265625,-35.22
13:06:22.281250,-38.96
13:06:22.296875,-43.27
13:06:22.312500,-48.17
13:06:22.328125,-53.49
13:06:22.343750,-58.64
13:06:22.359375,-62.66
13:06:22.375000,-64.38
13:06:22.390625,-62.89
13:06:22.406250,-58.00
13:06:22.421875,-50.39
13:06:22.437500,-41.44
13:06:22.453125,-32.69
13:06:22.468750,-25.27
13:06:22.484375,-19.58
13:06:22.500000,-15.40
13:06:22.515625,-12.21
13:06:22.531250,-9.63
13:06:22.546875,-7.50
13:06:22.562500,-5.82
13:06:22.578125,-4.45
13:06:22.593750,-2.98
13:06:22.609375,-0.85
13:06:22.625000,2.35
13:06:22.640625,6.58
13:06:22.656250,11.25
13:06:22.671875,15.51
13:06:22.687500,18.72
13:06:22.703125,20.75
13:06:22.718750,22.01
13:06:22.734375,23.12
13:06:22.750000,24.42
13:06:22.765625,25.78
13:06:22.781250,26.74
13:06:22.796875,26.91
13:06:22.812500,26.25
13:06:22.828125,25.22
13:06:22.843750,24.42
13:06:22.859375,24.22
13:06:22.875000,24.45
13:06:22.890625,24.52
13:06:22.906250,23.81
13:06:22.921875,22.06
13:06:22.937500,19.60
13:06:22.953125,17.17
13:06:22.968750,15.52
13:06:22.984375,14.95
13:06:23,15.18
13:06:23.015625,15.49
13:06:23.031250,15.11
13:06:23.046875,13.61
13:06:23.062500,11.04
13:06:23.078125,7.90
13:06:23.093750,4.89
13:06:23.109375,2.54
13:06:23.125000,1.01
13:06:23.140625,0.05
13:06:23.156250,-0.89
13:06:23.171875,-2.41
13:06:23.187500,-4.88
13:06:23.203125,-8.35
13:06:23.218750,-12.53
13:06:23.234375,-16.95
13:06:23.250000,-21.05
13:06:23.265625,-24.24
13:06:23.281250,-25.95
13:06:23.296875,-25.58
13:06:23.312500,-22.64
13:06:23.328125,-16.95
13:06:23.343750,-8.71
13:06:23.359375,1.38
13:06:23.375000,12.35
13:06:23.390625,23.26
13:06:23.406250,33.51
13:06:23.421875,42.99
13:06:23.437500,51.97
13:06:23.453125,60.76
13:06:23.468750,69.45
13:06:23.484375,77.70
13:06:23.500000,84.79
13:06:23.515625,89.82
13:06:23.531250,92.20
13:06:23.546875,92.05
13:06:23.562500,90.41
13:06:23.578125,88.96
13:06:23.593750,89.40
13:06:23.609375,92.50
13:06:23.625000,97.48
13:06:23.640625,102.15
13:06:23.656250,103.75
13:06:23.671875,100.23
13:06:23.687500,91.17
13:06:23.703125,77.96
13:06:23.718750,63.17
13:06:23.734375,49.37
13:06:23.750000,38.41
13:06:23.765625,31.18
13:06:23.781250,28.03
13:06:23.796875,29.25
13:06:23.812500,35.36
13:06:23.828125,46.87
13:06:23.843750,63.84
13:06:23.859375,85.52
13:06:23.875000,110.35
13:06:23.890625,136.33
13:06:23.906250,161.63
13:06:23.921875,185.03
13:06:23.937500,205.98
13:06:23.953125,224.41
13:06:23.968750,240.13
13:06:23.984375,252.45
13:06:24,260.01
13:06:24.015625,261.09
13:06:24.031250,254.29
13:06:24.046875,239.13
13:06:24.062500,216.36
13:06:24.078125,187.70
13:06:24.093750,155.09
13:06:24.109375,120.01
13:06:24.125000,83.18
13:06:24.140625,44.81
13:06:24.156250,5.16
13:06:24.171875,-34.89
13:06:24.187500,-73.70
13:06:24.203125,-109.19
13:06:24.218750,-139.32
13:06:24.234375,-162.64
13:06:24.250000,-178.49
13:06:24.265625,-187.04
13:06:24.281250,-189.09
13:06:24.296875,-185.89
13:06:24.312500,-178.96
13:06:24.328125,-169.91
13:06:24.343750,-160.18
13:06:24.359375,-150.88
13:06:24.375000,-142.59
13:06:24.390625,-135.50
13:06:24.406250,-129.38
13:06:24.421875,-123.84
13:06:24.437500,-118.50
13:06:24.453125,-113.04
13:06:24.468750,-107.33
13:06:24.484375,-101.54
13:06:24.500000,-96.00
13:06:24.515625,-91.05
13:06:24.531250,-86.83
13:06:24.546875,-83.10
13:06:24.562500,-79.29
13:06:24.578125,-74.78
13:06:24.593750,-69.17
13:06:24.609375,-62.53
13:06:24.625000,-55.33
13:06:24.640625,-48.30
13:06:24.656250,-42.04
13:06:24.671875,-36.94
13:06:24.687500,-33.11
13:06:24.703125,-30.50
13:06:24.718750,-29.00
13:06:24.734375,-28.55
13:06:24.750000,-29.09
13:06:24.765625,-30.63
13:06:24.781250,-33.26
13:06:24.796875,-37.20
13:06:24.812500,-42.81
13:06:24.828125,-50.40
13:06:24.843750,-60.05
13:06:24.859375,-71.48
13:06:24.875000,-83.98
13:06:24.890625,-96.62
13:06:24.906250,-108.53
13:06:24.921875,-119.05
13:06:24.937500,-127.87
13:06:24.953125,-134.96
13:06:24.968750,-140.35
13:06:24.984375,-144.02
13:06:25,-145.77
13:06:25.015625,-145.38
13:06:25.031250,-142.80
13:06:25.046875,-138.35
13:06:25.062500,-132.74
13:06:25.078125,-126.88
13:06:25.093750,-121.54
13:06:25.109375,-117.07
13:06:25.125000,-113.28
13:06:25.140625,-109.62
13:06:25.156250,-105.57
13:06:25.171875,-100.98
13:06:25.187500,-96.23
13:06:25.203125,-92.07
13:06:25.218750,-89.12
13:06:25.234375,-87.47
13:06:25.250000,-86.44
13:06:25.265625,-84.77
13:06:25.281250,-81.13
13:06:25.296875,-74.70
13:06:25.312500,-65.57
13:06:25.328125,-54.65
13:06:25.343750,-43.35
13:06:25.359375,-32.95
13:06:25.375000,-24.12
13:06:25.390625,-16.71
13:06:25.406250,-9.82
13:06:25.421875,-2.11
13:06:25.437500,7.85
13:06:25.453125,21.26
13:06:25.468750,38.78
13:06:25.484375,60.48
13:06:25.500000,85.79
13:06:25.515625,113.57
13:06:25.531250,142.24
13:06:25.546875,169.94
13:06:25.562500,194.72
13:06:25.578125,214.82
13:06:25.593750,228.92
13:06:25.609375,236.47
13:06:25.625000,237.64
13:06:25.640625,233.30
13:06:25.656250,224.59
13:06:25.671875,212.49
13:06:25.687500,197.52
13:06:25.703125,179.64
13:06:25.718750,158.60
13:06:25.734375,134.37
13:06:25.750000,107.60
13:06:25.765625,79.71
13:06:25.781250,52.66
13:06:25.796875,28.33
13:06:25.812500,8.01
13:06:25.828125,-7.99
13:06:25.843750,-20.23
13:06:25.859375,-29.79
13:06:25.875000,-37.70
13:06:25.890625,-44.61
13:06:25.906250,-50.73
13:06:25.921875,-55.96
13:06:25.937500,-60.18
13:06:25.953125,-63.34
13:06:25.968750,-65.50
13:06:25.984375,-66.75
13:06:26,-67.21
13:06:26.015625,-67.01
13:06:26.031250,-66.35
13:06:26.046875,-65.39
13:06:26.062500,-64.09
13:06:26.078125,-62.15
13:06:26.093750,-59.06
13:06:26.109375,-54.36
13:06:26.125000,-47.90
13:06:26.140625,-39.99
13:06:26.156250,-31.32
13:06:26.171875,-22.76
13:06:26.187500,-15.17
13:06:26.203125,-9.33
13:06:26.218750,-5.83
13:06:26.234375,-4.99
13:06:26.250000,-6.75
13:06:26.265625,-10.46
13:06:26.281250,-14.91
13:06:26.296875,-18.57
13:06:26.312500,-19.98
13:06:26.328125,-18.20
13:06:26.343750,-13.11
13:06:26.359375,-5.41
13:06:26.375000,3.59
13:06:26.390625,12.23
13:06:26.406250,18.78
13:06:26.421875,21.74
13:06:26.437500,20.03
13:06:26.453125,13.16
13:06:26.468750,1.28
13:06:26.484375,-14.92
13:06:26.500000,-34.28
13:06:26.515625,-55.25
13:06:26.531250,-75.99
13:06:26.546875,-94.55
13:06:26.562500,-109.08
13:06:26.578125,-118.18
13:06:26.593750,-121.27
13:06:26.609375,-118.82
13:06:26.625000,-112.29
13:06:26.640625,-103.81
13:06:26.656250,-95.59
13:06:26.671875,-89.21
13:06:26.687500,-85.28
13:06:26.703125,-83.33
13:06:26.718750,-82.13
13:06:26.734375,-80.27
13:06:26.750000,-76.66
13:06:26.765625,-70.80
13:06:26.781250,-62.90
13:06:26.796875,-53.60
13:06:26.812500,-43.77
13:06:26.828125,-34.27
13:06:26.843750,-25.87
13:06:26.859375,-19.23
13:06:26.875000,-14.85
13:06:26.890625,-12.91
13:06:26.906250,-13.13
13:06:26.921875,-14.83
13:06:26.937500,-17.04
13:06:26.953125,-18.84
13:06:26.968750,-19.62
13:06:26.984375,-19.14
13:06:27,-17.57
13:06:27.015625,-15.26
13:06:27.031250,-12.70
13:06:27.046875,-10.32
13:06:27.062500,-8.48
13:06:27.078125,-7.55
13:06:27.093750,-7.82
13:06:27.109375,-9.58
13:06:27.125000,-12.98
13:06:27.140625,-17.94
13:06:27.156250,-24.10
13:06:27.171875,-30.83
13:06:27.187500,-37.45
13:06:27.203125,-43.46
13:06:27.218750,-48.61
13:06:27.234375,-52.80
13:06:27.250000,-55.83
13:06:27.265625,-57.16
13:06:27.281250,-55.88
13:06:27.296875,-50.98
13:06:27.312500,-41.93
13:06:27.328125,-29.05
13:06:27.343750,-13.56
13:06:27.359375,2.78
13:06:27.375000,18.26
13:06:27.390625,31.78
13:06:27.406250,43.01
13:06:27.421875,52.26
13:06:27.437500,60.09
13:06:27.453125,66.98
13:06:27.468750,73.14
13:06:27.484375,78.49
13:06:27.500000,82.75
13:06:27.515625,85.63
13:06:27.531250,87.03
13:06:27.546875,87.30
13:06:27.562500,87.28
13:06:27.578125,88.22
13:06:27.593750,91.33
13:06:27.609375,97.35
13:06:27.625000,106.17
13:06:27.640625,116.85
13:06:27.656250,127.96
13:06:27.671875,138.04
13:06:27.687500,146.01
13:06:27.703125,151.31
13:06:27.718750,153.80
13:06:27.734375,153.62
13:06:27.750000,150.98
13:06:27.765625,146.18
13:06:27.781250,139.40
13:06:27.796875,130.84
13:06:27.812500,120.67
13:06:27.828125,109.21
13:06:27.843750,97.11
13:06:27.859375,85.21
13:06:27.875000,74.16
13:06:27.890625,64.03
13:06:27.906250,54.19
13:06:27.921875,43.72
13:06:27.937500,32.27
13:06:27.953125,20.68
13:06:27.968750,10.74
13:06:27.984375,4.16
13:06:28,1.27
13:06:28.015625,0.38
13:06:28.031250,-1.51
13:06:28.046875,-7.02
13:06:28.062500,-16.76
13:06:28.078125,-28.79
13:06:28.093750,-39.60
13:06:28.109375,-46.11
13:06:28.125000,-47.27
13:06:28.140625,-44.50
13:06:28.156250,-40.70
13:06:28.171875,-38.59
13:06:28.187500,-39.33
13:06:28.203125,-42.21
13:06:28.218750,-45.24
13:06:28.234375,-46.29
13:06:28.250000,-43.98
13:06:28.265625,-38.01
13:06:28.281250,-28.98
13:06:28.296875,-17.95
13:06:28.312500,-6.11
13:06:28.328125,5.41
13:06:28.343750,15.51
13:06:28.359375,23.17
13:06:28.375000,27.54
13:06:28.390625,28.19
13:06:28.406250,25.39
13:06:28.421875,20.18
13:06:28.437500,14.10
13:06:28.453125,8.76
13:06:28.468750,5.27
13:06:28.484375,4.00
13:06:28.500000,4.57
13:06:28.515625,6.30
13:06:28.531250,8.47
13:06:28.546875,10.61
13:06:28.562500,12.41
13:06:28.578125,13.56
13:06:28.593750,13.66
13:06:28.609375,12.30
13:06:28.625000,9.37
13:06:28.640625,5.22
13:06:28.656250,0.65
13:06:28.671875,-3.33
13:06:28.687500,-5.94
13:06:28.703125,-6.98
13:06:28.718750,-6.89
13:06:28.734375,-6.61
13:06:28.750000,-7.18
13:06:28.765625,-9.41
13:06:28.781250,-13.66
13:06:28.796875,-19.74
13:06:28.812500,-27.10
13:06:28.828125,-34.98
13:06:28.843750,-42.67
13:06:28.859375,-49.59
13:06:28.875000,-55.44
13:06:28.890625,-60.18
13:06:28.906250,-64.01
13:06:28.921875,-67.29
13:06:28.937500,-70.43
13:06:28.953125,-73.77
13:06:28.968750,-77.49
13:06:28.984375,-81.56
13:06:29,-85.64
13:06:29.015625,-89.07
13:06:29.031250,-91.01
13:06:29.046875,-90.58
13:06:29.062500,-87.06
13:06:29.078125,-80.21
13:06:29.093750,-70.30
13:06:29.109375,-58.15
13:06:29.125000,-44.90
13:06:29.140625,-31.72
13:06:29.156250,-19.61
13:06:29.171875,-9.14
13:06:29.187500,-0.51
13:06:29.203125,6.37
13:06:29.218750,11.73
13:06:29.234375,15.75
13:06:29.250000,18.53
13:06:29.265625,20.12
13:06:29.281250,20.64
13:06:29.296875,20.37
13:06:29.312500,19.72
13:06:29.328125,19.18
13:06:29.343750,19.12
13:06:29.359375,19.73
13:06:29.375000,20.93
13:06:29.390625,22.57
13:06:29.406250,24.45
13:06:29.421875,26.40
13:06:29.437500,28.24
13:06:29.453125,29.70
13:06:29.468750,30.40
13:06:29.484375,29.94
13:06:29.500000,28.12
13:06:29.515625,25.00
13:06:29.531250,21.04
13:06:29.546875,16.86
13:06:29.562500,13.07
13:06:29.578125,9.99
13:06:29.593750,7.56
13:06:29.609375,5.35
13:06:29.625000,2.75
13:06:29.640625,-0.82
13:06:29.656250,-5.75
13:06:29.671875,-12.06
13:06:29.687500,-19.26
13:06:29.703125,-26.36
13:06:29.718750,-31.99
13:06:29.734375,-34.72
13:06:29.750000,-33.47
13:06:29.765625,-27.83
13:06:29.781250,-18.31
13:06:29.796875,-6.16
13:06:29.812500,6.99
13:06:29.828125,19.61
13:06:29.843750,30.59
13:06:29.859375,39.35
13:06:29.875000,45.82
13:06:29.890625,50.14
13:06:29.906250,52.53
13:06:29.921875,53.25
13:06:29.937500,52.62
13:06:29.953125,51.07
13:06:29.968750,49.11
13:06:29.984375,47.18
13:06:30,45.51
13:06:30.015625,44.05
13:06:30.031250,42.51
13:06:30.046875,40.52
13:06:30.062500,37.88
13:06:30.078125,34.65
13:06:30.093750,31.15
13:06:30.109375,27.75
13:06:30.125000,24.70
13:06:30.140625,21.95
13:06:30.156250,19.20
13:06:30.171875,16.04
13:06:30.187500,12.14
13:06:30.203125,7.39
13:06:30.218750,1.93
13:06:30.234375,-3.89
13:06:30.250000,-9.67
13:06:30.265625,-15.04
13:06:30.281250,-19.77
13:06:30.296875,-23.85
13:06:30.312500,-27.51
13:06:30.328125,-31.24
13:06:30.343750,-35.62
13:06:30.359375,-41.10
13:06:30.375000,-47.71
13:06:30.390625,-54.84
13:06:30.406250,-61.24
13:06:30.421875,-65.31
13:06:30.437500,-65.67
13:06:30.453125,-61.61
13:06:30.468750,-53.39
13:06:30.484375,-42.14
13:06:30.500000,-29.43
13:06:30.515625,-16.82
13:06:30.531250,-5.39
13:06:30.546875,4.27
13:06:30.562500,11.97
13:06:30.578125,17.75
13:06:30.593750,21.72
13:06:30.609375,24.07
13:06:30.625000,25.05
13:06:30.640625,25.04
13:06:30.656250,24.43
13:06:30.671875,23.51
13:06:30.687500,22.38
13:06:30.703125,20.93
13:06:30.718750,18.90
13:06:30.734375,16.03
13:06:30.750000,12.20
13:06:30.765625,7.54
13:06:30.781250,2.51
13:06:30.796875,-2.17
13:06:30.812500,-5.63
13:06:30.828125,-7.10
13:06:30.843750,-6.19
13:06:30.859375,-2.97
13:06:30.875000,1.93
13:06:30.890625,7.50
13:06:30.906250,12.48
13:06:30.921875,15.58
13:06:30.937500,15.74
13:06:30.953125,12.32
13:06:30.968750,5.36
13:06:30.984375,-4.40
13:06:31,-15.68
13:06:31.015625,-27.11
13:06:31.031250,-37.67
13:06:31.046875,-46.97
13:06:31.062500,-55.25
13:06:31.078125,-63.04
13:06:31.093750,-70.76
13:06:31.109375,-78.40
13:06:31.125000,-85.39
13:06:31.140625,-90.78
13:06:31.156250,-93.44
13:06:31.171875,-92.40
13:06:31.187500,-86.96
13:06:31.203125,-77.00
13:06:31.218750,-63.04
13:06:31.234375,-46.35
13:06:31.250000,-28.67
13:06:31.265625,-11.91
13:06:31.281250,2.41
13:06:31.296875,13.51
13:06:31.312500,21.48
13:06:31.328125,27.03
13:06:31.343750,31.16
13:06:31.359375,34.69
13:06:31.375000,38.11
13:06:31.390625,41.58
13:06:31.406250,45.10
13:06:31.421875,48.73
13:06:31.437500,52.62
13:06:31.453125,56.97
13:06:31.468750,61.83
13:06:31.484375,66.98
13:06:31.500000,71.84
13:06:31.515625,75.53
13:06:31.531250,77.09
13:06:31.546875,75.61
13:06:31.562500,70.62
13:06:31.578125,62.16
13:06:31.593750,50.90
13:06:31.609375,37.93
13:06:31.625000,24.35
13:06:31.640625,10.95
13:06:31.656250,-2.10
13:06:31.671875,-15.08
13:06:31.687500,-28.39
13:06:31.703125,-42.04
13:06:31.718750,-55.39
13:06:31.734375,-67.27
13:06:31.750000,-76.42
13:06:31.765625,-82.07
13:06:31.781250,-84.15
13:06:31.796875,-83.28
13:06:31.812500,-80.43
13:06:31.828125,-76.47
13:06:31.843750,-71.91
13:06:31.859375,-66.80
13:06:31.875000,-60.76
13:06:31.890625,-53.05
13:06:31.906250,-42.81
13:06:31.921875,-29.18
13:06:31.937500,-11.60
13:06:31.953125,9.97
13:06:31.968750,34.93
13:06:31.984375,62.21
13:06:32,90.42
13:06:32.015625,118.20
13:06:32.031250,144.34
13:06:32.046875,167.88
13:06:32.062500,187.98
13:06:32.078125,203.98
13:06:32.093750,215.34
13:06:32.109375,221.81
13:06:32.125000,223.44
13:06:32.140625,220.58
13:06:32.156250,213.81
13:06:32.171875,203.80
13:06:32.187500,191.24
13:06:32.203125,176.67
13:06:32.218750,160.29
13:06:32.234375,141.80
13:06:32.250000,120.45
13:06:32.265625,95.53
13:06:32.281250,67.03
13:06:32.296875,36.24
13:06:32.312500,5.74
13:06:32.328125,-21.39
13:06:32.343750,-42.73
13:06:32.359375,-57.57
13:06:32.375000,-67.06
13:06:32.390625,-73.47
13:06:32.406250,-78.89
13:06:32.421875,-84.27
13:06:32.437500,-89.20
13:06:32.453125,-92.70
13:06:32.468750,-94.16
13:06:32.484375,-93.91
13:06:32.500000,-93.08
13:06:32.515625,-92.77
13:06:32.531250,-93.45
13:06:32.546875,-94.71
13:06:32.562500,-95.64
13:06:32.578125,-95.47
13:06:32.593750,-93.93
13:06:32.609375,-91.25
13:06:32.625000,-87.89
13:06:32.640625,-84.22
13:06:32.656250,-80.45
13:06:32.671875,-76.69
13:06:32.687500,-73.07
13:06:32.703125,-69.84
13:06:32.718750,-67.28
13:06:32.734375,-65.55
13:06:32.750000,-64.55
13:06:32.765625,-63.81
13:06:32.781250,-62.51
13:06:32.796875,-59.59
13:06:32.812500,-54.01
13:06:32.828125,-45.19
13:06:32.843750,-33.20
13:06:32.859375,-18.92
13:06:32.875000,-3.73
13:06:32.890625,10.90
13:06:32.906250,24.00
13:06:32.921875,35.24
13:06:32.937500,44.94
13:06:32.953125,53.61
13:06:32.968750,61.62
13:06:32.984375,68.95
13:06:33,75.26
13:06:33.015625,80.16
13:06:33.031250,83.49
13:06:33.046875,85.47
13:06:33.062500,86.67
13:06:33.078125,87.70
13:06:33.093750,89.01
13:06:33.109375,90.68
13:06:33.125000,92.37
13:06:33.140625,93.56
13:06:33.156250,93.70
13:06:33.171875,92.49
13:06:33.187500,89.96
13:06:33.203125,86.52
13:06:33.218750,82.78
13:06:33.234375,79.37
13:06:33.250000,76.62
13:06:33.265625,74.46
13:06:33.281250,72.31
13:06:33.296875,69.15
13:06:33.312500,63.80
13:06:33.328125,55.32
13:06:33.343750,43.42
13:06:33.359375,28.83
13:06:33.375000,13.22
13:06:33.390625,-1.11
13:06:33.406250,-12.06
13:06:33.421875,-18.34
13:06:33.437500,-19.95
13:06:33.453125,-18.03
13:06:33.468750,-14.40
13:06:33.484375,-10.83
13:06:33.500000,-8.65
13:06:33.515625,-8.54
13:06:33.531250,-10.63
13:06:33.546875,-14.71
13:06:33.562500,-20.27
13:06:33.578125,-26.51
13:06:33.593750,-32.39
13:06:33.609375,-36.86
13:06:33.625000,-39.19
13:06:33.640625,-39.36
13:06:33.656250,-38.10
13:06:33.671875,-36.72
13:06:33.687500,-36.59
13:06:33.703125,-38.61
13:06:33.718750,-43.01
13:06:33.734375,-49.32
13:06:33.750000,-56.68
13:06:33.765625,-64.04
13:06:33.781250,-70.38
13:06:33.796875,-74.78
13:06:33.812500,-76.44
13:06:33.828125,-74.79
13:06:33.843750,-69.65
13:06:33.859375,-61.39
13:06:33.875000,-50.99
13:06:33.890625,-39.84
13:06:33.906250,-29.31
13:06:33.921875,-20.37
13:06:33.937500,-13.40
13:06:33.953125,-8.10
13:06:33.968750,-3.88
13:06:33.984375,-0.11
13:06:34,3.49
13:06:34.015625,6.89
13:06:34.031250,9.84
13:06:34.046875,12.06
13:06:34.062500,13.47
13:06:34.078125,14.25
13:06:34.093750,14.68
13:06:34.109375,15.08
13:06:34.125000,15.63
13:06:34.140625,16.34
13:06:34.156250,17.08
13:06:34.171875,17.73
13:06:34.187500,18.22
13:06:34.203125,18.59
13:06:34.218750,18.94
13:06:34.234375,19.35
13:06:34.250000,19.83
13:06:34.265625,20.28
13:06:34.281250,20.54
13:06:34.296875,20.44
13:06:34.312500,19.88
13:06:34.328125,18.88
13:06:34.343750,17.53
13:06:34.359375,16.02
13:06:34.375000,14.50
13:06:34.390625,13.01
13:06:34.406250,11.57
13:06:34.421875,10.09
13:06:34.437500,8.53
13:06:34.453125,6.91
13:06:34.468750,5.27
13:06:34.484375,3.71
13:06:34.500000,2.27
13:06:34.515625,0.94
13:06:34.531250,-0.32
13:06:34.546875,-1.54
13:06:34.562500,-2.75
13:06:34.578125,-4.00
13:06:34.593750,-5.36
13:06:34.609375,-6.94
13:06:34.625000,-8.84
13:06:34.640625,-11.10
13:06:34.656250,-13.63
13:06:34.671875,-16.25
13:06:34.687500,-18.70
13:06:34.703125,-20.78
13:06:34.718750,-22.42
13:06:34.734375,-23.68
13:06:34.750000,-24.80
13:06:34.765625,-26.06
13:06:34.781250,-27.80
13:06:34.796875,-30.26
13:06:34.812500,-33.56
13:06:34.828125,-37.50
13:06:34.843750,-41.51
13:06:34.859375,-44.70
13:06:34.875000,-46.02
13:06:34.890625,-44.66
13:06:34.906250,-40.28
13:06:34.921875,-33.28
13:06:34.937500,-24.66
13:06:34.953125,-15.70
13:06:34.968750,-7.59
13:06:34.984375,-1.03
13:06:35,3.83
13:06:35.015625,7.32
13:06:35.031250,9.92
13:06:35.046875,12.04
13:06:35.062500,13.88
13:06:35.078125,15.40
13:06:35.093750,16.47
13:06:35.109375,17.04
13:06:35.125000,17.16
13:06:35.140625,17.01
13:06:35.156250,16.85
13:06:35.171875,16.81
13:06:35.187500,16.94
13:06:35.203125,17.12
13:06:35.218750,17.22
13:06:35.234375,17.12
13:06:35.250000,16.82
13:06:35.265625,16.40
13:06:35.281250,15.97
13:06:35.296875,15.58
13:06:35.312500,15.22
13:06:35.328125,14.77
13:06:35.343750,14.14
13:06:35.359375,13.27
13:06:35.375000,12.20
13:06:35.390625,11.01
13:06:35.406250,9.80
13:06:35.421875,8.62
13:06:35.437500,7.50
13:06:35.453125,6.41
13:06:35.468750,5.38
13:06:35.484375,4.43
13:06:35.500000,3.60
13:06:35.515625,2.87
13:06:35.531250,2.12
13:06:35.546875,1.16
13:06:35.562500,-0.20
13:06:35.578125,-2.04
13:06:35.593750,-4.25
13:06:35.609375,-6.57
13:06:35.625000,-8.71
13:06:35.640625,-10.48
13:06:35.656250,-11.87
13:06:35.671875,-13.08
13:06:35.687500,-14.37
13:06:35.703125,-15.95
13:06:35.718750,-17.90
13:06:35.734375,-20.12
13:06:35.750000,-22.43
13:06:35.765625,-24.65
13:06:35.781250,-26.72
13:06:35.796875,-28.61
13:06:35.812500,-30.37
13:06:35.828125,-32.10
13:06:35.843750,-33.90
13:06:35.859375,-35.94
13:06:35.875000,-38.38
13:06:35.890625,-41.30
13:06:35.906250,-44.55
13:06:35.921875,-47.60
13:06:35.937500,-49.60
13:06:35.953125,-49.63
13:06:35.968750,-47.02
13:06:35.984375,-41.68
13:06:36,-34.23
13:06:36.015625,-25.77
13:06:36.031250,-17.54
13:06:36.046875,-10.49
13:06:36.062500,-5.08
13:06:36.078125,-1.21
13:06:36.093750,1.50
13:06:36.109375,3.57
13:06:36.125000,5.33
13:06:36.140625,7.00
13:06:36.156250,8.59
13:06:36.171875,10.03
13:06:36.187500,11.23
13:06:36.203125,12.15
13:06:36.218750,12.85
13:06:36.234375,13.43
13:06:36.250000,14.08
13:06:36.265625,14.90
13:06:36.281250,15.91
13:06:36.296875,16.96
13:06:36.312500,17.90
13:06:36.328125,18.61
13:06:36.343750,19.10
13:06:36.359375,19.54
13:06:36.375000,20.01
13:06:36.390625,20.48
13:06:36.406250,20.75
13:06:36.421875,20.57
13:06:36.437500,19.80
13:06:36.453125,18.52
13:06:36.468750,16.98
13:06:36.484375,15.47
13:06:36.500000,14.19
13:06:36.515625,13.15
13:06:36.531250,12.26
13:06:36.546875,11.41
13:06:36.562500,10.57
13:06:36.578125,9.79
13:06:36.593750,9.07
13:06:36.609375,8.31
13:06:36.625000,7.30
13:06:36.640625,5.80
13:06:36.656250,3.69
13:06:36.671875,1.04
13:06:36.687500,-1.87
13:06:36.703125,-4.77
13:06:36.718750,-7.43
13:06:36.734375,-9.82
13:06:36.750000,-12.02
13:06:36.765625,-14.18
13:06:36.781250,-16.32
13:06:36.796875,-18.37
13:06:36.812500,-20.18
13:06:36.828125,-21.57
13:06:36.843750,-22.50
13:06:36.859375,-23.10
13:06:36.875000,-23.65
13:06:36.890625,-24.55
13:06:36.906250,-26.17
13:06:36.921875,-28.75
13:06:36.937500,-32.24
13:06:36.953125,-36.23
13:06:36.968750,-39.89
13:06:36.984375,-42.20
13:06:37,-42.26
13:06:37.015625,-39.61
13:06:37.031250,-34.47
13:06:37.046875,-27.63
13:06:37.062500,-20.20
13:06:37.078125,-13.23
13:06:37.093750,-7.43
13:06:37.109375,-3.08
13:06:37.125000,-0.14
13:06:37.140625,1.56
13:06:37.156250,2.23
13:06:37.171875,2.05
13:06:37.187500,1.28
13:06:37.203125,0.32
13:06:37.218750,-0.43
13:06:37.234375,-0.59
13:06:37.250000,-0.02
13:06:37.265625,1.14
13:06:37.281250,2.54
13:06:37.296875,3.82
13:06:37.312500,4.69
13:06:37.328125,5.15
13:06:37.343750,5.39
13:06:37.359375,5.69
13:06:37.375000,6.28
13:06:37.390625,7.24
13:06:37.406250,8.35
13:06:37.421875,9.30
13:06:37.437500,9.67
13:06:37.453125,9.24
13:06:37.468750,7.99
13:06:37.484375,6.17
13:06:37.500000,4.19
13:06:37.515625,2.42
13:06:37.531250,1.10
13:06:37.546875,0.20
13:06:37.562500,-0.44
13:06:37.578125,-1.06
13:06:37.593750,-1.85
13:06:37.609375,-2.92
13:06:37.625000,-4.27
13:06:37.640625,-5.84
13:06:37.656250,-7.52
13:06:37.671875,-9.18
13:06:37.687500,-10.73
13:06:37.703125,-12.10
13:06:37.718750,-13.30
13:06:37.734375,-14.45
13:06:37.750000,-15.65
13:06:37.765625,-17.01
13:06:37.781250,-18.54
13:06:37.796875,-20.16
13:06:37.812500,-21.80
13:06:37.828125,-23.38
13:06:37.843750,-24.91
13:06:37.859375,-26.50
13:06:37.875000,-28.31
13:06:37.890625,-30.56
13:06:37.906250,-33.45
13:06:37.921875,-37.11
13:06:37.937500,-41.47
13:06:37.953125,-46.12
13:06:37.968750,-50.31
13:06:37.984375,-53.02
13:06:38,-53.32
13:06:38.015625,-50.64
13:06:38.031250,-45.03
13:06:38.046875,-37.16
13:06:38.062500,-28.14
13:06:38.078125,-19.12
13:06:38.093750,-11.01
13:06:38.109375,-4.32
13:06:38.125000,0.86
13:06:38.140625,4.69
13:06:38.156250,7.49
13:06:38.171875,9.56
13:06:38.187500,11.14
13:06:38.203125,12.43
13:06:38.218750,13.54
13:06:38.234375,14.49
13:06:38.250000,15.29
13:06:38.265625,15.92
13:06:38.281250,16.43
13:06:38.296875,16.92
13:06:38.312500,17.53
13:06:38.328125,18.38
13:06:38.343750,19.48
13:06:38.359375,20.73
13:06:38.375000,22.00
13:06:38.390625,23.12
13:06:38.406250,23.99
13:06:38.421875,24.54
13:06:38.437500,24.72
13:06:38.453125,24.48
13:06:38.468750,23.76
13:06:38.484375,22.54
13:06:38.500000,20.89
13:06:38.515625,18.96
13:06:38.531250,17.00
13:06:38.546875,15.15
13:06:38.562500,13.50
13:06:38.578125,11.94
13:06:38.593750,10.28
13:06:38.609375,8.34
13:06:38.625000,6.05
13:06:38.640625,3.50
13:06:38.656250,0.90
13:06:38.671875,-1.50
13:06:38.687500,-3.58
13:06:38.703125,-5.39
13:06:38.718750,-7.14
13:06:38.734375,-9.07
13:06:38.750000,-11.35
13:06:38.765625,-13.97
13:06:38.781250,-16.74
13:06:38.796875,-19.39
13:06:38.812500,-21.73
13:06:38.828125,-23.75
13:06:38.843750,-25.63
13:06:38.859375,-27.67
13:06:38.875000,-30.15
13:06:38.890625,-33.28
13:06:38.906250,-37.14
13:06:38.921875,-41.68
13:06:38.937500,-46.65
13:06:38.953125,-51.56
13:06:38.968750,-55.65
13:06:38.984375,-57.97
13:06:39,-57.66
13:06:39.015625,-54.18
13:06:39.031250,-47.58
13:06:39.046875,-38.54
13:06:39.062500,-28.19
13:06:39.078125,-17.84
13:06:39.093750,-8.63
13:06:39.109375,-1.36
13:06:39.125000,3.62
13:06:39.140625,6.32
13:06:39.156250,7.08
13:06:39.171875,6.41
13:06:39.187500,4.93
13:06:39.203125,3.25
13:06:39.218750,1.87
13:06:39.234375,1.08
13:06:39.250000,0.95
13:06:39.265625,1.35
13:06:39.281250,2.03
13:06:39.296875,2.62
13:06:39.312500,2.72
13:06:39.328125,2.00
13:06:39.343750,0.38
13:06:39.359375,-1.80
13:06:39.375000,-3.69
13:06:39.390625,-4.14
13:06:39.406250,-2.22
13:06:39.421875,2.39
13:06:39.437500,9.02
13:06:39.453125,16.23
13:06:39.468750,22.34
13:06:39.484375,26.15
13:06:39.500000,27.36
13:06:39.515625,26.60
13:06:39.531250,24.96
13:06:39.546875,23.37
13:06:39.562500,22.21
13:06:39.578125,21.26
13:06:39.593750,20.07
13:06:39.609375,18.33
13:06:39.625000,16.12
13:06:39.640625,13.84
13:06:39.656250,11.92
13:06:39.671875,10.52
13:06:39.687500,9.44
13:06:39.703125,8.22
13:06:39.718750,6.36
13:06:39.734375,3.63
13:06:39.750000,0.15
13:06:39.765625,-3.70
13:06:39.781250,-7.45
13:06:39.796875,-10.76
13:06:39.812500,-13.58
13:06:39.828125,-16.12
13:06:39.843750,-18.68
13:06:39.859375,-21.58
13:06:39.875000,-24.99
13:06:39.890625,-28.99
13:06:39.906250,-33.57
13:06:39.921875,-38.65
13:06:39.937500,-43.98
13:06:39.953125,-49.06
13:06:39.968750,-53.11
13:06:39.984375,-55.15
13:06:40,-54.29
13:06:40.015625,-50.04
13:06:40.031250,-42.54
13:06:40.046875,-32.62
13:06:40.062500,-21.53
13:06:40.078125,-10.64
13:06:40.093750,-1.05
13:06:40.109375,6.64
13:06:40.125000,12.34
13:06:40.140625,16.32
13:06:40.156250,19.04
13:06:40.171875,20.91
13:06:40.187500,22.24
13:06:40.203125,23.19
13:06:40.218750,23.87
13:06:40.234375,24.38
13:06:40.250000,24.81
13:06:40.265625,25.25
13:06:40.281250,25.73
13:06:40.296875,26.23
13:06:40.312500,26.72
13:06:40.328125,27.21
13:06:40.343750,27.76
13:06:40.359375,28.41
13:06:40.375000,29.18
13:06:40.390625,29.99
13:06:40.406250,30.63
13:06:40.421875,30.90
13:06:40.437500,30.59
13:06:40.453125,29.66
13:06:40.468750,28.14
13:06:40.484375,26.19
13:06:40.500000,24.06
13:06:40.515625,21.96
13:06:40.531250,20.12
13:06:40.546875,18.61
13:06:40.562500,17.41
13:06:40.578125,16.40
13:06:40.593750,15.37
13:06:40.609375,14.15
13:06:40.625000,12.69
13:06:40.640625,11.06
13:06:40.656250,9.43
13:06:40.671875,7.99
13:06:40.687500,6.82
13:06:40.703125,5.80
13:06:40.718750,4.67
13:06:40.734375,3.14
13:06:40.750000,0.98
13:06:40.765625,-1.79
13:06:40.781250,-4.98
13:06:40.796875,-8.28
13:06:40.812500,-11.42
13:06:40.828125,-14.31
13:06:40.843750,-17.05
13:06:40.859375,-20.03
13:06:40.875000,-23.66
13:06:40.890625,-28.29
13:06:40.906250,-33.92
13:06:40.921875,-40.03
13:06:40.937500,-45.63
13:06:40.953125,-49.46
13:06:40.968750,-50.33
13:06:40.984375,-47.56
13:06:41,-41.19
13:06:41.015625,-32.01
13:06:41.031250,-21.26
13:06:41.046875,-10.31
13:06:41.062500,-0.23
13:06:41.078125,8.31
13:06:41.093750,15.09
13:06:41.109375,20.21
13:06:41.125000,23.92
13:06:41.140625,26.50
13:06:41.156250,28.20
13:06:41.171875,29.15
13:06:41.187500,29.47
13:06:41.203125,29.29
13:06:41.218750,28.84
13:06:41.234375,28.38
13:06:41.250000,28.20
13:06:41.265625,28.46
13:06:41.281250,29.13
13:06:41.296875,30.06
13:06:41.312500,31.05
13:06:41.328125,31.95
13:06:41.343750,32.68
13:06:41.359375,33.24
13:06:41.375000,33.59
13:06:41.390625,33.60
13:06:41.406250,33.09
13:06:41.421875,31.95
13:06:41.437500,30.17
13:06:41.453125,27.93
13:06:41.468750,25.50
13:06:41.484375,23.14
13:06:41.500000,21.02
13:06:41.515625,19.15
13:06:41.531250,17.47
13:06:41.546875,15.83
13:06:41.562500,14.14
13:06:41.578125,12.34
13:06:41.593750,10.45
13:06:41.609375,8.50
13:06:41.625000,6.56
13:06:41.640625,4.65
13:06:41.656250,2.77
13:06:41.671875,0.86
13:06:41.687500,-1.12
13:06:41.703125,-3.21
13:06:41.718750,-5.46
13:06:41.734375,-7.91
13:06:41.750000,-10.54
13:06:41.765625,-13.29
13:06:41.781250,-16.04
13:06:41.796875,-18.64
13:06:41.812500,-20.99
13:06:41.828125,-23.09
13:06:41.843750,-25.09
13:06:41.859375,-27.26
13:06:41.875000,-29.94
13:06:41.890625,-33.40
13:06:41.906250,-37.74
13:06:41.921875,-42.68
13:06:41.937500,-47.52
13:06:41.953125,-51.19
13:06:41.968750,-52.53
13:06:41.984375,-50.64
13:06:42,-45.27
13:06:42.015625,-36.87
13:06:42.031250,-26.56
13:06:42.046875,-15.68
13:06:42.062500,-5.45
13:06:42.078125,3.34
13:06:42.093750,10.43
13:06:42.109375,15.91
13:06:42.125000,20.08
13:06:42.140625,23.19
13:06:42.156250,25.44
13:06:42.171875,26.96
13:06:42.187500,27.86
13:06:42.203125,28.27
13:06:42.218750,28.41
13:06:42.234375,28.48
13:06:42.250000,28.68
13:06:42.265625,29.12
13:06:42.281250,29.76
13:06:42.296875,30.48
13:06:42.312500,31.13
13:06:42.328125,31.62
13:06:42.343750,31.96
13:06:42.359375,32.24
13:06:42.375000,32.51
13:06:42.390625,32.78
13:06:42.406250,32.91
13:06:42.421875,32.73
13:06:42.437500,32.13
13:06:42.453125,31.01
13:06:42.468750,29.43
13:06:42.484375,27.56
13:06:42.500000,25.56
13:06:42.515625,23.62
13:06:42.531250,21.85
13:06:42.546875,20.23
13:06:42.562500,18.67
13:06:42.578125,17.04
13:06:42.593750,15.23
13:06:42.609375,13.27
13:06:42.625000,11.29
13:06:42.640625,9.49
13:06:42.656250,8.03
13:06:42.671875,6.94
13:06:42.687500,6.11
13:06:42.703125,5.30
13:06:42.718750,4.24
13:06:42.734375,2.69
13:06:42.750000,0.59
13:06:42.765625,-1.96
13:06:42.781250,-4.69
13:06:42.796875,-7.21
13:06:42.812500,-9.16
13:06:42.828125,-10.34
13:06:42.843750,-10.76
13:06:42.859375,-10.70
13:06:42.875000,-10.57
13:06:42.890625,-10.76
13:06:42.906250,-11.63
13:06:42.921875,-13.34
13:06:42.937500,-15.86
13:06:42.953125,-18.85
13:06:42.968750,-21.64
13:06:42.984375,-23.22
13:06:43,-22.47
13:06:43.015625,-18.56
13:06:43.031250,-11.22
13:06:43.046875,-1.06
13:06:43.062500,10.60
13:06:43.078125,22.08
13:06:43.093750,31.90
13:06:43.109375,39.08
13:06:43.125000,43.32
13:06:43.140625,44.95
13:06:43.156250,44.54
13:06:43.171875,42.82
13:06:43.187500,40.48
13:06:43.203125,38.17
13:06:43.218750,36.36
13:06:43.234375,35.28
13:06:43.250000,34.79
13:06:43.265625,34.38
13:06:43.281250,33.30
13:06:43.296875,30.75
13:06:43.312500,26.28
13:06:43.328125,19.92
13:06:43.343750,12.31
13:06:43.359375,4.57
13:06:43.375000,-2.02
13:06:43.390625,-6.34
13:06:43.406250,-7.70
13:06:43.421875,-6.09
13:06:43.437500,-2.07
13:06:43.453125,3.43
13:06:43.468750,9.33
13:06:43.484375,14.74
13:06:43.500000,19.13
13:06:43.515625,22.37
13:06:43.531250,24.66
13:06:43.546875,26.28
13:06:43.562500,27.52
13:06:43.578125,28.43
13:06:43.593750,28.97
13:06:43.609375,28.99
13:06:43.625000,28.45
13:06:43.640625,27.51
13:06:43.656250,26.45
13:06:43.671875,25.61
13:06:43.687500,25.19
13:06:43.703125,25.15
13:06:43.718750,25.25
13:06:43.734375,25.19
13:06:43.750000,24.79
13:06:43.765625,24.08
13:06:43.781250,23.25
13:06:43.796875,22.54
13:06:43.812500,22.09
13:06:43.828125,21.84
13:06:43.843750,21.63
13:06:43.859375,21.27
13:06:43.875000,20.60
13:06:43.890625,19.53
13:06:43.906250,17.93
13:06:43.921875,15.65
13:06:43.937500,12.63
13:06:43.953125,9.09
13:06:43.968750,5.66
13:06:43.984375,3.32
13:06:44,3.07
13:06:44.015625,5.53
13:06:44.031250,10.55
13:06:44.046875,17.18
13:06:44.062500,23.94
13:06:44.078125,29.27
13:06:44.093750,32.07
13:06:44.109375,31.92
13:06:44.125000,29.02
13:06:44.140625,23.97
13:06:44.156250,17.40
13:06:44.171875,9.78
13:06:44.187500,1.26
13:06:44.203125,-8.20
13:06:44.218750,-18.76
13:06:44.234375,-30.53
13:06:44.250000,-43.45
13:06:44.265625,-57.26
13:06:44.281250,-71.47
13:06:44.296875,-85.46
13:06:44.312500,-98.70
13:06:44.328125,-110.88
13:06:44.343750,-122.03
13:06:44.359375,-132.62
13:06:44.375000,-143.51
13:06:44.390625,-155.77
13:06:44.406250,-170.45
13:06:44.421875,-188.04
13:06:44.437500,-208.07
13:06:44.453125,-228.83
13:06:44.468750,-247.68
13:06:44.484375,-261.75
13:06:44.500000,-269.12
13:06:44.515625,-269.57
13:06:44.531250,-264.72
13:06:44.546875,-257.30
13:06:44.562500,-249.90
13:06:44.578125,-243.94
13:06:44.593750,-239.29
13:06:44.609375,-234.72
13:06:44.625000,-228.69
13:06:44.640625,-220.15
13:06:44.656250,-208.89
13:06:44.671875,-195.41
13:06:44.687500,-180.50
13:06:44.703125,-164.92
13:06:44.718750,-149.22
13:06:44.734375,-133.70
13:06:44.750000,-118.51
13:06:44.765625,-103.63
13:06:44.781250,-88.98
13:06:44.796875,-74.51
13:06:44.812500,-60.22
13:06:44.828125,-46.27
13:06:44.843750,-32.95
13:06:44.859375,-20.60
13:06:44.875000,-9.50
13:06:44.890625,0.27
13:06:44.906250,8.99
13:06:44.921875,17.34
13:06:44.937500,26.42
13:06:44.953125,37.40
13:06:44.968750,51.09
13:06:44.984375,67.61
13:06:45,86.34
13:06:45.015625,106.32
13:06:45.031250,126.61
13:06:45.046875,146.74
13:06:45.062500,166.50
13:06:45.078125,185.71
13:06:45.093750,203.79
13:06:45.109375,219.68
13:06:45.125000,232.18
13:06:45.140625,240.52
13:06:45.156250,244.78
13:06:45.171875,245.94
13:06:45.187500,245.43
13:06:45.203125,244.51
13:06:45.218750,243.78
13:06:45.234375,243.07
13:06:45.250000,241.75
13:06:45.265625,239.18
13:06:45.281250,235.15
13:06:45.296875,229.85
13:06:45.312500,223.75
13:06:45.328125,217.12
13:06:45.343750,209.76
13:06:45.359375,201.00
13:06:45.375000,189.94
13:06:45.390625,175.98
13:06:45.406250,159.11
13:06:45.421875,140.09
13:06:45.437500,120.18
13:06:45.453125,100.69
13:06:45.468750,82.58
13:06:45.484375,66.25
13:06:45.500000,51.67
13:06:45.515625,38.59
13:06:45.531250,26.76
13:06:45.546875,16.04
13:06:45.562500,6.30
13:06:45.578125,-2.55
13:06:45.593750,-10.72
13:06:45.609375,-18.41
13:06:45.625000,-25.82
13:06:45.640625,-33.08
13:06:45.656250,-40.33
13:06:45.671875,-47.67
13:06:45.687500,-55.22
13:06:45.703125,-62.95
13:06:45.718750,-70.59
13:06:45.734375,-77.55
13:06:45.750000,-82.96
13:06:45.765625,-85.92
13:06:45.781250,-85.69
13:06:45.796875,-82.01
13:06:45.812500,-75.18
13:06:45.828125,-66.01
13:06:45.843750,-55.74
13:06:45.859375,-45.75
13:06:45.875000,-37.24
13:06:45.890625,-31.00
13:06:45.906250,-27.18
13:06:45.921875,-25.40
13:06:45.937500,-24.98
13:06:45.953125,-25.35
13:06:45.968750,-26.26
13:06:45.984375,-27.78
13:06:46,-30.03
13:06:46.015625,-32.85
13:06:46.031250,-35.64
13:06:46.046875,-37.55
13:06:46.062500,-37.82
13:06:46.078125,-36.10
13:06:46.093750,-32.62
13:06:46.109375,-27.96
13:06:46.125000,-22.84
13:06:46.140625,-17.81
13:06:46.156250,-13.20
13:06:46.171875,-9.14
13:06:46.187500,-5.72
13:06:46.203125,-2.97
13:06:46.218750,-0.86
13:06:46.234375,0.72
13:06:46.250000,2.01
13:06:46.265625,3.33
13:06:46.281250,4.90
13:06:46.296875,6.79
13:06:46.312500,8.82
13:06:46.328125,10.66
13:06:46.343750,11.93
13:06:46.359375,12.40
13:06:46.375000,12.16
13:06:46.390625,11.62
13:06:46.406250,11.36
13:06:46.421875,11.95
13:06:46.437500,13.71
13:06:46.453125,16.71
13:06:46.468750,20.78
13:06:46.484375,25.52
13:06:46.500000,30.42
13:06:46.515625,34.81
13:06:46.531250,38.14
13:06:46.546875,40.16
13:06:46.562500,41.23
13:06:46.578125,42.40
13:06:46.593750,45.10
13:06:46.609375,50.68
13:06:46.625000,59.92
13:06:46.640625,72.65
13:06:46.656250,87.94
13:06:46.671875,104.44
13:06:46.687500,120.94
13:06:46.703125,136.66
13:06:46.718750,151.39
13:06:46.734375,165.26
13:06:46.750000,178.35
13:06:46.765625,190.39
13:06:46.781250,200.57
13:06:46.796875,207.72
13:06:46.812500,210.75
13:06:46.828125,209.12
13:06:46.843750,203.14
13:06:46.859375,193.93
13:06:46.875000,183.04
13:06:46.890625,171.90
13:06:46.906250,161.42
13:06:46.921875,151.75
13:06:46.937500,142.43
13:06:46.953125,132.53
13:06:46.968750,120.97
13:06:46.984375,106.67
13:06:47,88.81
13:06:47.015625,67.00
13:06:47.031250,41.43
13:06:47.046875,12.86
13:06:47.062500,-17.48
13:06:47.078125,-48.13
13:06:47.093750,-77.65
13:06:47.109375,-104.86
13:06:47.125000,-128.85
13:06:47.140625,-149.03
13:06:47.156250,-165.07
13:06:47.171875,-176.86
13:06:47.187500,-184.58
13:06:47.203125,-188.73
13:06:47.218750,-190.07
13:06:47.234375,-189.45
13:06:47.250000,-187.66
13:06:47.265625,-185.16
13:06:47.281250,-182.08
13:06:47.296875,-178.29
13:06:47.312500,-173.64
13:06:47.328125,-168.13
13:06:47.343750,-161.97
13:06:47.359375,-155.52
13:06:47.375000,-149.26
13:06:47.390625,-143.59
13:06:47.406250,-138.92
13:06:47.421875,-135.67
13:06:47.437500,-134.21
13:06:47.453125,-134.85
13:06:47.468750,-137.56
13:06:47.484375,-141.94
13:06:47.500000,-147.20
13:06:47.515625,-152.36
13:06:47.531250,-156.41
13:06:47.546875,-158.44
13:06:47.562500,-157.71
13:06:47.578125,-153.61
13:06:47.593750,-145.85
13:06:47.609375,-134.57
13:06:47.625000,-120.46
13:06:47.640625,-104.65
13:06:47.656250,-88.56
13:06:47.671875,-73.62
13:06:47.687500,-60.98
13:06:47.703125,-51.32
13:06:47.718750,-44.71
13:06:47.734375,-40.47
13:06:47.750000,-37.37
13:06:47.765625,-34.02
13:06:47.781250,-29.48
13:06:47.796875,-23.75
13:06:47.812500,-17.82
13:06:47.828125,-13.31
13:06:47.843750,-11.68
13:06:47.859375,-13.62
13:06:47.875000,-18.84
13:06:47.890625,-26.33
13:06:47.906250,-34.87
13:06:47.921875,-43.38
13:06:47.937500,-50.98
13:06:47.953125,-56.99
13:06:47.968750,-60.76
13:06:47.984375,-61.93
13:06:48,-60.60
13:06:48.015625,-57.57
13:06:48.031250,-54.12
13:06:48.046875,-51.61
13:06:48.062500,-50.93
13:06:48.078125,-52.05
13:06:48.093750,-54.17
13:06:48.109375,-55.97
13:06:48.125000,-56.14
13:06:48.140625,-53.76
13:06:48.156250,-48.65
13:06:48.171875,-41.36
13:06:48.187500,-32.97
13:06:48.203125,-24.86
13:06:48.218750,-18.29
13:06:48.234375,-14.16
13:06:48.250000,-12.81
13:06:48.265625,-14.01
13:06:48.281250,-17.02
13:06:48.296875,-20.84
13:06:48.312500,-24.48
13:06:48.328125,-27.05
13:06:48.343750,-27.86
13:06:48.359375,-26.52
13:06:48.375000,-22.91
13:06:48.390625,-17.26
13:06:48.406250,-10.03
13:06:48.421875,-1.72
13:06:48.437500,7.42
13:06:48.453125,17.55
13:06:48.468750,28.93
13:06:48.484375,41.55
13:06:48.500000,54.78
13:06:48.515625,67.33
13:06:48.531250,77.70
13:06:48.546875,84.62
13:06:48.562500,87.50
13:06:48.578125,86.45
13:06:48.593750,82.10
13:06:48.609375,75.56
13:06:48.625000,68.28
13:06:48.640625,62.02
13:06:48.656250,58.55
13:06:48.671875,59.03
13:06:48.687500,63.41
13:06:48.703125,70.14
13:06:48.718750,76.61
13:06:48.734375,80.23
13:06:48.750000,79.47
13:06:48.765625,74.52
13:06:48.781250,67.01
13:06:48.796875,59.26
13:06:48.812500,53.40
13:06:48.828125,50.85
13:06:48.843750,52.11
13:06:48.859375,56.72
13:06:48.875000,63.34
13:06:48.890625,70.00
13:06:48.906250,74.53
13:06:48.921875,75.38
13:06:48.937500,72.24
13:06:48.953125,66.38
13:06:48.968750,60.26
13:06:48.984375,56.45
13:06:49,56.39
13:06:49.015625,59.51
13:06:49.031250,63.01
13:06:49.046875,62.82
13:06:49.062500,54.95
13:06:49.078125,36.94
13:06:49.093750,8.76
13:06:49.109375,-27.01
13:06:49.125000,-65.89
13:06:49.140625,-102.41
13:06:49.156250,-131.61
13:06:49.171875,-150.31
13:06:49.187500,-157.93
13:06:49.203125,-156.31
13:06:49.218750,-148.73
13:06:49.234375,-138.52
13:06:49.250000,-127.80
13:06:49.265625,-117.24
13:06:49.281250,-106.56
13:06:49.296875,-95.59
13:06:49.312500,-84.93
13:06:49.328125,-75.87
13:06:49.343750,-69.52
13:06:49.359375,-65.88
13:06:49.375000,-63.64
13:06:49.390625,-60.82
13:06:49.406250,-56.19
13:06:49.421875,-50.05
13:06:49.437500,-44.11
13:06:49.453125,-40.35
13:06:49.468750,-39.48
13:06:49.484375,-40.25
13:06:49.500000,-39.88
13:06:49.515625,-35.50
13:06:49.531250,-25.68
13:06:49.546875,-11.25
13:06:49.562500,5.15
13:06:49.578125,20.27
13:06:49.593750,31.72
13:06:49.609375,38.76
13:06:49.625000,42.14
13:06:49.640625,43.27
13:06:49.656250,43.32
13:06:49.671875,42.77
13:06:49.687500,41.67
13:06:49.703125,40.24
13:06:49.718750,39.31
13:06:49.734375,40.21
13:06:49.750000,44.22
13:06:49.765625,51.74
13:06:49.781250,61.82
13:06:49.796875,72.38
13:06:49.812500,80.94
13:06:49.828125,85.66
13:06:49.843750,85.93
13:06:49.859375,82.50
13:06:49.875000,77.04
13:06:49.890625,71.43
13:06:49.906250,67.16
13:06:49.921875,64.99
13:06:49.937500,64.97
13:06:49.953125,66.56
13:06:49.968750,68.95
13:06:49.984375,71.41
13:06:50,73.47
13:06:50.015625,75.14
13:06:50.031250,76.72
13:06:50.046875,78.63
13:06:50.062500,80.98
13:06:50.078125,83.48
13:06:50.093750,85.45
13:06:50.109375,86.20
13:06:50.125000,85.38
13:06:50.140625,83.28
13:06:50.156250,80.73
13:06:50.171875,78.76
13:06:50.187500,78.32
13:06:50.203125,80.09
13:06:50.218750,84.28
13:06:50.234375,90.44
13:06:50.250000,97.33
13:06:50.265625,102.69
13:06:50.281250,103.43
13:06:50.296875,96.19
13:06:50.312500,78.51
13:06:50.328125,49.99
13:06:50.343750,12.99
13:06:50.359375,-27.69
13:06:50.375000,-66.14
13:06:50.390625,-97.11
13:06:50.406250,-117.63
13:06:50.421875,-127.56
13:06:50.437500,-129.17
13:06:50.453125,-125.92
13:06:50.468750,-121.17
13:06:50.484375,-117.36
13:06:50.500000,-115.68
13:06:50.515625,-116.05
13:06:50.531250,-117.23
13:06:50.546875,-117.07
13:06:50.562500,-113.09
13:06:50.578125,-103.44
13:06:50.593750,-87.80
13:06:50.609375,-67.89
13:06:50.625000,-47.09
13:06:50.640625,-29.12
13:06:50.656250,-16.42
13:06:50.671875,-9.31
13:06:50.687500,-6.03
13:06:50.703125,-3.88
13:06:50.718750,-0.53
13:06:50.734375,5.17
13:06:50.750000,13.22
13:06:50.765625,23.08
13:06:50.781250,34.38
13:06:50.796875,47.08
13:06:50.812500,61.20
13:06:50.828125,76.31
13:06:50.843750,91.41
13:06:50.859375,105.14
13:06:50.875000,116.34
13:06:50.890625,124.51
13:06:50.906250,130.05
13:06:50.921875,133.97
13:06:50.937500,137.34
13:06:50.953125,140.78
13:06:50.968750,144.14
13:06:50.984375,146.68
13:06:51,147.43
13:06:51.015625,145.67
13:06:51.031250,141.23
13:06:51.046875,134.54
13:06:51.062500,126.40
13:06:51.078125,117.73
13:06:51.093750,109.37
13:06:51.109375,101.93
13:06:51.125000,95.85
13:06:51.140625,91.23
13:06:51.156250,87.67
13:06:51.171875,84.15
13:06:51.187500,79.01
13:06:51.203125,70.40
13:06:51.218750,56.99
13:06:51.234375,38.79
13:06:51.250000,17.61
13:06:51.265625,-3.00
13:06:51.281250,-18.70
13:06:51.296875,-25.59
13:06:51.312500,-21.63
13:06:51.328125,-7.45
13:06:51.343750,13.66
13:06:51.359375,36.55
13:06:51.375000,55.71
13:06:51.390625,66.87
13:06:51.406250,68.22
13:06:51.421875,60.76
13:06:51.437500,47.58
13:06:51.453125,32.57
13:06:51.468750,18.79
13:06:51.484375,7.62
13:06:51.500000,-1.33
13:06:51.515625,-9.41
13:06:51.531250,-18.01
13:06:51.546875,-27.82
13:06:51.562500,-38.77
13:06:51.578125,-50.25
13:06:51.593750,-61.59
13:06:51.609375,-72.28
13:06:51.625000,-82.11
13:06:51.640625,-91.25
13:06:51.656250,-100.19
13:06:51.671875,-109.72
13:06:51.687500,-120.34
13:06:51.703125,-131.68
13:06:51.718750,-141.84
13:06:51.734375,-147.69
13:06:51.750000,-146.00
13:06:51.765625,-135.02
13:06:51.781250,-115.75
13:06:51.796875,-91.81
13:06:51.812500,-68.12
13:06:51.828125,-48.93
13:06:51.843750,-36.31
13:06:51.859375,-29.91
13:06:51.875000,-27.89
13:06:51.890625,-28.27
13:06:51.906250,-29.95
13:06:51.921875,-32.71
13:06:51.937500,-36.67
13:06:51.953125,-41.44
13:06:51.968750,-45.95
13:06:51.984375,-48.79
13:06:52,-49.02
13:06:52.015625,-46.74
13:06:52.031250,-43.07
13:06:52.046875,-39.63
13:06:52.062500,-37.75
13:06:52.078125,-37.91
13:06:52.093750,-39.59
13:06:52.109375,-41.64
13:06:52.125000,-42.84
13:06:52.140625,-42.55
13:06:52.156250,-40.92
13:06:52.171875,-38.84
13:06:52.187500,-37.49
13:06:52.203125,-37.89
13:06:52.218750,-40.36
13:06:52.234375,-44.40
13:06:52.250000,-48.72
13:06:52.265625,-51.70
13:06:52.281250,-51.92
13:06:52.296875,-48.65
13:06:52.312500,-42.09
13:06:52.328125,-33.21
13:06:52.343750,-23.39
13:06:52.359375,-13.87
13:06:52.375000,-5.35
13:06:52.390625,2.03
13:06:52.406250,8.57
13:06:52.421875,14.56
13:06:52.437500,20.12
13:06:52.453125,25.08
13:06:52.468750,29.21
13:06:52.484375,32.37
13:06:52.500000,34.73
13:06:52.515625,36.68
13:06:52.531250,38.59
13:06:52.546875,40.67
13:06:52.562500,42.84
13:06:52.578125,44.82
13:06:52.593750,46.30
13:06:52.609375,47.18
13:06:52.625000,47.55
13:06:52.640625,47.62
13:06:52.656250,47.52
13:06:52.671875,47.17
13:06:52.687500,46.27
13:06:52.703125,44.48
13:06:52.718750,41.60
13:06:52.734375,37.70
13:06:52.750000,33.19
13:06:52.765625,28.57
13:06:52.781250,24.30
13:06:52.796875,20.64
13:06:52.812500,17.63
13:06:52.828125,15.16
13:06:52.843750,13.07
13:06:52.859375,11.21
13:06:52.875000,9.49
13:06:52.890625,7.87
13:06:52.906250,6.35
13:06:52.921875,5.01
13:06:52.937500,3.93
13:06:52.953125,3.15
13:06:52.968750,2.61
13:06:52.984375,2.06
13:06:53,1.17
13:06:53.015625,-0.43
13:06:53.031250,-2.97
13:06:53.046875,-6.52
13:06:53.062500,-10.93
13:06:53.078125,-15.80
13:06:53.093750,-20.53
13:06:53.109375,-24.30
13:06:53.125000,-26.21
13:06:53.140625,-25.61
13:06:53.156250,-22.44
13:06:53.171875,-17.49
13:06:53.187500,-12.20
13:06:53.203125,-8.21
13:06:53.218750,-6.76
13:06:53.234375,-8.28
13:06:53.250000,-12.31
13:06:53.265625,-17.89
13:06:53.281250,-23.89
13:06:53.296875,-29.22
13:06:53.312500,-32.90
13:06:53.328125,-34.04
13:06:53.343750,-31.96
13:06:53.359375,-26.59
13:06:53.375000,-18.71
13:06:53.390625,-9.88
13:06:53.406250,-1.96
13:06:53.421875,3.66
13:06:53.437500,6.63
13:06:53.453125,7.77
13:06:53.468750,8.56
13:06:53.484375,10.40
13:06:53.500000,13.99
13:06:53.515625,19.12
13:06:53.531250,24.96
13:06:53.546875,30.57
13:06:53.562500,35.22
13:06:53.578125,38.76
13:06:53.593750,41.40
13:06:53.609375,43.64
13:06:53.625000,46.02
13:06:53.640625,48.98
13:06:53.656250,52.87
13:06:53.671875,57.87
13:06:53.687500,64.05
13:06:53.703125,71.44
13:06:53.718750,79.93
13:06:53.734375,89.17
13:06:53.750000,98.57
13:06:53.765625,107.22
13:06:53.781250,114.05
13:06:53.796875,117.98
13:06:53.812500,118.09
13:06:53.828125,113.67
13:06:53.843750,104.25
13:06:53.859375,89.82
13:06:53.875000,70.98
13:06:53.890625,49.18
13:06:53.906250,26.49
13:06:53.921875,5.14
13:06:53.937500,-13.21
13:06:53.953125,-28.00
13:06:53.968750,-39.79
13:06:53.984375,-49.73
13:06:54,-58.83
13:06:54.015625,-67.50
13:06:54.031250,-75.48
13:06:54.046875,-82.34
13:06:54.062500,-87.98
13:06:54.078125,-92.74
13:06:54.093750,-97.25
13:06:54.109375,-101.84
13:06:54.125000,-106.34
13:06:54.140625,-110.11
13:06:54.156250,-112.41
13:06:54.171875,-112.79
13:06:54.187500,-111.28
13:06:54.203125,-108.32
13:06:54.218750,-104.60
13:06:54.234375,-100.88
13:06:54.250000,-97.76
13:06:54.265625,-95.65
13:06:54.281250,-94.65
13:06:54.296875,-94.53
13:06:54.312500,-94.68
13:06:54.328125,-94.33
13:06:54.343750,-92.63
13:06:54.359375,-88.93
13:06:54.375000,-82.88
13:06:54.390625,-74.44
13:06:54.406250,-63.87
13:06:54.421875,-51.52
13:06:54.437500,-37.84
13:06:54.453125,-23.35
13:06:54.468750,-8.81
13:06:54.484375,4.68
13:06:54.500000,15.89
13:06:54.515625,23.63
13:06:54.531250,27.29
13:06:54.546875,27.11
13:06:54.562500,24.23
13:06:54.578125,20.27
13:06:54.593750,16.86
13:06:54.609375,15.08
13:06:54.625000,15.22
13:06:54.640625,17.01
13:06:54.656250,19.90
13:06:54.671875,23.46
13:06:54.687500,27.45
13:06:54.703125,31.72
13:06:54.718750,36.01
13:06:54.734375,39.91
13:06:54.750000,42.93
13:06:54.765625,44.76
13:06:54.781250,45.46
13:06:54.796875,45.40
13:06:54.812500,45.11
13:06:54.828125,44.99
13:06:54.843750,45.02
13:06:54.859375,44.86
13:06:54.875000,44.01
13:06:54.890625,42.25
13:06:54.906250,39.82
13:06:54.921875,37.48
13:06:54.937500,36.13
13:06:54.953125,36.44
13:06:54.968750,38.54
13:06:54.984375,41.89
13:06:55,45.48
13:06:55.015625,48.15
13:06:55.031250,48.76
13:06:55.046875,46.34
13:06:55.062500,40.19
13:06:55.078125,30.20
13:06:55.093750,17.16
13:06:55.109375,2.90
13:06:55.125000,-10.12
13:06:55.140625,-19.56
13:06:55.156250,-24.23
13:06:55.171875,-24.61
13:06:55.187500,-22.66
13:06:55.203125,-20.89
13:06:55.218750,-21.21
13:06:55.234375,-24.20
13:06:55.250000,-29.12
13:06:55.265625,-34.54
13:06:55.281250,-39.21
13:06:55.296875,-42.48
13:06:55.312500,-44.37
13:06:55.328125,-45.10
13:06:55.343750,-44.82
13:06:55.359375,-43.52
13:06:55.375000,-41.09
13:06:55.390625,-37.54
13:06:55.406250,-33.01
13:06:55.421875,-27.64
13:06:55.437500,-21.53
13:06:55.453125,-14.73
13:06:55.468750,-7.19
13:06:55.484375,1.08
13:06:55.500000,9.96
13:06:55.515625,19.07
13:06:55.531250,27.63
13:06:55.546875,34.54
13:06:55.562500,38.61
13:06:55.578125,39.13
13:06:55.593750,36.40
13:06:55.609375,31.97
13:06:55.625000,28.15
13:06:55.640625,27.26
13:06:55.656250,30.50
13:06:55.671875,37.51
13:06:55.687500,46.57
13:06:55.703125,55.47
13:06:55.718750,62.48
13:06:55.734375,66.94
13:06:55.750000,69.21
13:06:55.765625,70.07
13:06:55.781250,70.16
13:06:55.796875,69.58
13:06:55.812500,67.94
13:06:55.828125,64.61
13:06:55.843750,59.10
13:06:55.859375,51.31
13:06:55.875000,41.63
13:06:55.890625,30.84
13:06:55.906250,19.93
13:06:55.921875,9.72
13:06:55.937500,0.66
13:06:55.953125,-7.25
13:06:55.968750,-14.38
13:06:55.984375,-21.08
13:06:56,-27.37
13:06:56.015625,-32.85
13:06:56.031250,-36.93
13:06:56.046875,-39.27
13:06:56.062500,-40.15
13:06:56.078125,-40.46
13:06:56.093750,-41.43
13:06:56.109375,-44.10
13:06:56.125000,-48.91
13:06:56.140625,-55.48
13:06:56.156250,-62.75
13:06:56.171875,-69.20
13:06:56.187500,-73.14
13:06:56.203125,-72.99
13:06:56.218750,-67.65
13:06:56.234375,-56.77
13:06:56.250000,-41.09
13:06:56.265625,-22.32
13:06:56.281250,-2.85
13:06:56.296875,14.88
13:06:56.312500,29.11
13:06:56.328125,39.09
13:06:56.343750,44.95
13:06:56.359375,47.35
13:06:56.375000,46.99
13:06:56.390625,44.34
13:06:56.406250,39.59
13:06:56.421875,32.82
13:06:56.437500,24.10
13:06:56.453125,13.53
13:06:56.468750,1.18
13:06:56.484375,-12.95
13:06:56.500000,-28.82
13:06:56.515625,-46.19
13:06:56.531250,-64.46
13:06:56.546875,-82.67
13:06:56.562500,-99.65
13:06:56.578125,-114.38
13:06:56.593750,-126.30
13:06:56.609375,-135.46
13:06:56.625000,-142.54
13:06:56.640625,-148.65
13:06:56.656250,-154.94
13:06:56.671875,-162.09
13:06:56.687500,-169.93
13:06:56.703125,-177.33
13:06:56.718750,-182.52
13:06:56.734375,-183.61
13:06:56.750000,-179.21
13:06:56.765625,-168.86
13:06:56.781250,-153.10
13:06:56.796875,-133.26
13:06:56.812500,-111.00
13:06:56.828125,-87.95
13:06:56.843750,-65.45
13:06:56.859375,-44.47
13:06:56.875000,-25.64
13:06:56.890625,-9.39
13:06:56.906250,4.07
13:06:56.921875,14.68
13:06:56.937500,22.42
13:06:56.953125,27.45
13:06:56.968750,30.04
13:06:56.984375,30.58
13:06:57,29.57
13:06:57.015625,27.52
13:06:57.031250,24.88
13:06:57.046875,22.08
13:06:57.062500,19.75
13:06:57.078125,18.90
13:06:57.093750,20.88
13:06:57.109375,27.03
13:06:57.125000,38.25
13:06:57.140625,54.60
13:06:57.156250,75.22
13:06:57.171875,98.60
13:06:57.187500,123.09
13:06:57.203125,147.32
13:06:57.218750,170.33
13:06:57.234375,191.38
13:06:57.250000,209.77
13:06:57.265625,224.62
13:06:57.281250,235.01
13:06:57.296875,240.25
13:06:57.312500,240.22
13:06:57.328125,235.58
13:06:57.343750,227.68
13:06:57.359375,218.05
13:06:57.375000,207.95
13:06:57.390625,197.90
13:06:57.406250,187.56
13:06:57.421875,176.04
13:06:57.437500,162.43
13:06:57.453125,146.34
13:06:57.468750,128.15
13:06:57.484375,108.84
13:06:57.500000,89.57
13:06:57.515625,71.24
13:06:57.531250,54.28
13:06:57.546875,38.73
13:06:57.562500,24.52
13:06:57.578125,11.72
13:06:57.593750,0.53
13:06:57.609375,-8.90
13:06:57.625000,-16.71
13:06:57.640625,-23.42
13:06:57.656250,-29.75
13:06:57.671875,-36.35
13:06:57.687500,-43.53
13:06:57.703125,-51.17
13:06:57.718750,-58.83
13:06:57.734375,-65.95
13:06:57.750000,-72.07
13:06:57.765625,-76.93
13:06:57.781250,-80.49
13:06:57.796875,-82.95
13:06:57.812500,-84.66
13:06:57.828125,-86.08
13:06:57.843750,-87.61
13:06:57.859375,-89.38
13:06:57.875000,-91.02
13:06:57.890625,-91.67
13:06:57.906250,-90.22
13:06:57.921875,-85.74
13:06:57.937500,-77.93
13:06:57.953125,-67.34
13:06:57.968750,-55.15
13:06:57.984375,-42.72
13:06:58,-31.01
13:06:58.015625,-20.28
13:06:58.031250,-10.09
13:06:58.046875,0.29
13:06:58.062500,11.38
13:06:58.078125,23.09
13:06:58.093750,34.56
13:06:58.109375,44.52
13:06:58.125000,51.75
13:06:58.140625,55.65
13:06:58.156250,56.49
13:06:58.171875,55.40
13:06:58.187500,53.98
13:06:58.203125,53.83
13:06:58.218750,56.00
13:06:58.234375,60.81
13:06:58.250000,67.81
13:06:58.265625,76.07
13:06:58.281250,84.58
13:06:58.296875,92.52
13:06:58.312500,99.47
13:06:58.328125,105.33
13:06:58.343750,110.20
13:06:58.359375,114.32
13:06:58.375000,118.02
13:06:58.390625,121.79
13:06:58.406250,126.08
13:06:58.421875,131.24
13:06:58.437500,137.21
13:06:58.453125,143.57
13:06:58.468750,149.86
13:06:58.484375,156.16
13:06:58.500000,163.54
13:06:58.515625,173.75
13:06:58.531250,188.22
13:06:58.546875,206.80
13:06:58.562500,227.00
13:06:58.578125,244.41
13:06:58.593750,254.33
13:06:58.609375,253.65
13:06:58.625000,242.17
13:06:58.640625,222.47
13:06:58.656250,198.63
13:06:58.671875,174.27
13:06:58.687500,151.35
13:06:58.703125,129.93
13:06:58.718750,108.97
13:06:58.734375,87.44
13:06:58.750000,65.09
13:06:58.765625,42.40
13:06:58.781250,20.06
13:06:58.796875,-1.70
13:06:58.812500,-23.30
13:06:58.828125,-45.57
13:06:58.843750,-69.27
13:06:58.859375,-94.66
13:06:58.875000,-121.36
13:06:58.890625,-148.71
13:06:58.906250,-176.12
13:06:58.921875,-203.22
13:06:58.937500,-229.68
13:06:58.953125,-254.85
13:06:58.968750,-277.46
13:06:58.984375,-295.67
13:06:59,-307.41
13:06:59.015625,-310.88
13:06:59.031250,-304.99
13:06:59.046875,-289.51
13:06:59.062500,-265.02
13:06:59.078125,-232.73
13:06:59.093750,-194.39
13:06:59.109375,-152.23
13:06:59.125000,-108.88
13:06:59.140625,-67.17
13:06:59.156250,-29.63
13:06:59.171875,1.92
13:06:59.187500,26.68
13:06:59.203125,44.88
13:06:59.218750,57.37
13:06:59.234375,65.26
13:06:59.250000,69.45
13:06:59.265625,70.67
13:06:59.281250,69.41
13:06:59.296875,66.40
13:06:59.312500,62.68
13:06:59.328125,59.56
13:06:59.343750,58.21
13:06:59.359375,59.15
13:06:59.375000,62.02
13:06:59.390625,65.71
13:06:59.406250,68.95
13:06:59.421875,70.96
13:06:59.437500,71.87
13:06:59.453125,72.67
13:06:59.468750,74.61
13:06:59.484375,78.60
13:06:59.500000,84.71
13:06:59.515625,92.25
13:06:59.531250,99.96
13:06:59.546875,106.52
13:06:59.562500,110.72
13:06:59.578125,111.64
13:06:59.593750,108.57
13:06:59.609375,101.29
13:06:59.625000,90.32
13:06:59.640625,77.34
13:06:59.656250,65.21
13:06:59.671875,57.41
13:06:59.687500,57.02
13:06:59.703125,65.55
13:06:59.718750,82.39
13:06:59.734375,105.03
13:06:59.750000,130.17
13:06:59.765625,154.76
13:06:59.781250,176.83
13:06:59.796875,195.33
13:06:59.812500,209.62
13:06:59.828125,218.81
13:06:59.843750,221.76
13:06:59.859375,217.59
13:06:59.875000,206.40
13:06:59.890625,189.70
13:06:59.906250,170.00
13:06:59.921875,149.96
13:06:59.937500,131.44
13:06:59.953125,115.05
13:06:59.968750,100.38
13:06:59.984375,86.74
13:07:00,73.77
13:07:00.015625,61.74
13:07:00.031250,51.42
13:07:00.046875,43.59
13:07:00.062500,38.70
13:07:00.078125,36.76
13:07:00.093750,37.38
13:07:00.109375,40.12
13:07:00.125000,44.60
13:07:00.140625,50.59
13:07:00.156250,57.92
13:07:00.171875,66.27
13:07:00.187500,75.03
13:07:00.203125,83.30
13:07:00.218750,90.03
13:07:00.234375,94.17
13:07:00.250000,94.96
13:07:00.265625,92.03
13:07:00.281250,85.33
13:07:00.296875,75.03
13:07:00.312500,61.32
13:07:00.328125,44.30
13:07:00.343750,24.03
13:07:00.359375,0.64
13:07:00.375000,-25.46
13:07:00.390625,-53.45
13:07:00.406250,-82.17
13:07:00.421875,-110.33
13:07:00.437500,-136.83
13:07:00.453125,-161.05
13:07:00.468750,-182.89
13:07:00.484375,-202.67
13:07:00.500000,-220.79
13:07:00.515625,-237.49
13:07:00.531250,-252.64
13:07:00.546875,-265.91
13:07:00.562500,-276.97
13:07:00.578125,-285.94
13:07:00.593750,-293.61
13:07:00.609375,-301.35
13:07:00.625000,-310.78
13:07:00.640625,-323.15
13:07:00.656250,-338.93
13:07:00.671875,-357.64
13:07:00.687500,-378.19
13:07:00.703125,-399.22
13:07:00.718750,-419.86
13:07:00.734375,-439.87
13:07:00.750000,-459.78
13:07:00.765625,-480.69
13:07:00.781250,-504.22
13:07:00.796875,-532.19
13:07:00.812500,-566.12
13:07:00.828125,-606.22
13:07:00.843750,-650.37
13:07:00.859375,-693.64
13:07:00.875000,-729.06
13:07:00.890625,-749.45
13:07:00.906250,-749.82
13:07:00.921875,-729.12
13:07:00.937500,-690.42
13:07:00.953125,-639.52
13:07:00.968750,-582.71
13:07:00.984375,-524.85
13:07:01,-468.66
13:07:01.015625,-415.15
13:07:01.031250,-364.63
13:07:01.046875,-317.59
13:07:01.062500,-274.61
13:07:01.078125,-236.06
13:07:01.093750,-201.57
13:07:01.109375,-170.01
13:07:01.125000,-140.04
13:07:01.140625,-110.74
13:07:01.156250,-82.00
13:07:01.171875,-54.52
13:07:01.187500,-29.53
13:07:01.203125,-8.09
13:07:01.218750,9.33
13:07:01.234375,23.05
13:07:01.250000,33.85
13:07:01.265625,42.69
13:07:01.281250,50.14
13:07:01.296875,56.22
13:07:01.312500,60.37
13:07:01.328125,61.81
13:07:01.343750,59.93
13:07:01.359375,54.59
13:07:01.375000,46.24
13:07:01.390625,35.73
13:07:01.406250,24.11
13:07:01.421875,12.22
13:07:01.437500,0.61
13:07:01.453125,-10.53
13:07:01.468750,-21.19
13:07:01.484375,-31.36
13:07:01.500000,-40.88
13:07:01.515625,-49.43
13:07:01.531250,-56.60
13:07:01.546875,-62.03
13:07:01.562500,-65.59
13:07:01.578125,-67.32
13:07:01.593750,-67.47
13:07:01.609375,-66.41
13:07:01.625000,-64.44
13:07:01.640625,-61.84
13:07:01.656250,-58.75
13:07:01.671875,-55.30
13:07:01.687500,-51.53
13:07:01.703125,-47.56
13:07:01.718750,-43.49
13:07:01.734375,-39.42
13:07:01.750000,-35.40
13:07:01.765625,-31.41
13:07:01.781250,-27.37
13:07:01.796875,-23.23
13:07:01.812500,-18.94
13:07:01.828125,-14.56
13:07:01.843750,-10.21
13:07:01.859375,-6.04
13:07:01.875000,-2.14
13:07:01.890625,1.47
13:07:01.906250,4.95
13:07:01.921875,8.47
13:07:01.937500,12.22
13:07:01.953125,16.27
13:07:01.968750,20.51
13:07:01.984375,24.66
13:07:02,28.42
13:07:02.015625,31.61
13:07:02.031250,34.33
13:07:02.046875,37.00
13:07:02.062500,40.22
13:07:02.078125,44.58
13:07:02.093750,50.39
13:07:02.109375,57.60
13:07:02.125000,65.81
13:07:02.140625,74.44
13:07:02.156250,83.06
13:07:02.171875,91.59
13:07:02.187500,100.33
13:07:02.203125,109.79
13:07:02.218750,120.33
13:07:02.234375,131.86
13:07:02.250000,143.73
13:07:02.265625,154.86
13:07:02.281250,164.20
13:07:02.296875,171.10
13:07:02.312500,175.65
13:07:02.328125,178.65
13:07:02.343750,181.35
13:07:02.359375,185.21
13:07:02.375000,191.65
13:07:02.390625,201.85
13:07:02.406250,216.35
13:07:02.421875,234.52
13:07:02.437500,254.21
13:07:02.453125,271.89
13:07:02.468750,283.59
13:07:02.484375,286.23
13:07:02.500000,278.92
13:07:02.515625,263.42
13:07:02.531250,243.41
13:07:02.546875,223.08
13:07:02.562500,205.47
13:07:02.578125,191.73
13:07:02.593750,181.32
13:07:02.609375,173.05
13:07:02.625000,166.13
13:07:02.640625,160.65
13:07:02.656250,157.18
13:07:02.671875,156.10
13:07:02.687500,156.98
13:07:02.703125,158.62
13:07:02.718750,159.58
13:07:02.734375,158.92
13:07:02.750000,156.62
13:07:02.765625,153.56
13:07:02.781250,150.96
13:07:02.796875,149.79
13:07:02.812500,150.33
13:07:02.828125,152.02
13:07:02.843750,153.90
13:07:02.859375,154.96
13:07:02.875000,154.66
13:07:02.890625,153.01
13:07:02.906250,150.57
13:07:02.921875,148.04
13:07:02.937500,145.98
13:07:02.953125,144.50
13:07:02.968750,143.19
13:07:02.984375,141.33
13:07:03,138.17
13:07:03.015625,133.24
13:07:03.031250,126.55
13:07:03.046875,118.55
13:07:03.062500,109.96
13:07:03.078125,101.52
13:07:03.093750,93.83
13:07:03.109375,87.23
13:07:03.125000,81.81
13:07:03.140625,77.46
13:07:03.156250,73.89
13:07:03.171875,70.79
13:07:03.187500,67.83
13:07:03.203125,64.72
13:07:03.218750,61.25
13:07:03.234375,57.23
13:07:03.250000,52.58
13:07:03.265625,47.40
13:07:03.281250,41.98
13:07:03.296875,36.74
13:07:03.312500,32.18
13:07:03.328125,28.57
13:07:03.343750,25.92
13:07:03.359375,24.03
13:07:03.375000,22.74
13:07:03.390625,22.24
13:07:03.406250,23.20
13:07:03.421875,26.60
13:07:03.437500,33.34
13:07:03.453125,43.73
13:07:03.468750,57.10
13:07:03.484375,71.75
13:07:03.500000,85.20
13:07:03.515625,94.75
13:07:03.531250,98.03
13:07:03.546875,93.54
13:07:03.562500,80.86
13:07:03.578125,60.71
13:07:03.593750,34.75
13:07:03.609375,5.36
13:07:03.625000,-24.86
13:07:03.640625,-53.33
13:07:03.656250,-77.84
13:07:03.671875,-96.84
13:07:03.687500,-109.58
13:07:03.703125,-116.20
13:07:03.718750,-117.69
13:07:03.734375,-115.53
13:07:03.750000,-111.32
13:07:03.765625,-106.25
13:07:03.781250,-100.83
13:07:03.796875,-94.92
13:07:03.812500,-88.12
13:07:03.828125,-80.18
13:07:03.843750,-71.31
13:07:03.859375,-62.29
13:07:03.875000,-54.08
13:07:03.890625,-47.49
13:07:03.906250,-42.86
13:07:03.921875,-39.98
13:07:03.937500,-38.29
13:07:03.953125,-37.13
13:07:03.968750,-35.88
13:07:03.984375,-34.11
13:07:04,-31.54
13:07:04.015625,-28.04
13:07:04.031250,-23.72
13:07:04.046875,-18.97
13:07:04.062500,-14.45
13:07:04.078125,-10.94
13:07:04.093750,-9.03
13:07:04.109375,-8.90
13:07:04.125000,-10.22
13:07:04.140625,-12.24
13:07:04.156250,-14.11
13:07:04.171875,-15.28
13:07:04.187500,-15.75
13:07:04.203125,-16.13
13:07:04.218750,-17.25
13:07:04.234375,-19.72
13:07:04.250000,-23.41
13:07:04.265625,-27.28
13:07:04.281250,-29.65
13:07:04.296875,-28.79
13:07:04.312500,-23.56
13:07:04.328125,-13.83
13:07:04.343750,-0.56
13:07:04.359375,14.68
13:07:04.375000,30.24
13:07:04.390625,44.92
13:07:04.406250,58.19
13:07:04.421875,70.03
13:07:04.437500,80.63
13:07:04.453125,90.05
13:07:04.468750,98.17
13:07:04.484375,104.73
13:07:04.500000,109.80
13:07:04.515625,113.87
13:07:04.531250,117.87
13:07:04.546875,122.68
13:07:04.562500,128.51
13:07:04.578125,134.47
13:07:04.593750,138.80
13:07:04.609375,139.55
13:07:04.625000,135.62
13:07:04.640625,127.26
13:07:04.656250,116.05
13:07:04.671875,103.84
13:07:04.687500,91.89
13:07:04.703125,80.43
13:07:04.718750,69.13
13:07:04.734375,58.09
13:07:04.750000,48.32
13:07:04.765625,41.38
13:07:04.781250,38.10
13:07:04.796875,37.43
13:07:04.812500,36.31
13:07:04.828125,30.98
13:07:04.843750,18.99
13:07:04.859375,0.67
13:07:04.875000,-20.79
13:07:04.890625,-40.92
13:07:04.906250,-56.09
13:07:04.921875,-65.05
13:07:04.937500,-68.99
13:07:04.953125,-70.35
13:07:04.968750,-71.19
13:07:04.984375,-72.20
13:07:05,-72.78
13:07:05.015625,-71.91
13:07:05.031250,-69.11
13:07:05.046875,-64.88
13:07:05.062500,-60.42
13:07:05.078125,-57.04
13:07:05.093750,-55.52
13:07:05.109375,-55.89
13:07:05.125000,-57.62
13:07:05.140625,-60.00
13:07:05.156250,-62.48
13:07:05.171875,-64.80
13:07:05.187500,-66.82
13:07:05.203125,-68.23
13:07:05.218750,-68.33
13:07:05.234375,-66.11
13:07:05.250000,-60.57
13:07:05.265625,-51.11
13:07:05.281250,-37.93
13:07:05.296875,-22.03
13:07:05.312500,-5.03
13:07:05.328125,11.34
13:07:05.343750,25.77
13:07:05.359375,37.78
13:07:05.375000,47.67
13:07:05.390625,55.96
13:07:05.406250,62.67
13:07:05.421875,66.96
13:07:05.437500,67.34
13:07:05.453125,62.62
13:07:05.468750,52.84
13:07:05.484375,39.71
13:07:05.500000,26.21
13:07:05.515625,15.40
13:07:05.531250,9.21
13:07:05.546875,7.91
13:07:05.562500,10.42
13:07:05.578125,15.20
13:07:05.593750,21.17
13:07:05.609375,27.89
13:07:05.625000,35.23
13:07:05.640625,42.75
13:07:05.656250,49.46
13:07:05.671875,54.01
13:07:05.687500,55.37
13:07:05.703125,53.28
13:07:05.718750,48.29
13:07:05.734375,41.50
13:07:05.750000,34.08
13:07:05.765625,26.91
13:07:05.781250,20.46
13:07:05.796875,14.93
13:07:05.812500,10.33
13:07:05.828125,6.64
13:07:05.843750,3.86
13:07:05.859375,2.04
13:07:05.875000,1.29
13:07:05.890625,1.72
13:07:05.906250,3.35
13:07:05.921875,6.03
13:07:05.937500,9.29
13:07:05.953125,12.52
13:07:05.968750,15.08
13:07:05.984375,16.51
13:07:06,16.73
13:07:06.015625,15.95
13:07:06.031250,14.51
13:07:06.046875,12.75
13:07:06.062500,10.87
13:07:06.078125,8.99
13:07:06.093750,7.27
13:07:06.109375,5.91
13:07:06.125000,5.19
13:07:06.140625,5.30
13:07:06.156250,6.33
13:07:06.171875,8.25
13:07:06.187500,10.95
13:07:06.203125,14.22
13:07:06.218750,17.62
13:07:06.234375,20.40
13:07:06.250000,21.52
13:07:06.265625,19.84
13:07:06.281250,14.57
13:07:06.296875,5.63
13:07:06.312500,-6.02
13:07:06.328125,-18.54
13:07:06.343750,-29.58
13:07:06.359375,-37.13
13:07:06.375000,-40.15
13:07:06.390625,-39.00
13:07:06.406250,-35.21
13:07:06.421875,-30.82
13:07:06.437500,-27.60
13:07:06.453125,-26.35
13:07:06.468750,-26.83
13:07:06.484375,-28.04
13:07:06.500000,-28.90
13:07:06.515625,-28.75
13:07:06.531250,-27.52
13:07:06.546875,-25.53
13:07:06.562500,-23.14
13:07:06.578125,-20.48
13:07:06.593750,-17.46
13:07:06.609375,-13.90
13:07:06.625000,-9.85
13:07:06.640625,-5.64
13:07:06.656250,-1.78
13:07:06.671875,1.18
13:07:06.687500,2.89
13:07:06.703125,3.29
13:07:06.718750,2.57
13:07:06.734375,1.02
13:07:06.750000,-1.09
13:07:06.765625,-3.69
13:07:06.781250,-6.83
13:07:06.796875,-10.64
13:07:06.812500,-15.15
13:07:06.828125,-20.30
13:07:06.843750,-25.88
13:07:06.859375,-31.67
13:07:06.875000,-37.45
13:07:06.890625,-42.95
13:07:06.906250,-47.85
13:07:06.921875,-51.67
13:07:06.937500,-53.99
13:07:06.953125,-54.53
13:07:06.968750,-53.40
13:07:06.984375,-51.03
13:07:07,-48.02
13:07:07.015625,-44.93
13:07:07.031250,-42.02
13:07:07.046875,-39.29
13:07:07.062500,-36.58
13:07:07.078125,-33.80
13:07:07.093750,-31.03
13:07:07.109375,-28.45
13:07:07.125000,-26.22
13:07:07.140625,-24.30
13:07:07.156250,-22.42
13:07:07.171875,-20.15
13:07:07.187500,-17.07
13:07:07.203125,-12.81
13:07:07.218750,-7.05
13:07:07.234375,0.44
13:07:07.250000,9.88
13:07:07.265625,21.36
13:07:07.281250,34.78
13:07:07.296875,49.79
13:07:07.312500,65.75
13:07:07.328125,81.85
13:07:07.343750,97.30
13:07:07.359375,111.48
13:07:07.375000,123.97
13:07:07.390625,134.50
13:07:07.406250,142.89
13:07:07.421875,148.98
13:07:07.437500,152.60
13:07:07.453125,153.74
13:07:07.468750,152.53
13:07:07.484375,149.22
13:07:07.500000,144.07
13:07:07.515625,137.20
13:07:07.531250,128.56
13:07:07.546875,117.99
13:07:07.562500,105.43
13:07:07.578125,91.05
13:07:07.593750,75.30
13:07:07.609375,58.87
13:07:07.625000,42.44
13:07:07.640625,26.61
13:07:07.656250,11.74
13:07:07.671875,-1.99
13:07:07.687500,-14.59
13:07:07.703125,-26.15
13:07:07.718750,-36.85
13:07:07.734375,-46.81
13:07:07.750000,-55.95
13:07:07.765625,-63.95
13:07:07.781250,-70.14
13:07:07.796875,-73.77
13:07:07.812500,-74.18
13:07:07.828125,-71.16
13:07:07.843750,-65.10
13:07:07.859375,-56.90
13:07:07.875000,-47.69
13:07:07.890625,-38.56
13:07:07.906250,-30.25
13:07:07.921875,-23.10
13:07:07.937500,-17.20
13:07:07.953125,-12.42
13:07:07.968750,-8.63
13:07:07.984375,-5.63
13:07:08,-3.20
13:07:08.015625,-1.24
13:07:08.031250,0.09
13:07:08.046875,0.21
13:07:08.062500,-1.77
13:07:08.078125,-6.61
13:07:08.093750,-14.46
13:07:08.109375,-24.53
13:07:08.125000,-35.21
13:07:08.140625,-44.65
13:07:08.156250,-51.52
13:07:08.171875,-55.51
13:07:08.187500,-57.35
13:07:08.203125,-58.30
13:07:08.218750,-59.44
13:07:08.234375,-61.10
13:07:08.250000,-62.80
13:07:08.265625,-63.60
13:07:08.281250,-62.70
13:07:08.296875,-59.93
13:07:08.312500,-55.91
13:07:08.328125,-51.77
13:07:08.343750,-48.64
13:07:08.359375,-47.14
13:07:08.375000,-47.13
13:07:08.390625,-47.87
13:07:08.406250,-48.40
13:07:08.421875,-48.04
13:07:08.437500,-46.69
13:07:08.453125,-44.75
13:07:08.468750,-42.76
13:07:08.484375,-41.05
13:07:08.500000,-39.59
13:07:08.515625,-38.09
13:07:08.531250,-36.33
13:07:08.546875,-34.37
13:07:08.562500,-32.64
13:07:08.578125,-31.66
13:07:08.593750,-31.84
13:07:08.609375,-33.29
13:07:08.625000,-35.75
13:07:08.640625,-38.71
13:07:08.656250,-41.49
13:07:08.671875,-43.41
13:07:08.687500,-43.83
13:07:08.703125,-42.28
13:07:08.718750,-38.58
13:07:08.734375,-32.84
13:07:08.750000,-25.40
13:07:08.765625,-16.63
13:07:08.781250,-6.77
13:07:08.796875,4.16
13:07:08.812500,16.22
13:07:08.828125,29.31
13:07:08.843750,43.03
13:07:08.859375,56.73
13:07:08.875000,69.56
13:07:08.890625,80.77
13:07:08.906250,89.88
13:07:08.921875,96.89
13:07:08.937500,102.36
13:07:08.953125,107.29
13:07:08.968750,112.83
13:07:08.984375,119.84
13:07:09,128.59
13:07:09.015625,138.60
13:07:09.031250,148.86
13:07:09.046875,158.30
13:07:09.062500,166.15
13:07:09.078125,172.21
13:07:09.093750,176.60
13:07:09.109375,179.44
13:07:09.125000,180.49
13:07:09.140625,179.15
13:07:09.156250,174.69
13:07:09.171875,166.72
13:07:09.187500,155.43
13:07:09.203125,141.57
13:07:09.218750,126.10
13:07:09.234375,109.81
13:07:09.250000,93.05
13:07:09.265625,75.79
13:07:09.281250,57.81
13:07:09.296875,39.06
13:07:09.312500,19.98
13:07:09.328125,1.41
13:07:09.343750,-15.56
13:07:09.359375,-29.88
13:07:09.375000,-40.79
13:07:09.390625,-47.96
13:07:09.406250,-51.43
13:07:09.421875,-51.65
13:07:09.437500,-49.39
13:07:09.453125,-45.80
13:07:09.468750,-42.35
13:07:09.484375,-40.54
13:07:09.500000,-41.68
13:07:09.515625,-46.43
13:07:09.531250,-54.74
13:07:09.546875,-65.80
13:07:09.562500,-78.36
13:07:09.578125,-91.06
13:07:09.593750,-102.68
13:07:09.609375,-112.20
13:07:09.625000,-118.80
13:07:09.640625,-121.85
13:07:09.656250,-120.87
13:07:09.671875,-115.74
13:07:09.687500,-106.85
13:07:09.703125,-95.17
13:07:09.718750,-82.11
13:07:09.734375,-69.16
13:07:09.750000,-57.48
13:07:09.765625,-47.63
13:07:09.781250,-39.54
13:07:09.796875,-32.82
13:07:09.812500,-27.09
13:07:09.828125,-22.21
13:07:09.843750,-18.35
13:07:09.859375,-15.83
13:07:09.875000,-14.77
13:07:09.890625,-15.06
13:07:09.906250,-16.26
13:07:09.921875,-17.84
13:07:09.937500,-19.22
13:07:09.953125,-19.97
13:07:09.968750,-19.76
13:07:09.984375,-18.30
13:07:10,-15.38
13:07:10.015625,-10.89
13:07:10.031250,-4.97
13:07:10.046875,1.88
13:07:10.062500,8.81
13:07:10.078125,14.79
13:07:10.093750,18.95
13:07:10.109375,20.92
13:07:10.125000,21.05
13:07:10.140625,20.26
13:07:10.156250,19.66
13:07:10.171875,19.95
13:07:10.187500,21.13
13:07:10.203125,22.40
13:07:10.218750,22.64
13:07:10.234375,20.90
13:07:10.250000,16.89
13:07:10.265625,11.01
13:07:10.281250,4.06
13:07:10.296875,-3.15
13:07:10.312500,-10.18
13:07:10.328125,-16.92
13:07:10.343750,-23.41
13:07:10.359375,-29.45
13:07:10.375000,-34.45
13:07:10.390625,-37.52
13:07:10.406250,-37.82
13:07:10.421875,-35.01
13:07:10.437500,-29.55
13:07:10.453125,-22.66
13:07:10.468750,-15.98
13:07:10.484375,-11.06
13:07:10.500000,-8.80
13:07:10.515625,-9.26
13:07:10.531250,-11.66
13:07:10.546875,-14.80
13:07:10.562500,-17.40
13:07:10.578125,-18.49
13:07:10.593750,-17.45
13:07:10.609375,-14.04
13:07:10.625000,-8.33
13:07:10.640625,-0.52
13:07:10.656250,8.99
13:07:10.671875,19.79
13:07:10.687500,31.47
13:07:10.703125,43.77
13:07:10.718750,56.47
13:07:10.734375,69.33
13:07:10.750000,81.85
13:07:10.765625,93.18
13:07:10.781250,102.18
13:07:10.796875,107.68
13:07:10.812500,108.73
13:07:10.828125,104.83
13:07:10.843750,95.95
13:07:10.859375,82.41
13:07:10.875000,64.65
13:07:10.890625,43.31
13:07:10.906250,19.20
13:07:10.921875,-6.56
13:07:10.937500,-32.52
13:07:10.953125,-57.11
13:07:10.968750,-78.96
13:07:10.984375,-97.11
13:07:11,-111.24
13:07:11.015625,-121.63
13:07:11.031250,-128.93
13:07:11.046875,-134.02
13:07:11.062500,-137.75
13:07:11.078125,-140.84
13:07:11.093750,-143.84
13:07:11.109375,-146.98
13:07:11.125000,-150.15
13:07:11.140625,-152.91
13:07:11.156250,-154.57
13:07:11.171875,-154.42
13:07:11.187500,-151.94
13:07:11.203125,-147.16
13:07:11.218750,-140.68
13:07:11.234375,-133.62
13:07:11.250000,-127.18
13:07:11.265625,-122.17
13:07:11.281250,-118.56
13:07:11.296875,-115.54
13:07:11.312500,-111.79
13:07:11.328125,-106.12
13:07:11.343750,-97.94
13:07:11.359375,-87.49
13:07:11.375000,-75.62
13:07:11.390625,-63.43
13:07:11.406250,-51.96
13:07:11.421875,-42.01
13:07:11.437500,-34.09
13:07:11.453125,-28.45
13:07:11.468750,-24.92
13:07:11.484375,-22.79
13:07:11.500000,-20.81
13:07:11.515625,-17.54
13:07:11.531250,-11.90
13:07:11.546875,-3.43
13:07:11.562500,7.44
13:07:11.578125,19.83
13:07:11.593750,32.72
13:07:11.609375,45.29
13:07:11.625000,57.04
13:07:11.640625,67.65
13:07:11.656250,76.92
13:07:11.671875,84.74
13:07:11.687500,91.14
13:07:11.703125,96.28
13:07:11.718750,100.39
13:07:11.734375,103.62
13:07:11.750000,105.93
13:07:11.765625,107.14
13:07:11.781250,107.10
13:07:11.796875,105.76
13:07:11.812500,103.21
13:07:11.828125,99.64
13:07:11.843750,95.20
13:07:11.859375,90.05
13:07:11.875000,84.41
13:07:11.890625,78.56
13:07:11.906250,72.81
13:07:11.921875,67.35
13:07:11.937500,62.29
13:07:11.953125,57.63
13:07:11.968750,53.39
13:07:11.984375,49.60
13:07:12,46.32
13:07:12.015625,43.50
13:07:12.031250,40.92
13:07:12.046875,38.30
13:07:12.062500,35.36
13:07:12.078125,32.13
13:07:12.093750,28.80
13:07:12.109375,25.79
13:07:12.125000,23.40
13:07:12.140625,21.78
13:07:12.156250,20.79
13:07:12.171875,20.14
13:07:12.187500,19.52
13:07:12.203125,18.70
13:07:12.218750,17.52
13:07:12.234375,15.87
13:07:12.250000,13.70
13:07:12.265625,10.97
13:07:12.281250,7.74
13:07:12.296875,4.20
13:07:12.312500,0.60
13:07:12.328125,-2.76
13:07:12.343750,-5.69
13:07:12.359375,-8.13
13:07:12.375000,-10.14
13:07:12.390625,-11.90
13:07:12.406250,-13.68
13:07:12.421875,-15.72
13:07:12.437500,-18.21
13:07:12.453125,-21.23
13:07:12.468750,-24.64
13:07:12.484375,-28.06
13:07:12.500000,-30.87
13:07:12.515625,-32.31
13:07:12.531250,-31.71
13:07:12.546875,-28.73
13:07:12.562500,-23.51
13:07:12.578125,-16.64
13:07:12.593750,-9.02
13:07:12.609375,-1.59
13:07:12.625000,4.80
13:07:12.640625,9.53
13:07:12.656250,12.20
13:07:12.671875,12.57
13:07:12.687500,10.52
13:07:12.703125,6.20
13:07:12.718750,0.03
13:07:12.734375,-7.23
13:07:12.750000,-14.55
13:07:12.765625,-20.90
13:07:12.781250,-25.48
13:07:12.796875,-27.89
13:07:12.812500,-28.19
13:07:12.828125,-26.73
13:07:12.843750,-23.94
13:07:12.859375,-20.23
13:07:12.875000,-15.88
13:07:12.890625,-11.15
13:07:12.906250,-6.32
13:07:12.921875,-1.73
13:07:12.937500,2.27
13:07:12.953125,5.45
13:07:12.968750,7.81
13:07:12.984375,9.59
13:07:13,11.21
13:07:13.015625,13.14
13:07:13.031250,15.77
13:07:13.046875,19.25
13:07:13.062500,23.42
13:07:13.078125,27.77
13:07:13.093750,31.49
13:07:13.109375,33.71
13:07:13.125000,33.73
13:07:13.140625,31.14
13:07:13.156250,26.01
13:07:13.171875,18.75
13:07:13.187500,10.04
13:07:13.203125,0.64
13:07:13.218750,-8.71
13:07:13.234375,-17.38
13:07:13.250000,-24.91
13:07:13.265625,-31.11
13:07:13.281250,-36.20
13:07:13.296875,-40.76
13:07:13.312500,-45.65
13:07:13.328125,-51.62
13:07:13.343750,-59.03
13:07:13.359375,-67.64
13:07:13.375000,-76.73
13:07:13.390625,-85.39
13:07:13.406250,-92.86
13:07:13.421875,-98.72
13:07:13.437500,-102.78
13:07:13.453125,-104.98
13:07:13.468750,-105.16
13:07:13.484375,-103.18
13:07:13.500000,-99.11
13:07:13.515625,-93.37
13:07:13.531250,-86.77
13:07:13.546875,-80.29
13:07:13.562500,-74.72
13:07:13.578125,-70.40
13:07:13.593750,-67.17
13:07:13.609375,-64.57
13:07:13.625000,-62.05
13:07:13.640625,-59.19
13:07:13.656250,-55.80
13:07:13.671875,-51.86
13:07:13.687500,-47.41
13:07:13.703125,-42.51
13:07:13.718750,-37.18
13:07:13.734375,-31.36
13:07:13.750000,-24.98
13:07:13.765625,-17.90
13:07:13.781250,-10.03
13:07:13.796875,-1.31
13:07:13.812500,8.19
13:07:13.828125,18.22
13:07:13.843750,28.39
13:07:13.859375,38.14
13:07:13.875000,46.76
13:07:13.890625,53.30
13:07:13.906250,56.76
13:07:13.921875,56.27
13:07:13.937500,51.63
13:07:13.953125,43.73
13:07:13.968750,34.57
13:07:13.984375,26.82
13:07:14,22.77
13:07:14.015625,23.40
13:07:14.031250,27.87
13:07:14.046875,33.80
13:07:14.062500,38.20
13:07:14.078125,38.66
13:07:14.093750,34.09
13:07:14.109375,24.85
13:07:14.125000,12.25
13:07:14.140625,-2.14
13:07:14.156250,-17.03
13:07:14.171875,-31.51
13:07:14.187500,-44.84
13:07:14.203125,-56.21
13:07:14.218750,-64.61
13:07:14.234375,-69.02
13:07:14.250000,-68.62
13:07:14.265625,-63.27
13:07:14.281250,-53.59
13:07:14.296875,-40.96
13:07:14.312500,-27.07
13:07:14.328125,-13.40
13:07:14.343750,-0.83
13:07:14.359375,10.49
13:07:14.375000,20.84
13:07:14.390625,30.45
13:07:14.406250,39.18
13:07:14.421875,46.52
13:07:14.437500,51.84
13:07:14.453125,54.86
13:07:14.468750,55.93
13:07:14.484375,55.91
13:07:14.500000,55.85
13:07:14.515625,56.48
13:07:14.531250,58.01
13:07:14.546875,60.07
13:07:14.562500,61.95
13:07:14.578125,62.92
13:07:14.593750,62.49
13:07:14.609375,60.41
13:07:14.625000,56.68
13:07:14.640625,51.32
13:07:14.656250,44.43
13:07:14.671875,36.16
13:07:14.687500,26.90
13:07:14.703125,17.22
13:07:14.718750,7.89
13:07:14.734375,-0.33
13:07:14.750000,-6.88
13:07:14.765625,-11.60
13:07:14.781250,-14.70
13:07:14.796875,-16.73
13:07:14.812500,-18.27
13:07:14.828125,-19.82
13:07:14.843750,-21.58
13:07:14.859375,-23.51
13:07:14.875000,-25.37
13:07:14.890625,-26.84
13:07:14.906250,-27.58
13:07:14.921875,-27.39
13:07:14.937500,-26.19
13:07:14.953125,-24.09
13:07:14.968750,-21.28
13:07:14.984375,-17.95
13:07:15,-14.22
13:07:15.015625,-10.09
13:07:15.031250,-5.52
13:07:15.046875,-0.55
13:07:15.062500,4.67
13:07:15.078125,9.82
13:07:15.093750,14.59
13:07:15.109375,18.75
13:07:15.125000,22.34
13:07:15.140625,25.69
13:07:15.156250,29.32
13:07:15.171875,33.82
13:07:15.187500,39.64
13:07:15.203125,46.98
13:07:15.218750,55.64
13:07:15.234375,64.95
13:07:15.250000,73.86
13:07:15.265625,81.08
13:07:15.281250,85.40
13:07:15.296875,86.04
13:07:15.312500,82.85
13:07:15.328125,76.31
13:07:15.343750,67.33
13:07:15.359375,56.96
13:07:15.375000,46.07
13:07:15.390625,35.20
13:07:15.406250,24.45
13:07:15.421875,13.50
13:07:15.437500,1.85
13:07:15.453125,-10.91
13:07:15.468750,-24.75
13:07:15.484375,-39.18
13:07:15.500000,-53.26
13:07:15.515625,-65.93
13:07:15.531250,-76.41
13:07:15.546875,-84.34
13:07:15.562500,-89.74
13:07:15.578125,-92.80
13:07:15.593750,-93.68
13:07:15.609375,-92.45
13:07:15.625000,-89.26
13:07:15.640625,-84.42
13:07:15.656250,-78.49
13:07:15.671875,-71.96
13:07:15.687500,-65.08
13:07:15.703125,-57.62
13:07:15.718750,-49.02
13:07:15.734375,-38.73
13:07:15.750000,-26.59
13:07:15.765625,-13.01
13:07:15.781250,1.19
13:07:15.796875,15.07
13:07:15.812500,27.94
13:07:15.828125,39.51
13:07:15.843750,49.81
13:07:15.859375,58.90
13:07:15.875000,66.70
13:07:15.890625,72.83
13:07:15.906250,76.71
13:07:15.921875,77.78
13:07:15.937500,75.75
13:07:15.953125,70.75
13:07:15.968750,63.43
13:07:15.984375,54.81
13:07:16,46.15
13:07:16.015625,38.64
13:07:16.031250,33.10
13:07:16.046875,29.77
13:07:16.062500,28.28
13:07:16.078125,27.77
13:07:16.093750,27.14
13:07:16.109375,25.43
13:07:16.125000,22.02
13:07:16.140625,16.72
13:07:16.156250,9.68
13:07:16.171875,1.21
13:07:16.187500,-8.46
13:07:16.203125,-19.19
13:07:16.218750,-31.04
13:07:16.234375,-44.08
13:07:16.250000,-58.24
13:07:16.265625,-73.13
13:07:16.281250,-88.05
13:07:16.296875,-101.96
13:07:16.312500,-113.78
13:07:16.328125,-122.59
13:07:16.343750,-127.96
13:07:16.359375,-129.97
13:07:16.375000,-129.23
13:07:16.390625,-126.63
13:07:16.406250,-123.09
13:07:16.421875,-119.32
13:07:16.437500,-115.68
13:07:16.453125,-112.18
13:07:16.468750,-108.57
13:07:16.484375,-104.46
13:07:16.500000,-99.50
13:07:16.515625,-93.42
13:07:16.531250,-86.15
13:07:16.546875,-77.77
13:07:16.562500,-68.60
13:07:16.578125,-59.01
13:07:16.593750,-49.42
13:07:16.609375,-40.09
13:07:16.625000,-31.17
13:07:16.640625,-22.58
13:07:16.656250,-14.26
13:07:16.671875,-6.18
13:07:16.687500,1.50
13:07:16.703125,8.40
13:07:16.718750,14.05
13:07:16.734375,17.99
13:07:16.750000,19.97
13:07:16.765625,20.05
13:07:16.781250,18.69
13:07:16.796875,16.64
13:07:16.812500,14.90
13:07:16.828125,14.50
13:07:16.843750,16.26
13:07:16.859375,20.60
13:07:16.875000,27.39
13:07:16.890625,35.96
13:07:16.906250,45.27
13:07:16.921875,54.20
13:07:16.937500,61.87
13:07:16.953125,67.83
13:07:16.968750,72.11
13:07:16.984375,75.09
13:07:17,77.22
13:07:17.015625,78.86
13:07:17.031250,80.12
13:07:17.046875,80.87
13:07:17.062500,80.90
13:07:17.078125,80.01
13:07:17.093750,78.15
13:07:17.109375,75.46
13:07:17.125000,72.12
13:07:17.140625,68.35
13:07:17.156250,64.34
13:07:17.171875,60.25
13:07:17.187500,56.16
13:07:17.203125,52.06
13:07:17.218750,47.72
13:07:17.234375,42.73
13:07:17.250000,36.66
13:07:17.265625,29.34
13:07:17.281250,21.12
13:07:17.296875,12.85
13:07:17.312500,5.63
13:07:17.328125,0.29
13:07:17.343750,-2.95
13:07:17.359375,-4.50
13:07:17.375000,-5.07
13:07:17.390625,-5.27
13:07:17.406250,-5.27
13:07:17.421875,-4.91
13:07:17.437500,-4.05
13:07:17.453125,-2.79
13:07:17.468750,-1.56
13:07:17.484375,-0.74
13:07:17.500000,-0.45
13:07:17.515625,-0.38
13:07:17.531250,-0.11
13:07:17.546875,0.52
13:07:17.562500,1.18
13:07:17.578125,1.15
13:07:17.593750,-0.35
13:07:17.609375,-3.64
13:07:17.625000,-8.51
13:07:17.640625,-14.31
13:07:17.656250,-20.36
13:07:17.671875,-26.24
13:07:17.687500,-31.82
13:07:17.703125,-37.00
13:07:17.718750,-41.47
13:07:17.734375,-44.57
13:07:17.750000,-45.48
13:07:17.765625,-43.60
13:07:17.781250,-38.90
13:07:17.796875,-32.03
13:07:17.812500,-24.09
13:07:17.828125,-16.26
13:07:17.843750,-9.40
13:07:17.859375,-3.80
13:07:17.875000,0.68
13:07:17.890625,4.43
13:07:17.906250,7.77
13:07:17.921875,10.83
13:07:17.937500,13.55
13:07:17.953125,15.79
13:07:17.968750,17.47
13:07:17.984375,18.62
13:07:18,19.40
13:07:18.015625,19.99
13:07:18.031250,20.50
13:07:18.046875,20.93
13:07:18.062500,21.19
13:07:18.078125,21.19
13:07:18.093750,20.89
13:07:18.109375,20.42
13:07:18.125000,19.97
13:07:18.140625,19.76
13:07:18.156250,19.89
13:07:18.171875,20.26
13:07:18.187500,20.66
13:07:18.203125,20.84
13:07:18.218750,20.65
13:07:18.234375,20.08
13:07:18.250000,19.27
13:07:18.265625,18.42
13:07:18.281250,17.67
13:07:18.296875,17.08
13:07:18.312500,16.62
13:07:18.328125,16.19
13:07:18.343750,15.65
13:07:18.359375,14.88
13:07:18.375000,13.80
13:07:18.390625,12.35
13:07:18.406250,10.61
13:07:18.421875,8.71
13:07:18.437500,6.84
13:07:18.453125,5.11
13:07:18.468750,3.56
13:07:18.484375,2.09
13:07:18.500000,0.61
13:07:18.515625,-0.94
13:07:18.531250,-2.52
13:07:18.546875,-4.04
13:07:18.562500,-5.42
13:07:18.578125,-6.73
13:07:18.593750,-8.15
13:07:18.609375,-9.96
13:07:18.625000,-12.38
13:07:18.640625,-15.53
13:07:18.656250,-19.30
13:07:18.671875,-23.44
13:07:18.687500,-27.53
13:07:18.703125,-31.05
13:07:18.718750,-33.47
13:07:18.734375,-34.28
13:07:18.750000,-33.18
13:07:18.765625,-30.17
13:07:18.781250,-25.67
13:07:18.796875,-20.33
13:07:18.812500,-14.94
13:07:18.828125,-10.07
13:07:18.843750,-5.96
13:07:18.859375,-2.50
13:07:18.875000,0.62
13:07:18.890625,3.67
13:07:18.906250,6.74
13:07:18.921875,9.75
13:07:18.937500,12.47
13:07:18.953125,14.74
13:07:18.968750,16.48
13:07:18.984375,17.75
13:07:19,18.63
13:07:19.015625,19.19
13:07:19.031250,19.46
13:07:19.046875,19.49
13:07:19.062500,19.37
13:07:19.078125,19.21
13:07:19.093750,19.13
13:07:19.109375,19.18
13:07:19.125000,19.31
13:07:19.140625,19.44
13:07:19.156250,19.43
13:07:19.171875,19.18
13:07:19.187500,18.67
13:07:19.203125,17.90
13:07:19.218750,16.92
13:07:19.234375,15.84
13:07:19.250000,14.77
13:07:19.265625,13.84
13:07:19.281250,13.13
13:07:19.296875,12.63
13:07:19.312500,12.22
13:07:19.328125,11.70
13:07:19.343750,10.90
13:07:19.359375,9.70
13:07:19.375000,8.17
13:07:19.390625,6.46
13:07:19.406250,4.75
13:07:19.421875,3.15
13:07:19.437500,1.66
13:07:19.453125,0.17
13:07:19.468750,-1.41
13:07:19.484375,-3.12
13:07:19.500000,-4.90
13:07:19.515625,-6.64
13:07:19.531250,-8.26
13:07:19.546875,-9.78
13:07:19.562500,-11.29
13:07:19.578125,-12.91
13:07:19.593750,-14.71
13:07:19.609375,-16.70
13:07:19.625000,-18.79
13:07:19.640625,-20.94
13:07:19.656250,-23.15
13:07:19.671875,-25.54
13:07:19.687500,-28.26
13:07:19.703125,-31.31
13:07:19.718750,-34.44
13:07:19.734375,-37.09
13:07:19.750000,-38.53
13:07:19.765625,-38.10
13:07:19.781250,-35.52
13:07:19.796875,-30.97
13:07:19.812500,-25.14
13:07:19.828125,-19.01
13:07:19.843750,-13.51
13:07:19.859375,-9.30
13:07:19.875000,-6.55
13:07:19.890625,-5.05
13:07:19.906250,-4.29
13:07:19.921875,-3.74
13:07:19.937500,-2.98
13:07:19.953125,-1.80
13:07:19.968750,-0.18
13:07:19.984375,1.86
13:07:20,4.22
13:07:20.015625,6.85
13:07:20.031250,9.55
13:07:20.046875,12.03
13:07:20.062500,13.82
13:07:20.078125,14.53
13:07:20.093750,14.00
13:07:20.109375,12.49
13:07:20.125000,10.61
13:07:20.140625,9.08
13:07:20.156250,8.43
13:07:20.171875,8.82
13:07:20.187500,10.01
13:07:20.203125,11.56
13:07:20.218750,13.07
13:07:20.234375,14.33
13:07:20.250000,15.29
13:07:20.265625,15.93
13:07:20.281250,16.13
13:07:20.296875,15.70
13:07:20.312500,14.44
13:07:20.328125,12.35
13:07:20.343750,9.68
13:07:20.359375,6.93
13:07:20.375000,4.69
13:07:20.390625,3.41
13:07:20.406250,3.26
13:07:20.421875,4.12
13:07:20.437500,5.55
13:07:20.453125,7.06
13:07:20.468750,8.18
13:07:20.484375,8.66
13:07:20.500000,8.54
13:07:20.515625,8.08
13:07:20.531250,7.63
13:07:20.546875,7.36
13:07:20.562500,7.12
13:07:20.578125,6.38
13:07:20.593750,4.41
13:07:20.609375,0.60
13:07:20.625000,-5.17
13:07:20.640625,-12.40
13:07:20.656250,-20.06
13:07:20.671875,-27.01
13:07:20.687500,-32.40
13:07:20.703125,-35.92
13:07:20.718750,-37.74
13:07:20.734375,-38.19
13:07:20.750000,-37.52
13:07:20.765625,-35.78
13:07:20.781250,-32.99
13:07:20.796875,-29.34
13:07:20.812500,-25.32
13:07:20.828125,-21.56
13:07:20.843750,-18.55
13:07:20.859375,-16.34
13:07:20.875000,-14.47
13:07:20.890625,-12.27
13:07:20.906250,-9.16
13:07:20.921875,-5.04
13:07:20.937500,-0.26
13:07:20.953125,4.50
13:07:20.968750,8.63
13:07:20.984375,11.81
13:07:21,14.04
13:07:21.015625,15.51
13:07:21.031250,16.45
13:07:21.046875,17.06
13:07:21.062500,17.51
13:07:21.078125,18.10
13:07:21.093750,19.17
13:07:21.109375,20.95
13:07:21.125000,23.43
13:07:21.140625,26.29
13:07:21.156250,29.08
13:07:21.171875,31.48
13:07:21.187500,33.55
13:07:21.203125,35.56
13:07:21.218750,37.73
13:07:21.234375,39.80
13:07:21.250000,41.00
13:07:21.265625,40.28
13:07:21.281250,36.93
13:07:21.296875,31.02
13:07:21.312500,23.56
13:07:21.328125,16.11
13:07:21.343750,10.14
13:07:21.359375,6.45
13:07:21.375000,5.00
13:07:21.390625,4.95
13:07:21.406250,5.11
13:07:21.421875,4.37
13:07:21.437500,2.12
13:07:21.453125,-1.62
13:07:21.468750,-6.26
13:07:21.484375,-10.79
13:07:21.500000,-14.28
13:07:21.515625,-16.18
13:07:21.531250,-16.69
13:07:21.546875,-16.66
13:07:21.562500,-17.24
13:07:21.578125,-19.31
13:07:21.593750,-22.91
13:07:21.609375,-27.14
13:07:21.625000,-30.35
13:07:21.640625,-30.81
13:07:21.656250,-27.54
13:07:21.671875,-20.85
13:07:21.687500,-12.47
13:07:21.703125,-5.03
13:07:21.718750,-1.08
13:07:21.734375,-2.22
13:07:21.750000,-8.67
13:07:21.765625,-19.32
13:07:21.781250,-32.26
13:07:21.796875,-45.11
13:07:21.812500,-55.29
13:07:21.828125,-60.29
13:07:21.843750,-58.15
13:07:21.859375,-48.27
13:07:21.875000,-31.99
13:07:21.890625,-12.49
13:07:21.906250,6.32
13:07:21.921875,21.36
13:07:21.937500,31.69
13:07:21.953125,38.60
13:07:21.968750,44.56
13:07:21.984375,51.62
13:07:22,60.40
13:07:22.015625,70.23
13:07:22.031250,80.25
13:07:22.046875,90.63
13:07:22.062500,102.93
13:07:22.078125,119.37
13:07:22.093750,141.59
13:07:22.109375,169.57
13:07:22.125000,201.59
13:07:22.140625,234.93
13:07:22.156250,267.21
13:07:22.171875,297.39
13:07:22.187500,325.88
13:07:22.203125,353.71
13:07:22.218750,381.07
13:07:22.234375,406.24
13:07:22.250000,425.51
13:07:22.265625,434.34
13:07:22.281250,429.29
13:07:22.296875,409.68
13:07:22.312500,378.15
13:07:22.328125,339.46
13:07:22.343750,298.48
13:07:22.359375,258.15
13:07:22.375000,218.65
13:07:22.390625,177.96
13:07:22.406250,133.59
13:07:22.421875,84.36
13:07:22.437500,31.32
13:07:22.453125,-22.44
13:07:22.468750,-72.99
13:07:22.484375,-116.97
13:07:22.500000,-152.65
13:07:22.515625,-180.20
13:07:22.531250,-201.23
13:07:22.546875,-217.99
13:07:22.562500,-232.70
13:07:22.578125,-247.11
13:07:22.593750,-262.24
13:07:22.609375,-277.91
13:07:22.625000,-292.33
13:07:22.640625,-302.33
13:07:22.656250,-304.41
13:07:22.671875,-296.34
13:07:22.687500,-278.43
13:07:22.703125,-253.90
13:07:22.718750,-227.76
13:07:22.734375,-204.95
13:07:22.750000,-188.55
13:07:22.765625,-178.91
13:07:22.781250,-174.13
13:07:22.796875,-171.41
13:07:22.812500,-168.46
13:07:22.828125,-164.35
13:07:22.843750,-159.42
13:07:22.859375,-154.41
13:07:22.875000,-149.56
13:07:22.890625,-144.22
13:07:22.906250,-137.20
13:07:22.921875,-127.72
13:07:22.937500,-116.38
13:07:22.953125,-105.25
13:07:22.968750,-97.09
13:07:22.984375,-93.59
13:07:23,-94.11
13:07:23.015625,-95.53
13:07:23.031250,-93.91
13:07:23.046875,-86.58
13:07:23.062500,-73.92
13:07:23.078125,-59.23
13:07:23.093750,-47.01
13:07:23.109375,-40.66
13:07:23.125000,-40.92
13:07:23.140625,-46.00
13:07:23.156250,-53.04
13:07:23.171875,-59.49
13:07:23.187500,-63.62
13:07:23.203125,-64.54
13:07:23.218750,-61.69
13:07:23.234375,-54.67
13:07:23.250000,-43.47
13:07:23.265625,-28.75
13:07:23.281250,-12.15
13:07:23.296875,3.67
13:07:23.312500,16.04
13:07:23.328125,23.54
13:07:23.343750,26.52
13:07:23.359375,27.06
13:07:23.375000,28.05
13:07:23.390625,31.95
13:07:23.406250,39.74
13:07:23.421875,50.20
13:07:23.437500,59.93
13:07:23.453125,65.06
13:07:23.468750,63.51
13:07:23.484375,55.93
13:07:23.500000,44.85
13:07:23.515625,33.24
13:07:23.531250,22.91
13:07:23.546875,14.70
13:07:23.562500,9.20
13:07:23.578125,6.81
13:07:23.593750,8.19
13:07:23.609375,13.77
13:07:23.625000,22.43
13:07:23.640625,31.27
13:07:23.656250,37.08
13:07:23.671875,37.22
13:07:23.687500,34.00
13:07:23.703125,35.10
13:07:23.718750,47.36
13:07:23.734375,70.32
13:07:23.750000,97.38
13:07:23.765625,120.14
13:07:23.781250,134.44
13:07:23.796875,142.45
13:07:23.812500,151.47
13:07:23.828125,167.30
13:07:23.843750,194.38
13:07:23.859375,231.41
13:07:23.875000,271.52
13:07:23.890625,305.49
13:07:23.906250,325.43
13:07:23.921875,327.50
13:07:23.937500,312.44
13:07:23.953125,284.12
13:07:23.968750,247.39
13:07:23.984375,206.41
13:07:24,162.95
13:07:24.015625,117.72
13:07:24.031250,72.29
13:07:24.046875,29.84
13:07:24.062500,-5.36
13:07:24.078125,-29.73
13:07:24.093750,-42.09
13:07:24.109375,-44.34
13:07:24.125000,-40.87
13:07:24.140625,-37.63
13:07:24.156250,-39.99
13:07:24.171875,-50.82
13:07:24.187500,-69.92
13:07:24.203125,-94.42
13:07:24.218750,-120.10
13:07:24.234375,-142.70
13:07:24.250000,-159.02
13:07:24.265625,-167.33
13:07:24.281250,-167.80
13:07:24.296875,-161.76
13:07:24.312500,-150.79
13:07:24.328125,-136.11
13:07:24.343750,-118.58
13:07:24.359375,-99.16
13:07:24.375000,-79.27
13:07:24.390625,-60.87
13:07:24.406250,-45.83
13:07:24.421875,-35.40
13:07:24.437500,-29.55
13:07:24.453125,-26.96
13:07:24.468750,-25.67
13:07:24.484375,-24.03
13:07:24.500000,-21.43
13:07:24.515625,-18.43
13:07:24.531250,-16.33
13:07:24.546875,-16.53
13:07:24.562500,-19.93
13:07:24.578125,-26.67
13:07:24.593750,-36.01
13:07:24.609375,-46.60
13:07:24.625000,-56.73
13:07:24.640625,-64.82
13:07:24.656250,-69.70
13:07:24.671875,-70.95
13:07:24.687500,-68.86
13:07:24.703125,-64.23
13:07:24.718750,-57.86
13:07:24.734375,-50.16
13:07:24.750000,-41.05
13:07:24.765625,-30.25
13:07:24.781250,-17.70
13:07:24.796875,-4.03
13:07:24.812500,9.39
13:07:24.828125,20.90
13:07:24.843750,29.27
13:07:24.859375,34.25
13:07:24.875000,36.71
13:07:24.890625,38.19
13:07:24.906250,40.11
13:07:24.921875,43.19
13:07:24.937500,47.26
13:07:24.953125,51.70
13:07:24.968750,55.97
13:07:24.984375,60.02
13:07:25,64.20
13:07:25.015625,68.83
13:07:25.031250,73.73
13:07:25.046875,78.11
13:07:25.062500,80.95
13:07:25.078125,81.53
13:07:25.093750,79.87
13:07:25.109375,76.61
13:07:25.125000,72.66
13:07:25.140625,68.66
13:07:25.156250,64.70
13:07:25.171875,60.44
13:07:25.187500,55.34
13:07:25.203125,49.03
13:07:25.218750,41.34
13:07:25.234375,32.29
13:07:25.250000,21.85
13:07:25.265625,9.86
13:07:25.281250,-3.81
13:07:25.296875,-19.36
13:07:25.312500,-37.19
13:07:25.328125,-57.99
13:07:25.343750,-82.76
13:07:25.359375,-112.07
13:07:25.375000,-144.93
13:07:25.390625,-178.18
13:07:25.406250,-207.03
13:07:25.421875,-226.62
13:07:25.437500,-233.91
13:07:25.453125,-228.99
13:07:25.468750,-215.15
13:07:25.484375,-197.75
13:07:25.500000,-182.39
13:07:25.515625,-173.23
13:07:25.531250,-171.98
13:07:25.546875,-177.77
13:07:25.562500,-187.57
13:07:25.578125,-197.07
13:07:25.593750,-201.85
13:07:25.609375,-198.61
13:07:25.625000,-186.12
13:07:25.640625,-165.35
13:07:25.656250,-138.82
13:07:25.671875,-109.76
13:07:25.687500,-81.48
13:07:25.703125,-57.11
13:07:25.718750,-39.37
13:07:25.734375,-29.95
13:07:25.750000,-28.76
13:07:25.765625,-33.54
13:07:25.781250,-40.41
13:07:25.796875,-45.64
13:07:25.812500,-47.34
13:07:25.828125,-46.03
13:07:25.843750,-43.96
13:07:25.859375,-43.37
13:07:25.875000,-44.75
13:07:25.890625,-46.27
13:07:25.906250,-44.68
13:07:25.921875,-37.14
13:07:25.937500,-22.80
13:07:25.953125,-3.56
13:07:25.968750,16.56
13:07:25.984375,33.09
13:07:26,43.05
13:07:26.015625,46.27
13:07:26.031250,45.60
13:07:26.046875,45.19
13:07:26.062500,48.26
13:07:26.078125,55.03
13:07:26.093750,62.69
13:07:26.109375,67.21
13:07:26.125000,66.06
13:07:26.140625,59.84
13:07:26.156250,51.87
13:07:26.171875,46.06
13:07:26.187500,44.47
13:07:26.203125,46.65
13:07:26.218750,50.63
13:07:26.234375,55.08
13:07:26.250000,60.52
13:07:26.265625,68.83
13:07:26.281250,81.45
13:07:26.296875,97.77
13:07:26.312500,114.74
13:07:26.328125,128.24
13:07:26.343750,135.20
13:07:26.359375,135.05
13:07:26.375000,130.09
13:07:26.390625,124.43
13:07:26.406250,122.19
13:07:26.421875,125.80
13:07:26.437500,135.13
13:07:26.453125,147.56
13:07:26.468750,158.96
13:07:26.484375,165.74
13:07:26.500000,166.76
13:07:26.515625,164.44
13:07:26.531250,164.06
13:07:26.546875,171.44
13:07:26.562500,189.86
13:07:26.578125,218.05
13:07:26.593750,250.37
13:07:26.609375,279.02
13:07:26.625000,297.25
13:07:26.640625,301.77
13:07:26.656250,293.33
13:07:26.671875,275.46
13:07:26.687500,252.59
13:07:26.703125,228.49
13:07:26.718750,205.86
13:07:26.734375,186.73
13:07:26.750000,172.74
13:07:26.765625,165.04
13:07:26.781250,163.59
13:07:26.796875,166.63
13:07:26.812500,170.92
13:07:26.828125,172.69
13:07:26.843750,169.01
13:07:26.859375,158.65
13:07:26.875000,142.28
13:07:26.890625,121.77
13:07:26.906250,99.06
13:07:26.921875,75.43
13:07:26.937500,51.29
13:07:26.953125,26.67
13:07:26.968750,1.90
13:07:26.984375,-21.94
13:07:27,-43.04
13:07:27.015625,-59.39
13:07:27.031250,-69.52
13:07:27.046875,-73.12
13:07:27.062500,-71.26
13:07:27.078125,-66.27
13:07:27.093750,-61.25
13:07:27.109375,-59.23
13:07:27.125000,-62.47
13:07:27.140625,-71.67
13:07:27.156250,-85.77
13:07:27.171875,-102.34
13:07:27.187500,-118.47
13:07:27.203125,-131.96
13:07:27.218750,-142.12
13:07:27.234375,-149.84
13:07:27.250000,-156.75
13:07:27.265625,-164.17
13:07:27.281250,-172.21
13:07:27.296875,-179.72
13:07:27.312500,-184.93
13:07:27.328125,-186.58
13:07:27.343750,-184.71
13:07:27.359375,-180.60
13:07:27.375000,-176.23
13:07:27.390625,-173.36
13:07:27.406250,-172.82
13:07:27.421875,-174.44
13:07:27.437500,-177.38
13:07:27.453125,-180.67
13:07:27.468750,-183.61
13:07:27.484375,-185.86
13:07:27.500000,-187.24
13:07:27.515625,-187.62
13:07:27.531250,-186.64
13:07:27.546875,-183.78
13:07:27.562500,-178.45
13:07:27.578125,-170.13
13:07:27.593750,-158.56
13:07:27.609375,-143.89
13:07:27.625000,-126.76
13:07:27.640625,-108.26
13:07:27.656250,-89.77
13:07:27.671875,-72.64
13:07:27.687500,-57.92
13:07:27.703125,-46.20
13:07:27.718750,-37.67
13:07:27.734375,-32.36
13:07:27.750000,-30.39
13:07:27.765625,-32.09
13:07:27.781250,-37.72
13:07:27.796875,-47.23
13:07:27.812500,-59.85
13:07:27.828125,-74.14
13:07:27.843750,-88.26
13:07:27.859375,-100.38
13:07:27.875000,-109.13
13:07:27.890625,-113.85
13:07:27.906250,-114.56
13:07:27.921875,-111.73
13:07:27.937500,-106.14
13:07:27.953125,-98.67
13:07:27.968750,-90.24
13:07:27.984375,-81.72
13:07:28,-73.77
13:07:28.015625,-66.74
13:07:28.031250,-60.68
13:07:28.046875,-55.38
13:07:28.062500,-50.62
13:07:28.078125,-46.34
13:07:28.093750,-42.63
13:07:28.109375,-39.78
13:07:28.125000,-38.16
13:07:28.140625,-38.17
13:07:28.156250,-40.27
13:07:28.171875,-44.92
13:07:28.187500,-52.34
13:07:28.203125,-62.32
13:07:28.218750,-74.04
13:07:28.234375,-86.20
13:07:28.250000,-97.28
13:07:28.265625,-106.10
13:07:28.281250,-112.02
13:07:28.296875,-115.02
13:07:28.312500,-115.41
13:07:28.328125,-113.57
13:07:28.343750,-109.86
13:07:28.359375,-104.70
13:07:28.375000,-98.84
13:07:28.390625,-93.53
13:07:28.406250,-90.28
13:07:28.421875,-90.42
13:07:28.437500,-94.58
13:07:28.453125,-102.35
13:07:28.468750,-112.45
13:07:28.484375,-123.07
13:07:28.500000,-132.39
13:07:28.515625,-138.98
13:07:28.531250,-142.03
13:07:28.546875,-141.50
13:07:28.562500,-138.22
13:07:28.578125,-133.81
13:07:28.593750,-130.28
13:07:28.609375,-129.30
13:07:28.625000,-131.33
13:07:28.640625,-135.21
13:07:28.656250,-138.61
13:07:28.671875,-139.26
13:07:28.687500,-136.24
13:07:28.703125,-130.67
13:07:28.718750,-125.24
13:07:28.734375,-122.96
13:07:28.750000,-125.86
13:07:28.765625,-134.31
13:07:28.781250,-147.23
13:07:28.796875,-162.76
13:07:28.812500,-178.89
13:07:28.828125,-193.69
13:07:28.843750,-205.24
13:07:28.859375,-211.74
13:07:28.875000,-211.78
13:07:28.890625,-204.95
13:07:28.906250,-192.05
13:07:28.921875,-174.92
13:07:28.937500,-155.66
13:07:28.953125,-135.92
13:07:28.968750,-116.54
13:07:28.984375,-97.65
13:07:29,-79.10
13:07:29.015625,-60.81
13:07:29.031250,-42.76
13:07:29.046875,-24.93
13:07:29.062500,-7.13
13:07:29.078125,11.03
13:07:29.093750,30.03
13:07:29.109375,50.30
13:07:29.125000,72.13
13:07:29.140625,95.59
13:07:29.156250,120.64
13:07:29.171875,146.94
13:07:29.187500,173.79
13:07:29.203125,199.96
13:07:29.218750,223.76
13:07:29.234375,243.37
13:07:29.250000,257.36
13:07:29.265625,265.19
13:07:29.281250,267.40
13:07:29.296875,265.44
13:07:29.312500,261.06
13:07:29.328125,255.67
13:07:29.343750,249.85
13:07:29.359375,243.41
13:07:29.375000,235.84
13:07:29.390625,226.81
13:07:29.406250,216.42
13:07:29.421875,205.04
13:07:29.437500,193.05
13:07:29.453125,180.46
13:07:29.468750,166.93
13:07:29.484375,152.09
13:07:29.500000,135.91
13:07:29.515625,118.96
13:07:29.531250,102.33
13:07:29.546875,87.10
13:07:29.562500,73.87
13:07:29.578125,62.50
13:07:29.593750,52.15
13:07:29.609375,41.75
13:07:29.625000,30.47
13:07:29.640625,18.05
13:07:29.656250,5.02
13:07:29.671875,-7.45
13:07:29.687500,-17.78
13:07:29.703125,-24.37
13:07:29.718750,-26.08
13:07:29.734375,-22.57
13:07:29.750000,-14.58
13:07:29.765625,-3.69
13:07:29.781250,8.11
13:07:29.796875,19.00
13:07:29.812500,27.82
13:07:29.828125,34.16
13:07:29.843750,38.18
13:07:29.859375,40.21
13:07:29.875000,40.52
13:07:29.890625,39.32
13:07:29.906250,37.02
13:07:29.921875,34.48
13:07:29.937500,33.06
13:07:29.953125,34.27
13:07:29.968750,39.22
13:07:29.984375,48.18
13:07:30,60.34
13:07:30.015625,73.96
13:07:30.031250,86.75
13:07:30.046875,96.35
13:07:30.062500,100.90
13:07:30.078125,99.50
13:07:30.093750,92.50
13:07:30.109375,81.37
13:07:30.125000,68.40
13:07:30.140625,56.07
13:07:30.156250,46.38
13:07:30.171875,40.21
13:07:30.187500,37.09
13:07:30.203125,35.47
13:07:30.218750,33.50
13:07:30.234375,29.93
13:07:30.250000,24.64
13:07:30.265625,18.41
13:07:30.281250,12.17
13:07:30.296875,6.21
13:07:30.312500,0.01
13:07:30.328125,-7.24
13:07:30.343750,-15.77
13:07:30.359375,-24.82
13:07:30.375000,-33.08
13:07:30.390625,-39.81
13:07:30.406250,-45.70
13:07:30.421875,-52.67
13:07:30.437500,-62.63
13:07:30.453125,-75.91
13:07:30.468750,-90.51
13:07:30.484375,-102.85
13:07:30.500000,-109.56
13:07:30.515625,-109.15
13:07:30.531250,-102.49
13:07:30.546875,-91.95
13:07:30.562500,-79.93
13:07:30.578125,-67.67
13:07:30.593750,-55.18
13:07:30.609375,-41.94
13:07:30.625000,-27.95
13:07:30.640625,-14.14
13:07:30.656250,-2.03
13:07:30.671875,7.00
13:07:30.687500,12.37
13:07:30.703125,14.64
13:07:30.718750,15.16
13:07:30.734375,15.53
13:07:30.750000,17.01
13:07:30.765625,19.92
13:07:30.781250,23.65
13:07:30.796875,27.00
13:07:30.812500,28.74
13:07:30.828125,28.33
13:07:30.843750,26.19
13:07:30.859375,23.58
13:07:30.875000,22.10
13:07:30.890625,23.32
13:07:30.906250,27.98
13:07:30.921875,35.75
13:07:30.937500,45.37
13:07:30.953125,55.18
13:07:30.968750,63.75
13:07:30.984375,70.29
13:07:31,74.81
13:07:31.015625,77.94
13:07:31.031250,80.82
13:07:31.046875,84.43
13:07:31.062500,89.09
13:07:31.078125,94.40
13:07:31.093750,99.47
13:07:31.109375,103.49
13:07:31.125000,106.01
13:07:31.140625,107.05
13:07:31.156250,106.93
13:07:31.171875,106.62
13:07:31.187500,106.81
13:07:31.203125,107.80
13:07:31.218750,109.58
13:07:31.234375,112.24
13:07:31.250000,116.18
13:07:31.265625,121.82
13:07:31.281250,129.31
13:07:31.296875,138.17
13:07:31.312500,149.12
13:07:31.328125,162.53
13:07:31.343750,178.09
13:07:31.359375,194.76
13:07:31.375000,211.24
13:07:31.390625,226.56
13:07:31.406250,239.94
13:07:31.421875,250.66
13:07:31.437500,258.01
13:07:31.453125,264.94
13:07:31.468750,273.95
13:07:31.484375,285.46
13:07:31.500000,297.26
13:07:31.515625,306.05
13:07:31.531250,309.80
13:07:31.546875,308.81
13:07:31.562500,305.10
13:07:31.578125,301.15
13:07:31.593750,303.74
13:07:31.609375,316.54
13:07:31.625000,338.02
13:07:31.640625,361.99
13:07:31.656250,381.41
13:07:31.671875,392.57
13:07:31.687500,396.01
13:07:31.703125,394.68
13:07:31.718750,391.60
13:07:31.734375,395.66
13:07:31.750000,412.92
13:07:31.765625,444.41
13:07:31.781250,486.03
13:07:31.796875,531.24
13:07:31.812500,574.87
13:07:31.828125,613.90
13:07:31.843750,646.44
13:07:31.859375,626.91
13:07:31.875000,529.28
13:07:31.890625,357.54
13:07:31.906250,147.80
13:07:31.921875,-54.31
13:07:31.937500,-218.75
13:07:31.953125,-336.58
13:07:31.968750,-412.94
13:07:31.984375,-458.27
13:07:32,-482.82
13:07:32.015625,-487.24
13:07:32.031250,-471.13
13:07:32.046875,-437.68
13:07:32.062500,-393.64
13:07:32.078125,-347.91
13:07:32.093750,-307.23
13:07:32.109375,-274.67
13:07:32.125000,-250.53
13:07:32.140625,-233.70
13:07:32.156250,-217.39
13:07:32.171875,-196.66
13:07:32.187500,-171.25
13:07:32.203125,-142.64
13:07:32.218750,-115.98
13:07:32.234375,-95.43
13:07:32.250000,-82.60
13:07:32.265625,-77.05
13:07:32.281250,-77.26
13:07:32.296875,-78.14
13:07:32.312500,-75.65
13:07:32.328125,-68.47
13:07:32.343750,-58.29
13:07:32.359375,-48.78
13:07:32.375000,-42.69
13:07:32.390625,-41.02
13:07:32.406250,-43.30
13:07:32.421875,-48.34
13:07:32.437500,-53.17
13:07:32.453125,-55.41
13:07:32.468750,-54.16
13:07:32.484375,-50.05
13:07:32.500000,-44.94
13:07:32.515625,-40.29
13:07:32.531250,-36.68
13:07:32.546875,-34.02
13:07:32.562500,-31.98
13:07:32.578125,-29.67
13:07:32.593750,-26.62
13:07:32.609375,-23.08
13:07:32.625000,-19.84
13:07:32.640625,-18.17
13:07:32.656250,-18.86
13:07:32.671875,-22.00
13:07:32.687500,-27.20
13:07:32.703125,-33.77
13:07:32.718750,-41.21
13:07:32.734375,-49.32
13:07:32.750000,-58.35
13:07:32.765625,-68.69
13:07:32.781250,-80.75
13:07:32.796875,-94.47
13:07:32.812500,-109.17
13:07:32.828125,-123.70
13:07:32.843750,-136.79
13:07:32.859375,-147.55
13:07:32.875000,-155.86
13:07:32.890625,-162.31
13:07:32.906250,-167.92
13:07:32.921875,-173.61
13:07:32.937500,-179.69
13:07:32.953125,-185.63
13:07:32.968750,-190.45
13:07:32.984375,-193.18
13:07:33,-193.55
13:07:33.015625,-192.23
13:07:33.031250,-190.69
13:07:33.046875,-190.65
13:07:33.062500,-193.75
13:07:33.078125,-201.22
13:07:33.093750,-213.84
13:07:33.109375,-231.62
13:07:33.125000,-253.20
13:07:33.140625,-275.30
13:07:33.156250,-292.65
13:07:33.171875,-299.04
13:07:33.187500,-289.24
13:07:33.203125,-261.09
13:07:33.218750,-216.60
13:07:33.234375,-161.54
13:07:33.250000,-103.47
13:07:33.265625,-49.34
13:07:33.281250,-3.88
13:07:33.296875,30.80
13:07:33.312500,54.31
13:07:33.328125,66.93
13:07:33.343750,69.07
13:07:33.359375,61.48
13:07:33.375000,45.80
13:07:33.390625,24.77
13:07:33.406250,1.76
13:07:33.421875,-20.27
13:07:33.437500,-39.53
13:07:33.453125,-55.72
13:07:33.468750,-69.49
13:07:33.484375,-81.40
13:07:33.500000,-90.87
13:07:33.515625,-95.73
13:07:33.531250,-92.70
13:07:33.546875,-78.60
13:07:33.562500,-52.07
13:07:33.578125,-14.95
13:07:33.593750,27.32
13:07:33.609375,66.87
13:07:33.625000,95.48
13:07:33.640625,107.31
13:07:33.656250,100.56
13:07:33.671875,77.55
13:07:33.687500,43.12
13:07:33.703125,2.17
13:07:33.718750,-42.64
13:07:33.734375,-91.72
13:07:33.750000,-147.44
13:07:33.765625,-211.60
13:07:33.781250,-282.86
13:07:33.796875,-355.47
13:07:33.812500,-420.40
13:07:33.828125,-468.04
13:07:33.843750,-491.61
13:07:33.859375,-489.34
13:07:33.875000,-464.55
13:07:33.890625,-423.94
13:07:33.906250,-375.13
13:07:33.921875,-324.58
13:07:33.937500,-276.54
13:07:33.953125,-233.17
13:07:33.968750,-195.12
13:07:33.984375,-162.03
13:07:34,-132.90
13:07:34.015625,-106.30
13:07:34.031250,-80.60
13:07:34.046875,-54.37
13:07:34.062500,-26.80
13:07:34.078125,2.04
13:07:34.093750,31.33
13:07:34.109375,59.70
13:07:34.125000,85.37
13:07:34.140625,106.57
13:07:34.156250,122.13
13:07:34.171875,131.95
13:07:34.187500,137.19
13:07:34.203125,140.00
13:07:34.218750,142.57
13:07:34.234375,146.25
13:07:34.250000,151.09
13:07:34.265625,156.03
13:07:34.281250,159.67
13:07:34.296875,161.08
13:07:34.312500,160.22
13:07:34.328125,157.71
13:07:34.343750,154.33
13:07:34.359375,150.35
13:07:34.375000,145.38
13:07:34.390625,138.57
13:07:34.406250,129.19
13:07:34.421875,117.24
13:07:34.437500,103.53
13:07:34.453125,89.42
13:07:34.468750,76.14
13:07:34.484375,64.32
13:07:34.500000,53.82
13:07:34.515625,43.92
13:07:34.531250,33.87
13:07:34.546875,23.36
13:07:34.562500,12.82
13:07:34.578125,3.14
13:07:34.593750,-4.69
13:07:34.609375,-10.03
13:07:34.625000,-12.72
13:07:34.640625,-13.10
13:07:34.656250,-11.70
13:07:34.671875,-9.13
13:07:34.687500,-5.94
13:07:34.703125,-2.78
13:07:34.718750,-0.44
13:07:34.734375,0.06
13:07:34.750000,-2.31
13:07:34.765625,-8.20
13:07:34.781250,-17.58
13:07:34.796875,-29.50
13:07:34.812500,-42.16
13:07:34.828125,-53.26
13:07:34.843750,-60.56
13:07:34.859375,-62.37
13:07:34.875000,-58.00
13:07:34.890625,-47.85
13:07:34.906250,-33.22
13:07:34.921875,-15.83
13:07:34.937500,2.79
13:07:34.953125,21.70
13:07:34.968750,40.62
13:07:34.984375,59.60
13:07:35,78.58
13:07:35.015625,97.01
13:07:35.031250,113.72
13:07:35.046875,127.16
13:07:35.062500,135.97
13:07:35.078125,139.42
13:07:35.093750,137.96
13:07:35.109375,133.17
13:07:35.125000,127.43
13:07:35.140625,123.09
13:07:35.156250,121.72
13:07:35.171875,123.46
13:07:35.187500,127.07
13:07:35.203125,130.51
13:07:35.218750,131.74
13:07:35.234375,129.46
13:07:35.250000,123.40
13:07:35.265625,114.64
13:07:35.281250,105.52
13:07:35.296875,99.39
13:07:35.312500,99.80
13:07:35.328125,109.01
13:07:35.343750,126.45
13:07:35.359375,147.61
13:07:35.375000,164.77
13:07:35.390625,169.20
13:07:35.406250,154.51
13:07:35.421875,119.43
13:07:35.437500,68.49
13:07:35.453125,10.45
13:07:35.468750,-44.97
13:07:35.484375,-90.32
13:07:35.500000,-122.48
13:07:35.515625,-142.63
13:07:35.531250,-154.86
13:07:35.546875,-163.94
13:07:35.562500,-173.52
13:07:35.578125,-185.27
13:07:35.593750,-199.14
13:07:35.609375,-214.14
13:07:35.625000,-229.45
13:07:35.640625,-244.74
13:07:35.656250,-259.56
13:07:35.671875,-272.49
13:07:35.687500,-280.45
13:07:35.703125,-279.27
13:07:35.718750,-265.43
13:07:35.734375,-238.16
13:07:35.750000,-200.72
13:07:35.765625,-159.53
13:07:35.781250,-121.96
13:07:35.796875,-93.17
13:07:35.812500,-74.33
13:07:35.828125,-62.78
13:07:35.843750,-54.02
13:07:35.859375,-43.59
13:07:35.875000,-28.23
13:07:35.890625,-6.04
13:07:35.906250,23.62
13:07:35.921875,59.57
13:07:35.937500,97.64
13:07:35.953125,130.09
13:07:35.968750,146.94
13:07:35.984375,139.82
13:07:36,106.46
13:07:36.015625,53.56
13:07:36.031250,-4.23
13:07:36.046875,-49.39
13:07:36.062500,-68.38
13:07:36.078125,-56.91
13:07:36.093750,-20.90
13:07:36.109375,27.28
13:07:36.125000,74.80
13:07:36.140625,113.72
13:07:36.156250,142.86
13:07:36.171875,165.94
13:07:36.187500,187.94
13:07:36.203125,211.76
13:07:36.218750,236.89
13:07:36.234375,260.34
13:07:36.250000,278.44
13:07:36.265625,288.52
13:07:36.281250,289.11
13:07:36.296875,279.66
13:07:36.312500,260.61
13:07:36.328125,234.17
13:07:36.343750,204.98
13:07:36.359375,179.99
13:07:36.375000,166.55
13:07:36.390625,169.51
13:07:36.406250,188.72
13:07:36.421875,218.59
13:07:36.437500,249.87
13:07:36.453125,273.04
13:07:36.468750,281.06
13:07:36.484375,270.87
13:07:36.500000,243.05
13:07:36.515625,200.63
13:07:36.531250,147.95
13:07:36.546875,90.02
13:07:36.562500,32.17
13:07:36.578125,-20.48
13:07:36.593750,-64.09
