14:36:19,-0.00
14:36:19.015625,-0.00
14:36:19.031250,-0.00
14:36:19.046875,-0.00
14:36:19.062500,-0.00
14:36:19.078125,-0.00
14:36:19.093750,-0.00
14:36:19.109375,-0.00
14:36:19.125000,-0.00
14:36:19.140625,-0.01
14:36:19.156250,-0.00
14:36:19.171875,0.00
14:36:19.187500,0.01
14:36:19.203125,0.01
14:36:19.218750,-0.00
14:36:19.234375,-0.03
14:36:19.250000,-0.05
14:36:19.265625,-0.05
14:36:19.281250,-0.00
14:36:19.296875,0.13
14:36:19.312500,0.36
14:36:19.328125,0.66
14:36:19.343750,1.01
14:36:19.359375,1.37
14:36:19.375000,1.72
14:36:19.390625,2.06
14:36:19.406250,2.40
14:36:19.421875,2.77
14:36:19.437500,3.24
14:36:19.453125,3.80
14:36:19.468750,4.42
14:36:19.484375,5.06
14:36:19.500000,5.66
14:36:19.515625,6.20
14:36:19.531250,6.68
14:36:19.546875,7.15
14:36:19.562500,7.64
14:36:19.578125,8.31
14:36:19.593750,9.14
14:36:19.609375,10.09
14:36:19.625000,11.04
14:36:19.640625,11.88
14:36:19.656250,12.56
14:36:19.671875,13.14
14:36:19.687500,13.76
14:36:19.703125,14.58
14:36:19.718750,15.96
14:36:19.734375,17.91
14:36:19.750000,20.32
14:36:19.765625,22.90
14:36:19.781250,25.38
14:36:19.796875,27.58
14:36:19.812500,29.57
14:36:19.828125,31.68
14:36:19.843750,34.20
14:36:19.859375,37.81
14:36:19.875000,42.54
14:36:19.890625,48.15
14:36:19.906250,54.10
14:36:19.921875,59.83
14:36:19.937500,64.97
14:36:19.953125,69.58
14:36:19.968750,74.14
14:36:19.984375,79.19
14:36:20,85.71
14:36:20.015625,93.76
14:36:20.031250,103.00
14:36:20.046875,112.62
14:36:20.062500,121.73
14:36:20.078125,129.77
14:36:20.093750,136.75
14:36:20.109375,144.29
14:36:20.125000,150.58
14:36:20.140625,157.77
14:36:20.156250,166.64
14:36:20.171875,177.95
14:36:20.187500,191.79
14:36:20.203125,206.97
14:36:20.218750,220.57
14:36:20.234375,228.25
14:36:20.250000,225.36
14:36:20.265625,208.38
14:36:20.281250,176.87
14:36:20.296875,132.76
14:36:20.312500,80.05
14:36:20.328125,23.07
14:36:20.343750,-34.95
14:36:20.359375,-92.44
14:36:20.375000,-149.16
14:36:20.390625,-205.22
14:36:20.406250,-260.46
14:36:20.421875,-313.70
14:36:20.437500,-363.84
14:36:20.453125,-409.84
14:36:20.468750,-450.98
14:36:20.484375,-486.68
14:36:20.500000,-516.03
14:36:20.515625,-537.61
14:36:20.531250,-549.66
14:36:20.546875,-550.49
14:36:20.562500,-538.80
14:36:20.578125,-514.63
14:36:20.593750,-479.11
14:36:20.609375,-434.38
14:36:20.625000,-383.05
14:36:20.640625,-327.72
14:36:20.656250,-270.63
14:36:20.671875,-213.45
14:36:20.687500,-157.50
14:36:20.703125,-103.71
14:36:20.718750,-53.11
14:36:20.734375,-6.71
14:36:20.750000,34.60
14:36:20.765625,70.19
14:36:20.781250,99.84
14:36:20.796875,123.77
14:36:20.812500,142.56
14:36:20.828125,156.90
14:36:20.843750,167.46
14:36:20.859375,174.69
14:36:20.875000,178.87
14:36:20.890625,180.22
14:36:20.906250,179.04
14:36:20.921875,175.75
14:36:20.937500,170.92
14:36:20.953125,165.08
14:36:20.968750,158.66
14:36:20.984375,151.83
14:36:21,144.55
14:36:21.015625,136.68
14:36:21.031250,128.17
14:36:21.046875,119.14
14:36:21.062500,109.97
14:36:21.078125,101.12
14:36:21.093750,92.97
14:36:21.109375,85.60
14:36:21.125000,78.80
14:36:21.140625,72.10
14:36:21.156250,65.03
14:36:21.171875,57.36
14:36:21.187500,49.27
14:36:21.203125,41.26
14:36:21.218750,33.93
14:36:21.234375,27.70
14:36:21.250000,22.67
14:36:21.265625,18.52
14:36:21.281250,14.74
14:36:21.296875,10.78
14:36:21.312500,6.22
14:36:21.328125,0.73
14:36:21.343750,-5.76
14:36:21.359375,-12.92
14:36:21.375000,-19.70
14:36:21.390625,-24.34
14:36:21.406250,-24.81
14:36:21.421875,-19.59
14:36:21.437500,-8.64
14:36:21.453125,6.30
14:36:21.468750,22.16
14:36:21.484375,35.63
14:36:21.500000,44.47
14:36:21.515625,48.12
14:36:21.531250,47.58
14:36:21.546875,44.61
14:36:21.562500,40.78
14:36:21.578125,36.93
14:36:21.593750,33.25
14:36:21.609375,29.67
14:36:21.625000,26.19
14:36:21.640625,23.09
14:36:21.656250,20.63
14:36:21.671875,18.95
14:36:21.687500,17.99
14:36:21.703125,17.51
14:36:21.718750,17.21
14:36:21.734375,16.86
14:36:21.750000,16.45
14:36:21.765625,16.28
14:36:21.781250,16.83
14:36:21.796875,18.45
14:36:21.812500,21.04
14:36:21.828125,23.81
14:36:21.843750,25.53
14:36:21.859375,25.03
14:36:21.875000,21.85
14:36:21.890625,16.53
14:36:21.906250,10.43
14:36:21.921875,5.09
14:36:21.937500,1.51
14:36:21.953125,-0.23
14:36:21.968750,-0.78
14:36:21.984375,-1.04
14:36:22,-1.59
14:36:22.015625,-2.47
14:36:22.031250,-3.31
14:36:22.046875,-3.74
14:36:22.062500,-3.65
14:36:22.078125,-3.22
14:36:22.093750,-2.78
14:36:22.109375,-2.61
14:36:22.125000,-2.86
14:36:22.140625,-3.43
14:36:22.156250,-4.15
14:36:22.171875,-4.86
14:36:22.187500,-5.42
14:36:22.203125,-5.79
14:36:22.218750,-5.98
14:36:22.234375,-5.96
14:36:22.250000,-5.75
14:36:22.265625,-5.37
14:36:22.281250,-4.88
14:36:22.296875,-4.42
14:36:22.312500,-4.13
14:36:22.328125,-4.12
14:36:22.343750,-4.36
14:36:22.359375,-4.63
14:36:22.375000,-4.59
14:36:22.390625,-3.85
14:36:22.406250,-2.15
14:36:22.421875,0.52
14:36:22.437500,3.85
14:36:22.453125,7.32
14:36:22.468750,10.32
14:36:22.484375,12.44
14:36:22.500000,13.50
14:36:22.515625,13.66
14:36:22.531250,13.29
14:36:22.546875,12.74
14:36:22.562500,12.24
14:36:22.578125,11.85
14:36:22.593750,11.49
14:36:22.609375,11.01
14:36:22.625000,10.33
14:36:22.640625,9.41
14:36:22.656250,8.31
14:36:22.671875,7.08
14:36:22.687500,5.72
14:36:22.703125,4.28
14:36:22.718750,2.59
14:36:22.734375,0.55
14:36:22.750000,-1.85
14:36:22.765625,-4.50
14:36:22.781250,-7.23
14:36:22.796875,-9.82
14:36:22.812500,-12.07
14:36:22.828125,-13.89
14:36:22.843750,-15.26
14:36:22.859375,-16.20
14:36:22.875000,-16.68
14:36:22.890625,-16.62
14:36:22.906250,-15.96
14:36:22.921875,-14.64
14:36:22.937500,-12.76
14:36:22.953125,-10.51
14:36:22.968750,-8.18
14:36:22.984375,-6.01
14:36:23,-4.20
14:36:23.015625,-2.81
14:36:23.031250,-1.85
14:36:23.046875,-1.33
14:36:23.062500,-1.30
14:36:23.078125,-1.79
14:36:23.093750,-2.78
14:36:23.109375,-4.07
14:36:23.125000,-5.32
14:36:23.140625,-6.05
14:36:23.156250,-5.84
14:36:23.171875,-4.45
14:36:23.187500,-2.03
14:36:23.203125,0.99
14:36:23.218750,3.96
14:36:23.234375,6.26
14:36:23.250000,7.52
14:36:23.265625,7.66
14:36:23.281250,6.88
14:36:23.296875,5.53
14:36:23.312500,3.96
14:36:23.328125,2.45
14:36:23.343750,1.17
14:36:23.359375,0.19
14:36:23.375000,-0.45
14:36:23.390625,-0.78
14:36:23.406250,-0.80
14:36:23.421875,-0.59
14:36:23.437500,-0.24
14:36:23.453125,0.11
14:36:23.468750,0.36
14:36:23.484375,0.49
14:36:23.500000,0.54
14:36:23.515625,0.61
14:36:23.531250,0.80
14:36:23.546875,1.11
14:36:23.562500,1.46
14:36:23.578125,1.72
14:36:23.593750,1.76
14:36:23.609375,1.54
14:36:23.625000,1.11
14:36:23.640625,0.53
14:36:23.656250,-0.15
14:36:23.671875,-0.98
14:36:23.687500,-2.08
14:36:23.703125,-3.38
14:36:23.718750,-4.80
14:36:23.734375,-6.25
14:36:23.750000,-7.60
14:36:23.765625,-8.77
14:36:23.781250,-9.81
14:36:23.796875,-10.80
14:36:23.812500,-11.88
14:36:23.828125,-13.15
14:36:23.843750,-14.59
14:36:23.859375,-16.16
14:36:23.875000,-17.63
14:36:23.890625,-18.64
14:36:23.906250,-18.73
14:36:23.921875,-17.42
14:36:23.937500,-14.43
14:36:23.953125,-9.81
14:36:23.968750,-4.01
14:36:23.984375,2.23
14:36:24,8.09
14:36:24.015625,13.01
14:36:24.031250,16.75
14:36:24.046875,19.43
14:36:24.062500,21.24
14:36:24.078125,22.29
14:36:24.093750,22.52
14:36:24.109375,21.77
14:36:24.125000,20.05
14:36:24.140625,17.61
14:36:24.156250,14.92
14:36:24.171875,12.54
14:36:24.187500,10.81
14:36:24.203125,9.76
14:36:24.218750,9.15
14:36:24.234375,8.62
14:36:24.250000,7.96
14:36:24.265625,7.13
14:36:24.281250,6.29
14:36:24.296875,5.57
14:36:24.312500,5.01
14:36:24.328125,4.48
14:36:24.343750,3.75
14:36:24.359375,2.61
14:36:24.375000,1.01
14:36:24.390625,-0.98
14:36:24.406250,-3.18
14:36:24.421875,-5.35
14:36:24.437500,-7.29
14:36:24.453125,-8.85
14:36:24.468750,-9.96
14:36:24.484375,-10.67
14:36:24.500000,-11.12
14:36:24.515625,-11.59
14:36:24.531250,-12.35
14:36:24.546875,-13.59
14:36:24.562500,-15.29
14:36:24.578125,-17.14
14:36:24.593750,-18.62
14:36:24.609375,-19.11
14:36:24.625000,-18.09
14:36:24.640625,-15.29
14:36:24.656250,-10.83
14:36:24.671875,-5.17
14:36:24.687500,0.99
14:36:24.703125,6.89
14:36:24.718750,11.90
14:36:24.734375,15.60
14:36:24.750000,17.84
14:36:24.765625,18.68
14:36:24.781250,18.33
14:36:24.796875,17.08
14:36:24.812500,15.26
14:36:24.828125,13.17
14:36:24.843750,11.11
14:36:24.859375,9.29
14:36:24.875000,7.87
14:36:24.890625,6.85
14:36:24.906250,6.15
14:36:24.921875,5.63
14:36:24.937500,5.14
14:36:24.953125,4.56
14:36:24.968750,3.79
14:36:24.984375,2.76
14:36:25,1.44
14:36:25.015625,-0.14
14:36:25.031250,-1.91
14:36:25.046875,-3.71
14:36:25.062500,-5.43
14:36:25.078125,-6.99
14:36:25.093750,-8.44
14:36:25.109375,-9.84
14:36:25.125000,-11.28
14:36:25.140625,-12.82
14:36:25.156250,-14.49
14:36:25.171875,-16.32
14:36:25.187500,-18.38
14:36:25.203125,-20.66
14:36:25.218750,-22.95
14:36:25.234375,-24.78
14:36:25.250000,-25.47
14:36:25.265625,-24.42
14:36:25.281250,-21.30
14:36:25.296875,-16.30
14:36:25.312500,-10.09
14:36:25.328125,-3.53
14:36:25.343750,2.54
14:36:25.359375,7.63
14:36:25.375000,11.59
14:36:25.390625,14.47
14:36:25.406250,16.41
14:36:25.421875,17.48
14:36:25.437500,17.69
14:36:25.453125,17.03
14:36:25.468750,15.58
14:36:25.484375,13.55
14:36:25.500000,11.25
14:36:25.515625,9.02
14:36:25.531250,7.15
14:36:25.546875,5.85
14:36:25.562500,5.15
14:36:25.578125,4.96
14:36:25.593750,5.05
14:36:25.609375,5.14
14:36:25.625000,4.98
14:36:25.640625,4.36
14:36:25.656250,3.22
14:36:25.671875,1.60
14:36:25.687500,-0.37
14:36:25.703125,-2.51
14:36:25.718750,-4.65
14:36:25.734375,-6.66
14:36:25.750000,-8.46
14:36:25.765625,-10.10
14:36:25.781250,-11.65
14:36:25.796875,-13.28
14:36:25.812500,-15.15
14:36:25.828125,-17.36
14:36:25.843750,-19.85
14:36:25.859375,-22.32
14:36:25.875000,-24.23
14:36:25.890625,-24.90
14:36:25.906250,-23.78
14:36:25.921875,-20.61
14:36:25.937500,-15.63
14:36:25.953125,-9.48
14:36:25.968750,-3.03
14:36:25.984375,2.92
14:36:26,7.85
14:36:26.015625,11.60
14:36:26.031250,14.27
14:36:26.046875,16.04
14:36:26.062500,17.07
14:36:26.078125,17.45
14:36:26.093750,17.23
14:36:26.109375,16.49
14:36:26.125000,15.37
14:36:26.140625,14.00
14:36:26.156250,12.54
14:36:26.171875,11.11
14:36:26.187500,9.82
14:36:26.203125,8.71
14:36:26.218750,7.82
14:36:26.234375,7.14
14:36:26.250000,6.65
14:36:26.265625,6.27
14:36:26.281250,5.90
14:36:26.296875,5.39
14:36:26.312500,4.57
14:36:26.328125,3.25
14:36:26.343750,1.34
14:36:26.359375,-1.11
14:36:26.375000,-3.91
14:36:26.390625,-6.71
14:36:26.406250,-9.18
14:36:26.421875,-11.15
14:36:26.437500,-12.69
14:36:26.453125,-14.09
14:36:26.468750,-15.76
14:36:26.484375,-17.98
14:36:26.500000,-20.75
14:36:26.515625,-23.70
14:36:26.531250,-26.15
14:36:26.546875,-27.31
14:36:26.562500,-26.55
14:36:26.578125,-23.57
14:36:26.593750,-18.60
14:36:26.609375,-12.26
14:36:26.625000,-5.40
14:36:26.640625,1.21
14:36:26.656250,7.01
14:36:26.671875,11.71
14:36:26.687500,15.25
14:36:26.703125,17.63
14:36:26.718750,18.89
14:36:26.734375,19.08
14:36:26.750000,18.35
14:36:26.765625,16.96
14:36:26.781250,15.27
14:36:26.796875,13.60
14:36:26.812500,12.22
14:36:26.828125,11.19
14:36:26.843750,10.42
14:36:26.859375,9.77
14:36:26.875000,9.11
14:36:26.890625,8.37
14:36:26.906250,7.62
14:36:26.921875,6.90
14:36:26.937500,6.26
14:36:26.953125,5.65
14:36:26.968750,4.90
14:36:26.984375,3.84
14:36:27,2.31
14:36:27.015625,0.34
14:36:27.031250,-1.92
14:36:27.046875,-4.21
14:36:27.062500,-6.28
14:36:27.078125,-8.04
14:36:27.093750,-9.52
14:36:27.109375,-10.94
14:36:27.125000,-12.54
14:36:27.140625,-14.50
14:36:27.156250,-16.86
14:36:27.171875,-19.45
14:36:27.187500,-21.84
14:36:27.203125,-23.46
14:36:27.218750,-23.70
14:36:27.234375,-22.12
14:36:27.250000,-18.60
14:36:27.265625,-13.43
14:36:27.281250,-7.22
14:36:27.296875,-0.73
14:36:27.312500,5.34
14:36:27.328125,10.54
14:36:27.343750,14.67
14:36:27.359375,17.71
14:36:27.375000,19.71
14:36:27.390625,20.69
14:36:27.406250,20.68
14:36:27.421875,19.77
14:36:27.437500,18.18
14:36:27.453125,16.26
14:36:27.468750,14.37
14:36:27.484375,12.80
14:36:27.500000,11.66
14:36:27.515625,10.91
14:36:27.531250,10.41
14:36:27.546875,10.04
14:36:27.562500,9.69
14:36:27.578125,9.32
14:36:27.593750,8.90
14:36:27.609375,8.32
14:36:27.625000,7.44
14:36:27.640625,6.13
14:36:27.656250,4.32
14:36:27.671875,2.07
14:36:27.687500,-0.45
14:36:27.703125,-3.02
14:36:27.718750,-5.41
14:36:27.734375,-7.47
14:36:27.750000,-9.13
14:36:27.765625,-10.44
14:36:27.781250,-11.57
14:36:27.796875,-12.72
14:36:27.812500,-14.14
14:36:27.828125,-16.01
14:36:27.843750,-18.26
14:36:27.859375,-20.60
14:36:27.875000,-22.45
14:36:27.890625,-23.09
14:36:27.906250,-21.94
14:36:27.921875,-18.79
14:36:27.937500,-13.84
14:36:27.953125,-7.74
14:36:27.968750,-1.33
14:36:27.984375,4.62
14:36:28,9.57
14:36:28.015625,13.29
14:36:28.031250,15.77
14:36:28.046875,17.15
14:36:28.062500,17.55
14:36:28.078125,17.14
14:36:28.093750,16.10
14:36:28.109375,14.67
14:36:28.125000,13.07
14:36:28.140625,11.53
14:36:28.156250,10.15
14:36:28.171875,8.98
14:36:28.187500,8.02
14:36:28.203125,7.27
14:36:28.218750,6.76
14:36:28.234375,6.52
14:36:28.250000,6.52
14:36:28.265625,6.63
14:36:28.281250,6.58
14:36:28.296875,6.12
14:36:28.312500,5.08
14:36:28.328125,3.42
14:36:28.343750,1.33
14:36:28.359375,-0.96
14:36:28.375000,-3.17
14:36:28.390625,-5.14
14:36:28.406250,-6.84
14:36:28.421875,-8.34
14:36:28.437500,-9.79
14:36:28.453125,-11.34
14:36:28.468750,-13.11
14:36:28.484375,-15.14
14:36:28.500000,-17.32
14:36:28.515625,-19.32
14:36:28.531250,-20.63
14:36:28.546875,-20.67
14:36:28.562500,-18.99
14:36:28.578125,-15.45
14:36:28.593750,-10.37
14:36:28.609375,-4.38
14:36:28.625000,1.69
14:36:28.640625,7.09
14:36:28.656250,11.34
14:36:28.671875,14.29
14:36:28.687500,16.04
14:36:28.703125,16.85
14:36:28.718750,16.96
14:36:28.734375,16.55
14:36:28.750000,15.72
14:36:28.765625,14.51
14:36:28.781250,12.99
14:36:28.796875,11.26
14:36:28.812500,9.49
14:36:28.828125,7.84
14:36:28.843750,6.44
14:36:28.859375,5.36
14:36:28.875000,4.58
14:36:28.890625,4.02
14:36:28.906250,3.55
14:36:28.921875,3.05
14:36:28.937500,2.42
14:36:28.953125,1.61
14:36:28.968750,0.61
14:36:28.984375,-0.55
14:36:29,-1.87
14:36:29.015625,-3.33
14:36:29.031250,-4.96
14:36:29.046875,-6.79
14:36:29.062500,-8.89
14:36:29.078125,-11.29
14:36:29.093750,-13.98
14:36:29.109375,-16.85
14:36:29.125000,-19.70
14:36:29.140625,-22.13
14:36:29.156250,-23.65
14:36:29.171875,-23.74
14:36:29.187500,-21.97
14:36:29.203125,-18.26
14:36:29.218750,-12.90
14:36:29.234375,-6.57
14:36:29.250000,-0.14
14:36:29.265625,5.64
14:36:29.281250,10.26
14:36:29.296875,13.56
14:36:29.312500,15.64
14:36:29.328125,16.71
14:36:29.343750,16.99
14:36:29.359375,16.61
14:36:29.375000,15.69
14:36:29.390625,14.39
14:36:29.406250,12.89
14:36:29.421875,11.37
14:36:29.437500,9.97
14:36:29.453125,8.77
14:36:29.468750,7.81
14:36:29.484375,7.02
14:36:29.500000,6.31
14:36:29.515625,5.53
14:36:29.531250,4.53
14:36:29.546875,3.16
14:36:29.562500,1.32
14:36:29.578125,-0.93
14:36:29.593750,-3.43
14:36:29.609375,-5.99
14:36:29.625000,-8.44
14:36:29.640625,-10.68
14:36:29.656250,-12.71
14:36:29.671875,-14.59
14:36:29.687500,-16.39
14:36:29.703125,-18.20
14:36:29.718750,-20.11
14:36:29.734375,-22.16
14:36:29.750000,-24.25
14:36:29.765625,-26.08
14:36:29.781250,-27.16
14:36:29.796875,-26.92
14:36:29.812500,-24.92
14:36:29.828125,-21.08
14:36:29.843750,-15.73
14:36:29.859375,-9.51
14:36:29.875000,-3.21
14:36:29.890625,2.47
14:36:29.906250,7.10
14:36:29.921875,10.51
14:36:29.937500,12.77
14:36:29.953125,14.08
14:36:29.968750,14.72
14:36:29.984375,14.97
14:36:30,15.10
14:36:30.015625,15.28
14:36:30.031250,15.59
14:36:30.046875,15.97
14:36:30.062500,16.31
14:36:30.078125,16.45
14:36:30.093750,16.21
14:36:30.109375,15.52
14:36:30.125000,14.36
14:36:30.140625,12.79
14:36:30.156250,10.93
14:36:30.171875,8.95
14:36:30.187500,6.97
14:36:30.203125,5.09
14:36:30.218750,3.36
14:36:30.234375,1.80
14:36:30.250000,0.43
14:36:30.265625,-0.71
14:36:30.281250,-1.57
14:36:30.296875,-2.15
14:36:30.312500,-2.47
14:36:30.328125,-2.61
14:36:30.343750,-2.72
14:36:30.359375,-3.03
14:36:30.375000,-3.82
14:36:30.390625,-5.39
14:36:30.406250,-7.88
14:36:30.421875,-11.22
14:36:30.437500,-14.95
14:36:30.453125,-18.32
14:36:30.468750,-20.41
14:36:30.484375,-20.45
14:36:30.500000,-18.08
14:36:30.515625,-13.47
14:36:30.531250,-7.27
14:36:30.546875,-0.44
14:36:30.562500,6.10
14:36:30.578125,11.66
14:36:30.593750,15.90
14:36:30.609375,18.79
14:36:30.625000,20.47
14:36:30.640625,21.17
14:36:30.656250,21.07
14:36:30.671875,20.37
14:36:30.687500,19.26
14:36:30.703125,17.97
14:36:30.718750,16.70
14:36:30.734375,15.56
14:36:30.750000,14.56
14:36:30.765625,13.65
14:36:30.781250,12.69
14:36:30.796875,11.64
14:36:30.812500,10.51
14:36:30.828125,9.37
14:36:30.843750,8.32
14:36:30.859375,7.42
14:36:30.875000,6.64
14:36:30.890625,5.88
14:36:30.906250,5.00
14:36:30.921875,3.85
14:36:30.937500,2.30
14:36:30.953125,0.34
14:36:30.968750,-1.97
14:36:30.984375,-4.41
14:36:31,-6.74
14:36:31.015625,-8.76
14:36:31.031250,-10.42
14:36:31.046875,-11.83
14:36:31.062500,-13.28
14:36:31.078125,-15.05
14:36:31.093750,-17.30
14:36:31.109375,-19.92
14:36:31.125000,-22.55
14:36:31.140625,-24.58
14:36:31.156250,-25.38
14:36:31.171875,-24.47
14:36:31.187500,-21.71
14:36:31.203125,-17.34
14:36:31.218750,-11.90
14:36:31.234375,-6.07
14:36:31.250000,-0.48
14:36:31.265625,4.46
14:36:31.281250,8.50
14:36:31.296875,11.57
14:36:31.312500,13.64
14:36:31.328125,14.73
14:36:31.343750,14.88
14:36:31.359375,14.30
14:36:31.375000,13.31
14:36:31.390625,12.25
14:36:31.406250,11.45
14:36:31.421875,11.02
14:36:31.437500,10.86
14:36:31.453125,10.73
14:36:31.468750,10.39
14:36:31.484375,9.72
14:36:31.500000,8.73
14:36:31.515625,7.56
14:36:31.531250,6.37
14:36:31.546875,5.24
14:36:31.562500,4.15
14:36:31.578125,2.95
14:36:31.593750,1.48
14:36:31.609375,-0.36
14:36:31.625000,-2.61
14:36:31.640625,-5.20
14:36:31.656250,-8.00
14:36:31.671875,-10.84
14:36:31.687500,-13.60
14:36:31.703125,-16.17
14:36:31.718750,-18.52
14:36:31.734375,-20.70
14:36:31.750000,-22.86
14:36:31.765625,-25.21
14:36:31.781250,-27.94
14:36:31.796875,-31.12
14:36:31.812500,-34.53
14:36:31.828125,-37.61
14:36:31.843750,-39.53
14:36:31.859375,-39.43
14:36:31.875000,-36.73
14:36:31.890625,-31.32
14:36:31.906250,-23.71
14:36:31.921875,-14.76
14:36:31.937500,-5.49
14:36:31.953125,3.24
14:36:31.968750,10.90
14:36:31.984375,17.26
14:36:32,22.27
14:36:32.015625,25.92
14:36:32.031250,28.22
14:36:32.046875,29.17
14:36:32.062500,28.86
14:36:32.078125,27.49
14:36:32.093750,25.35
14:36:32.109375,22.75
14:36:32.125000,19.92
14:36:32.140625,17.01
14:36:32.156250,14.05
14:36:32.171875,11.09
14:36:32.187500,8.15
14:36:32.203125,5.33
14:36:32.218750,2.76
14:36:32.234375,0.52
14:36:32.250000,-1.32
14:36:32.265625,-2.80
14:36:32.281250,-4.04
14:36:32.296875,-5.19
14:36:32.312500,-6.38
14:36:32.328125,-7.67
14:36:32.343750,-9.01
14:36:32.359375,-10.36
14:36:32.375000,-11.65
14:36:32.390625,-12.94
14:36:32.406250,-14.35
14:36:32.421875,-16.06
14:36:32.437500,-18.13
14:36:32.453125,-20.44
14:36:32.468750,-22.60
14:36:32.484375,-24.01
14:36:32.500000,-24.03
14:36:32.515625,-22.20
14:36:32.531250,-18.37
14:36:32.546875,-12.80
14:36:32.562500,-6.09
14:36:32.578125,0.99
14:36:32.593750,7.71
14:36:32.609375,13.51
14:36:32.625000,18.11
14:36:32.640625,21.44
14:36:32.656250,23.57
14:36:32.671875,24.58
14:36:32.687500,24.53
14:36:32.703125,23.51
14:36:32.718750,21.69
14:36:32.734375,19.35
14:36:32.750000,16.87
14:36:32.765625,14.58
14:36:32.781250,12.71
14:36:32.796875,11.30
14:36:32.812500,10.28
14:36:32.828125,9.50
14:36:32.843750,8.84
14:36:32.859375,8.22
14:36:32.875000,7.52
14:36:32.890625,6.65
14:36:32.906250,5.50
14:36:32.921875,4.02
14:36:32.937500,2.26
14:36:32.953125,0.33
14:36:32.968750,-1.62
14:36:32.984375,-3.50
14:36:33,-5.34
14:36:33.015625,-7.22
14:36:33.031250,-9.31
14:36:33.046875,-11.80
14:36:33.062500,-14.79
14:36:33.078125,-18.19
14:36:33.093750,-21.69
14:36:33.109375,-24.67
14:36:33.125000,-26.36
14:36:33.140625,-26.04
14:36:33.156250,-23.37
14:36:33.171875,-18.54
14:36:33.187500,-12.22
14:36:33.203125,-5.36
14:36:33.218750,1.13
14:36:33.234375,6.64
14:36:33.250000,10.91
14:36:33.265625,13.98
14:36:33.281250,15.98
14:36:33.296875,17.05
14:36:33.312500,17.32
14:36:33.328125,16.91
14:36:33.343750,16.01
14:36:33.359375,14.90
14:36:33.375000,13.79
14:36:33.390625,12.87
14:36:33.406250,12.17
14:36:33.421875,11.62
14:36:33.437500,11.13
14:36:33.453125,10.61
14:36:33.468750,9.98
14:36:33.484375,9.24
14:36:33.500000,8.35
14:36:33.515625,7.34
14:36:33.531250,6.20
14:36:33.546875,4.95
14:36:33.562500,3.61
14:36:33.578125,2.22
14:36:33.593750,0.77
14:36:33.609375,-0.79
14:36:33.625000,-2.58
14:36:33.640625,-4.85
14:36:33.656250,-7.87
14:36:33.671875,-11.89
14:36:33.687500,-17.00
14:36:33.703125,-22.96
14:36:33.718750,-29.19
14:36:33.734375,-34.78
14:36:33.750000,-38.68
14:36:33.765625,-39.91
14:36:33.781250,-37.88
14:36:33.796875,-32.49
14:36:33.812500,-24.26
14:36:33.828125,-14.21
14:36:33.843750,-3.66
14:36:33.859375,6.08
14:36:33.875000,13.98
14:36:33.890625,19.49
14:36:33.906250,22.52
14:36:33.921875,23.39
14:36:33.937500,22.62
14:36:33.953125,20.76
14:36:33.968750,18.36
14:36:33.984375,15.83
14:36:34,13.52
14:36:34.015625,11.70
14:36:34.031250,10.51
14:36:34.046875,10.00
14:36:34.062500,10.13
14:36:34.078125,10.82
14:36:34.093750,11.97
14:36:34.109375,13.48
14:36:34.125000,15.24
14:36:34.140625,17.04
14:36:34.156250,18.59
14:36:34.171875,19.55
14:36:34.187500,19.65
14:36:34.203125,18.77
14:36:34.218750,16.94
14:36:34.234375,14.32
14:36:34.250000,11.11
14:36:34.265625,7.52
14:36:34.281250,3.73
14:36:34.296875,-0.16
14:36:34.312500,-4.09
14:36:34.328125,-8.02
14:36:34.343750,-12.01
14:36:34.359375,-16.03
14:36:34.375000,-19.98
14:36:34.390625,-23.47
14:36:34.406250,-25.93
14:36:34.421875,-26.67
14:36:34.437500,-25.19
14:36:34.453125,-21.42
14:36:34.468750,-15.76
14:36:34.484375,-9.01
14:36:34.500000,-2.11
14:36:34.515625,4.15
14:36:34.531250,9.25
14:36:34.546875,13.01
14:36:34.562500,15.45
14:36:34.578125,16.69
14:36:34.593750,16.86
14:36:34.609375,16.13
14:36:34.625000,14.72
14:36:34.640625,12.89
14:36:34.656250,10.91
14:36:34.671875,9.03
14:36:34.687500,7.37
14:36:34.703125,5.96
14:36:34.718750,4.75
14:36:34.734375,3.67
14:36:34.750000,2.69
14:36:34.765625,1.84
14:36:34.781250,1.13
14:36:34.796875,0.58
14:36:34.812500,0.12
14:36:34.828125,-0.34
14:36:34.843750,-0.93
14:36:34.859375,-1.74
14:36:34.875000,-2.77
14:36:34.890625,-3.98
14:36:34.906250,-5.27
14:36:34.921875,-6.58
14:36:34.937500,-7.88
14:36:34.953125,-9.22
14:36:34.968750,-10.70
14:36:34.984375,-12.46
14:36:35,-14.63
14:36:35.015625,-17.23
14:36:35.031250,-20.10
14:36:35.046875,-22.86
14:36:35.062500,-24.91
14:36:35.078125,-25.61
14:36:35.093750,-24.48
14:36:35.109375,-21.35
14:36:35.125000,-16.50
14:36:35.140625,-10.55
14:36:35.156250,-4.29
14:36:35.171875,1.56
14:36:35.187500,6.51
14:36:35.203125,10.37
14:36:35.218750,13.19
14:36:35.234375,15.04
14:36:35.250000,16.01
14:36:35.265625,16.16
14:36:35.281250,15.60
14:36:35.296875,14.52
14:36:35.312500,13.24
14:36:35.328125,12.04
14:36:35.343750,11.15
14:36:35.359375,10.61
14:36:35.375000,10.32
14:36:35.390625,10.08
14:36:35.406250,9.76
14:36:35.421875,9.30
14:36:35.437500,8.70
14:36:35.453125,7.99
14:36:35.468750,7.15
14:36:35.484375,6.12
14:36:35.500000,4.81
14:36:35.515625,3.22
14:36:35.531250,1.39
14:36:35.546875,-0.49
14:36:35.562500,-2.27
14:36:35.578125,-3.81
14:36:35.593750,-5.16
14:36:35.609375,-6.53
14:36:35.625000,-8.22
14:36:35.640625,-10.50
14:36:35.656250,-13.43
14:36:35.671875,-16.77
14:36:35.687500,-20.00
14:36:35.703125,-22.41
14:36:35.718750,-23.29
14:36:35.734375,-22.16
14:36:35.750000,-18.96
14:36:35.765625,-14.03
14:36:35.781250,-8.06
14:36:35.796875,-1.90
14:36:35.812500,3.68
14:36:35.828125,8.18
14:36:35.843750,11.39
14:36:35.859375,13.37
14:36:35.875000,14.28
14:36:35.890625,14.35
14:36:35.906250,13.75
14:36:35.921875,12.64
14:36:35.937500,11.24
14:36:35.953125,9.79
14:36:35.968750,8.56
14:36:35.984375,7.76
14:36:36,7.47
14:36:36.015625,7.60
14:36:36.031250,7.93
14:36:36.046875,8.18
14:36:36.062500,8.10
14:36:36.078125,7.54
14:36:36.093750,6.50
14:36:36.109375,5.08
14:36:36.125000,3.39
14:36:36.140625,1.54
14:36:36.156250,-0.38
14:36:36.171875,-2.31
14:36:36.187500,-4.21
14:36:36.203125,-5.99
14:36:36.218750,-7.62
14:36:36.234375,-9.14
14:36:36.250000,-10.71
14:36:36.265625,-12.55
14:36:36.281250,-14.89
14:36:36.296875,-17.78
14:36:36.312500,-21.02
14:36:36.328125,-24.10
14:36:36.343750,-26.31
14:36:36.359375,-26.95
14:36:36.375000,-25.55
14:36:36.390625,-22.03
14:36:36.406250,-16.78
14:36:36.421875,-10.50
14:36:36.437500,-4.07
14:36:36.453125,1.81
14:36:36.468750,6.70
14:36:36.484375,10.48
14:36:36.500000,13.25
14:36:36.515625,15.20
14:36:36.531250,16.43
14:36:36.546875,16.97
14:36:36.562500,16.83
14:36:36.578125,16.09
14:36:36.593750,14.90
14:36:36.609375,13.50
14:36:36.625000,12.11
14:36:36.640625,10.87
14:36:36.656250,9.86
14:36:36.671875,9.11
14:36:36.687500,8.62
14:36:36.703125,8.35
14:36:36.718750,8.18
14:36:36.734375,7.91
14:36:36.750000,7.26
14:36:36.765625,6.03
14:36:36.781250,4.17
14:36:36.796875,1.88
14:36:36.812500,-0.48
14:36:36.828125,-2.59
14:36:36.843750,-4.27
14:36:36.859375,-5.66
14:36:36.875000,-7.07
14:36:36.890625,-8.87
14:36:36.906250,-11.29
14:36:36.921875,-14.37
14:36:36.937500,-17.92
14:36:36.953125,-21.62
14:36:36.968750,-25.12
14:36:36.984375,-28.12
14:36:37,-30.43
14:36:37.015625,-31.95
14:36:37.031250,-32.65
14:36:37.046875,-32.51
14:36:37.062500,-31.44
14:36:37.078125,-29.27
14:36:37.093750,-25.85
14:36:37.109375,-21.17
14:36:37.125000,-15.56
14:36:37.140625,-9.83
14:36:37.156250,-5.18
14:36:37.171875,-2.91
14:36:37.187500,-4.02
14:36:37.203125,-8.85
14:36:37.218750,-16.91
14:36:37.234375,-27.03
14:36:37.250000,-37.61
14:36:37.265625,-47.15
14:36:37.281250,-54.62
14:36:37.296875,-59.92
14:36:37.312500,-64.09
14:36:37.328125,-69.30
14:36:37.343750,-78.35
14:36:37.359375,-93.76
14:36:37.375000,-116.33
14:36:37.390625,-144.06
14:36:37.406250,-172.22
14:36:37.421875,-194.70
14:36:37.437500,-206.30
14:36:37.453125,-204.91
14:36:37.468750,-192.20
14:36:37.484375,-172.57
14:36:37.500000,-150.91
14:36:37.515625,-130.22
14:36:37.531250,-110.68
14:36:37.546875,-90.37
14:36:37.562500,-67.02
14:36:37.578125,-39.80
14:36:37.593750,-9.92
14:36:37.609375,19.92
14:36:37.625000,46.74
14:36:37.640625,68.39
14:36:37.656250,84.04
14:36:37.671875,93.87
14:36:37.687500,98.73
14:36:37.703125,99.83
14:36:37.718750,98.67
14:36:37.734375,97.10
14:36:37.750000,97.25
14:36:37.765625,100.96
14:36:37.781250,109.08
14:36:37.796875,120.59
14:36:37.812500,132.50
14:36:37.828125,140.63
14:36:37.843750,141.15
14:36:37.859375,132.06
14:36:37.875000,114.11
14:36:37.890625,90.45
14:36:37.906250,65.21
14:36:37.921875,41.96
14:36:37.937500,22.75
14:36:37.953125,8.16
14:36:37.968750,-1.71
14:36:37.984375,-6.47
14:36:38,-5.31
14:36:38.015625,2.26
14:36:38.031250,15.49
14:36:38.046875,31.99
14:36:38.062500,48.29
14:36:38.078125,61.12
14:36:38.093750,68.65
14:36:38.109375,70.96
14:36:38.125000,69.57
14:36:38.140625,66.38
14:36:38.156250,62.79
14:36:38.171875,59.21
14:36:38.187500,55.27
14:36:38.203125,50.40
14:36:38.218750,44.27
14:36:38.234375,36.92
14:36:38.250000,28.53
14:36:38.265625,19.11
14:36:38.281250,8.28
14:36:38.296875,-4.43
14:36:38.312500,-19.06
14:36:38.328125,-34.70
14:36:38.343750,-49.39
14:36:38.359375,-60.64
14:36:38.375000,-66.40
14:36:38.390625,-66.00
14:36:38.406250,-60.42
14:36:38.421875,-51.91
14:36:38.437500,-42.90
14:36:38.453125,-34.81
14:36:38.468750,-27.57
14:36:38.484375,-19.91
14:36:38.500000,-10.34
14:36:38.515625,1.84
14:36:38.531250,16.09
14:36:38.546875,31.00
14:36:38.562500,45.18
14:36:38.578125,58.02
14:36:38.593750,69.82
14:36:38.609375,81.31
14:36:38.625000,92.86
14:36:38.640625,104.02
14:36:38.656250,113.58
14:36:38.671875,120.16
14:36:38.687500,122.94
14:36:38.703125,121.91
14:36:38.718750,117.53
14:36:38.734375,110.08
14:36:38.750000,99.18
14:36:38.765625,83.93
14:36:38.781250,63.79
14:36:38.796875,39.57
14:36:38.812500,13.90
14:36:38.828125,-9.37
14:36:38.843750,-26.59
14:36:38.859375,-35.83
14:36:38.875000,-37.67
14:36:38.890625,-34.77
14:36:38.906250,-30.65
14:36:38.921875,-28.10
14:36:38.937500,-28.28
14:36:38.953125,-30.64
14:36:38.968750,-33.56
14:36:38.984375,-35.22
14:36:39,-34.23
14:36:39.015625,-29.85
14:36:39.031250,-21.83
14:36:39.046875,-10.29
14:36:39.062500,4.35
14:36:39.078125,21.29
14:36:39.093750,39.44
14:36:39.109375,57.51
14:36:39.125000,74.09
14:36:39.140625,87.67
14:36:39.156250,96.58
14:36:39.171875,98.96
14:36:39.187500,93.14
14:36:39.203125,78.16
14:36:39.218750,54.43
14:36:39.234375,23.98
14:36:39.250000,-9.73
14:36:39.265625,-42.49
14:36:39.281250,-70.22
14:36:39.296875,-89.70
14:36:39.312500,-99.13
14:36:39.328125,-98.33
14:36:39.343750,-88.67
14:36:39.359375,-72.83
14:36:39.375000,-54.20
14:36:39.390625,-36.22
14:36:39.406250,-21.57
14:36:39.421875,-11.65
14:36:39.437500,-6.39
14:36:39.453125,-4.62
14:36:39.468750,-4.72
14:36:39.484375,-5.20
14:36:39.500000,-5.09
14:36:39.515625,-3.85
14:36:39.531250,-1.26
14:36:39.546875,2.86
14:36:39.562500,8.68
14:36:39.578125,16.28
14:36:39.593750,25.55
14:36:39.609375,36.04
14:36:39.625000,47.03
14:36:39.640625,57.74
14:36:39.656250,67.48
14:36:39.671875,75.71
14:36:39.687500,81.96
14:36:39.703125,85.68
14:36:39.718750,86.08
14:36:39.734375,82.24
14:36:39.750000,73.38
14:36:39.765625,59.32
14:36:39.781250,40.84
14:36:39.796875,19.78
14:36:39.812500,-1.24
14:36:39.828125,-19.44
14:36:39.843750,-32.66
14:36:39.859375,-40.03
14:36:39.875000,-42.24
14:36:39.890625,-41.31
14:36:39.906250,-39.84
14:36:39.921875,-40.11
14:36:39.937500,-43.35
14:36:39.953125,-49.48
14:36:39.968750,-57.33
14:36:39.984375,-65.28
14:36:40,-71.90
14:36:40.015625,-76.34
14:36:40.031250,-78.34
14:36:40.046875,-78.07
14:36:40.062500,-75.84
14:36:40.078125,-71.97
14:36:40.093750,-66.72
14:36:40.109375,-60.29
14:36:40.125000,-52.89
14:36:40.140625,-44.68
14:36:40.156250,-35.74
14:36:40.171875,-26.17
14:36:40.187500,-16.14
14:36:40.203125,-6.08
14:36:40.218750,3.37
14:36:40.234375,11.37
14:36:40.250000,17.13
14:36:40.265625,20.05
14:36:40.281250,19.83
14:36:40.296875,16.52
14:36:40.312500,10.48
14:36:40.328125,2.38
14:36:40.343750,-6.85
14:36:40.359375,-16.11
14:36:40.375000,-24.31
14:36:40.390625,-30.64
14:36:40.406250,-34.78
14:36:40.421875,-36.94
14:36:40.437500,-37.65
14:36:40.453125,-37.49
14:36:40.468750,-36.72
14:36:40.484375,-35.25
14:36:40.500000,-32.70
14:36:40.515625,-28.67
14:36:40.531250,-23.03
14:36:40.546875,-15.97
14:36:40.562500,-8.01
14:36:40.578125,0.21
14:36:40.593750,8.13
14:36:40.609375,15.36
14:36:40.625000,21.77
14:36:40.640625,27.43
14:36:40.656250,32.56
14:36:40.671875,37.42
14:36:40.687500,42.21
14:36:40.703125,46.99
14:36:40.718750,51.63
14:36:40.734375,55.80
14:36:40.750000,59.11
14:36:40.765625,61.20
14:36:40.781250,61.88
14:36:40.796875,61.17
14:36:40.812500,59.19
14:36:40.828125,56.06
14:36:40.843750,51.75
14:36:40.859375,46.13
14:36:40.875000,38.99
14:36:40.890625,30.25
14:36:40.906250,20.01
14:36:40.921875,8.57
14:36:40.937500,-3.67
14:36:40.953125,-16.18
14:36:40.968750,-28.37
14:36:40.984375,-39.57
14:36:41,-49.06
14:36:41.015625,-56.23
14:36:41.031250,-60.78
14:36:41.046875,-62.79
14:36:41.062500,-62.75
14:36:41.078125,-61.43
14:36:41.093750,-59.61
14:36:41.109375,-57.88
14:36:41.125000,-56.48
14:36:41.140625,-55.33
14:36:41.156250,-54.11
14:36:41.171875,-52.39
14:36:41.187500,-49.79
14:36:41.203125,-46.08
14:36:41.218750,-41.29
14:36:41.234375,-35.69
14:36:41.250000,-29.73
14:36:41.265625,-23.88
14:36:41.281250,-18.49
14:36:41.296875,-13.69
14:36:41.312500,-9.44
14:36:41.328125,-5.58
14:36:41.343750,-2.02
14:36:41.359375,1.24
14:36:41.375000,4.07
14:36:41.390625,6.33
14:36:41.406250,7.95
14:36:41.421875,8.98
14:36:41.437500,9.56
14:36:41.453125,9.85
14:36:41.468750,9.92
14:36:41.484375,9.76
14:36:41.500000,9.28
14:36:41.515625,8.39
14:36:41.531250,7.05
14:36:41.546875,5.27
14:36:41.562500,3.10
14:36:41.578125,0.69
14:36:41.593750,-1.72
14:36:41.609375,-3.70
14:36:41.625000,-4.76
14:36:41.640625,-4.40
14:36:41.656250,-2.32
14:36:41.671875,1.42
14:36:41.687500,6.46
14:36:41.703125,12.15
14:36:41.718750,17.82
14:36:41.734375,22.90
14:36:41.750000,27.03
14:36:41.765625,30.02
14:36:41.781250,31.82
14:36:41.796875,32.50
14:36:41.812500,32.21
14:36:41.828125,31.21
14:36:41.843750,29.78
14:36:41.859375,28.18
14:36:41.875000,26.60
14:36:41.890625,25.15
14:36:41.906250,23.84
14:36:41.921875,22.65
14:36:41.937500,21.55
14:36:41.953125,20.53
14:36:41.968750,19.52
14:36:41.984375,18.48
14:36:42,17.34
14:36:42.015625,16.07
14:36:42.031250,14.72
14:36:42.046875,13.35
14:36:42.062500,12.00
14:36:42.078125,10.61
14:36:42.093750,9.08
14:36:42.109375,7.30
14:36:42.125000,5.23
14:36:42.140625,2.99
14:36:42.156250,0.77
14:36:42.171875,-1.26
14:36:42.187500,-3.05
14:36:42.203125,-4.75
14:36:42.218750,-6.67
14:36:42.234375,-9.17
14:36:42.250000,-12.42
14:36:42.265625,-16.28
14:36:42.281250,-20.23
14:36:42.296875,-23.50
14:36:42.312500,-25.26
14:36:42.328125,-24.97
14:36:42.343750,-22.48
14:36:42.359375,-18.12
14:36:42.375000,-12.53
14:36:42.390625,-6.46
14:36:42.406250,-0.50
14:36:42.421875,4.95
14:36:42.437500,9.71
14:36:42.453125,13.71
14:36:42.468750,16.90
14:36:42.484375,19.29
14:36:42.500000,20.88
14:36:42.515625,21.82
14:36:42.531250,22.34
14:36:42.546875,22.72
14:36:42.562500,23.21
14:36:42.578125,23.91
14:36:42.593750,24.75
14:36:42.609375,25.48
14:36:42.625000,25.84
14:36:42.640625,25.59
14:36:42.656250,24.65
14:36:42.671875,23.12
14:36:42.687500,21.24
14:36:42.703125,19.29
14:36:42.718750,17.50
14:36:42.734375,15.95
14:36:42.750000,14.60
14:36:42.765625,13.27
14:36:42.781250,11.76
14:36:42.796875,9.92
14:36:42.812500,7.69
14:36:42.828125,5.14
14:36:42.843750,2.41
14:36:42.859375,-0.35
14:36:42.875000,-3.06
14:36:42.890625,-5.71
14:36:42.906250,-8.41
14:36:42.921875,-11.24
14:36:42.937500,-14.24
14:36:42.953125,-17.36
14:36:42.968750,-20.46
14:36:42.984375,-23.35
14:36:43,-25.74
14:36:43.015625,-27.33
14:36:43.031250,-27.74
14:36:43.046875,-26.70
14:36:43.062500,-24.07
14:36:43.078125,-19.95
14:36:43.093750,-14.74
14:36:43.109375,-9.02
14:36:43.125000,-3.40
14:36:43.140625,1.63
14:36:43.156250,5.78
14:36:43.171875,8.96
14:36:43.187500,11.18
14:36:43.203125,12.53
14:36:43.218750,13.11
14:36:43.234375,13.04
14:36:43.250000,12.48
14:36:43.265625,11.64
14:36:43.281250,10.70
14:36:43.296875,9.79
14:36:43.312500,8.92
14:36:43.328125,8.02
14:36:43.343750,6.99
14:36:43.359375,5.73
14:36:43.375000,4.25
14:36:43.390625,2.64
14:36:43.406250,1.02
14:36:43.421875,-0.47
14:36:43.437500,-1.75
14:36:43.453125,-2.85
14:36:43.468750,-3.91
14:36:43.484375,-5.13
14:36:43.500000,-6.71
14:36:43.515625,-8.76
14:36:43.531250,-11.29
14:36:43.546875,-14.15
14:36:43.562500,-17.17
14:36:43.578125,-20.17
14:36:43.593750,-23.04
14:36:43.609375,-25.77
14:36:43.625000,-28.40
14:36:43.640625,-31.07
14:36:43.656250,-33.97
14:36:43.671875,-37.30
14:36:43.687500,-41.21
14:36:43.703125,-45.63
14:36:43.718750,-50.18
14:36:43.734375,-54.21
14:36:43.750000,-56.88
14:36:43.765625,-57.52
14:36:43.781250,-55.81
14:36:43.796875,-51.95
14:36:43.812500,-46.54
14:36:43.828125,-40.29
14:36:43.843750,-33.75
14:36:43.859375,-27.19
14:36:43.875000,-20.62
14:36:43.890625,-14.08
14:36:43.906250,-7.75
14:36:43.921875,-2.00
14:36:43.937500,2.76
14:36:43.953125,6.26
14:36:43.968750,8.57
14:36:43.984375,10.02
14:36:44,11.08
14:36:44.015625,12.12
14:36:44.031250,13.43
14:36:44.046875,15.22
14:36:44.062500,17.72
14:36:44.078125,21.24
14:36:44.093750,25.98
14:36:44.109375,31.82
14:36:44.125000,38.19
14:36:44.140625,44.20
14:36:44.156250,48.91
14:36:44.171875,51.84
14:36:44.187500,53.07
14:36:44.203125,53.20
14:36:44.218750,52.93
14:36:44.234375,52.67
14:36:44.250000,52.28
14:36:44.265625,51.14
14:36:44.281250,48.55
14:36:44.296875,44.19
14:36:44.312500,38.40
14:36:44.328125,32.06
14:36:44.343750,26.17
14:36:44.359375,21.32
14:36:44.375000,17.43
14:36:44.390625,13.83
14:36:44.406250,9.68
14:36:44.421875,4.50
14:36:44.437500,-1.57
14:36:44.453125,-7.77
14:36:44.468750,-13.11
14:36:44.484375,-16.83
14:36:44.500000,-18.60
14:36:44.515625,-18.60
14:36:44.531250,-17.26
14:36:44.546875,-15.10
14:36:44.562500,-12.52
14:36:44.578125,-9.89
14:36:44.593750,-7.48
14:36:44.609375,-5.49
14:36:44.625000,-3.88
14:36:44.640625,-2.21
14:36:44.656250,0.27
14:36:44.671875,4.57
14:36:44.687500,11.52
14:36:44.703125,21.41
14:36:44.718750,33.63
14:36:44.734375,46.66
14:36:44.750000,58.39
14:36:44.765625,66.74
14:36:44.781250,70.48
14:36:44.796875,69.68
14:36:44.812500,65.83
14:36:44.828125,61.32
14:36:44.843750,58.54
14:36:44.859375,59.10
14:36:44.875000,63.21
14:36:44.890625,69.80
14:36:44.906250,76.93
14:36:44.921875,82.54
14:36:44.937500,85.06
14:36:44.953125,83.64
14:36:44.968750,78.12
14:36:44.984375,68.71
14:36:45,55.77
14:36:45.015625,39.83
14:36:45.031250,21.78
14:36:45.046875,2.93
14:36:45.062500,-14.94
14:36:45.078125,-30.02
14:36:45.093750,-40.95
14:36:45.109375,-47.25
14:36:45.125000,-49.46
14:36:45.140625,-48.84
14:36:45.156250,-46.84
14:36:45.171875,-44.62
14:36:45.187500,-42.73
14:36:45.203125,-41.15
14:36:45.218750,-39.46
14:36:45.234375,-37.20
14:36:45.250000,-34.07
14:36:45.265625,-30.15
14:36:45.281250,-25.90
14:36:45.296875,-22.14
14:36:45.312500,-19.75
14:36:45.328125,-19.39
14:36:45.343750,-21.22
14:36:45.359375,-24.75
14:36:45.375000,-29.04
14:36:45.390625,-33.06
14:36:45.406250,-36.11
14:36:45.421875,-38.01
14:36:45.437500,-39.03
14:36:45.453125,-39.61
14:36:45.468750,-40.00
14:36:45.484375,-40.20
14:36:45.500000,-39.97
14:36:45.515625,-39.20
14:36:45.531250,-38.02
14:36:45.546875,-36.95
14:36:45.562500,-36.64
14:36:45.578125,-37.49
14:36:45.593750,-39.48
14:36:45.609375,-42.12
14:36:45.625000,-44.70
14:36:45.640625,-46.64
14:36:45.656250,-47.74
14:36:45.671875,-48.19
14:36:45.687500,-48.45
14:36:45.703125,-48.96
14:36:45.718750,-49.92
14:36:45.734375,-51.21
14:36:45.750000,-52.38
14:36:45.765625,-52.80
14:36:45.781250,-51.83
14:36:45.796875,-49.07
14:36:45.812500,-44.47
14:36:45.828125,-38.44
14:36:45.843750,-31.67
14:36:45.859375,-24.96
14:36:45.875000,-18.89
14:36:45.890625,-13.60
14:36:45.906250,-8.86
14:36:45.921875,-4.15
14:36:45.937500,1.00
14:36:45.953125,6.94
14:36:45.968750,13.83
14:36:45.984375,21.55
14:36:46,29.65
14:36:46.015625,37.17
14:36:46.031250,42.82
14:36:46.046875,45.29
14:36:46.062500,43.96
14:36:46.078125,39.36
14:36:46.093750,33.28
14:36:46.109375,28.06
14:36:46.125000,25.57
14:36:46.140625,26.34
14:36:46.156250,29.36
14:36:46.171875,32.66
14:36:46.187500,34.42
14:36:46.203125,33.82
14:36:46.218750,31.25
14:36:46.234375,27.80
14:36:46.250000,24.42
14:36:46.265625,21.37
14:36:46.281250,18.20
14:36:46.296875,14.21
14:36:46.312500,9.07
14:36:46.328125,3.07
14:36:46.343750,-2.97
14:36:46.359375,-8.13
14:36:46.375000,-11.90
14:36:46.390625,-14.40
14:36:46.406250,-16.20
14:36:46.421875,-17.99
14:36:46.437500,-20.19
14:36:46.453125,-22.76
14:36:46.468750,-25.32
14:36:46.484375,-27.32
14:36:46.500000,-28.35
14:36:46.515625,-28.22
14:36:46.531250,-26.94
14:36:46.546875,-24.60
14:36:46.562500,-21.29
14:36:46.578125,-17.12
14:36:46.593750,-12.26
14:36:46.609375,-6.99
14:36:46.625000,-1.62
14:36:46.640625,3.63
14:36:46.656250,8.69
14:36:46.671875,13.60
14:36:46.687500,18.37
14:36:46.703125,22.89
14:36:46.718750,26.81
14:36:46.734375,29.71
14:36:46.750000,31.18
14:36:46.765625,31.02
14:36:46.781250,29.29
14:36:46.796875,26.26
14:36:46.812500,22.28
14:36:46.828125,17.74
14:36:46.843750,13.00
14:36:46.859375,8.43
14:36:46.875000,4.42
14:36:46.890625,1.36
14:36:46.906250,-0.43
14:36:46.921875,-0.86
14:36:46.937500,-0.16
14:36:46.953125,1.18
14:36:46.968750,2.48
14:36:46.984375,3.15
14:36:47,2.85
14:36:47.015625,1.60
14:36:47.031250,-0.28
14:36:47.046875,-2.38
14:36:47.062500,-4.40
14:36:47.078125,-6.25
14:36:47.093750,-7.98
14:36:47.109375,-9.61
14:36:47.125000,-10.98
14:36:47.140625,-11.76
14:36:47.156250,-11.55
14:36:47.171875,-10.09
14:36:47.187500,-7.44
14:36:47.203125,-3.97
14:36:47.218750,-0.31
14:36:47.234375,2.91
14:36:47.250000,5.31
14:36:47.265625,6.77
14:36:47.281250,7.48
14:36:47.296875,7.75
14:36:47.312500,7.79
14:36:47.328125,7.63
14:36:47.343750,7.13
14:36:47.359375,6.10
14:36:47.375000,4.53
14:36:47.390625,2.61
14:36:47.406250,0.68
14:36:47.421875,-0.93
14:36:47.437500,-2.11
14:36:47.453125,-2.97
14:36:47.468750,-3.76
14:36:47.484375,-4.68
14:36:47.500000,-5.75
14:36:47.515625,-6.77
14:36:47.531250,-7.51
14:36:47.546875,-7.83
14:36:47.562500,-7.79
14:36:47.578125,-7.61
14:36:47.593750,-7.56
14:36:47.609375,-7.85
14:36:47.625000,-8.50
14:36:47.640625,-9.40
14:36:47.656250,-10.36
14:36:47.671875,-11.22
14:36:47.687500,-11.94
14:36:47.703125,-12.60
14:36:47.718750,-13.41
14:36:47.734375,-14.56
14:36:47.750000,-16.17
14:36:47.765625,-18.22
14:36:47.781250,-20.51
14:36:47.796875,-22.70
14:36:47.812500,-24.39
14:36:47.828125,-25.18
14:36:47.843750,-24.74
14:36:47.859375,-22.93
14:36:47.875000,-19.79
14:36:47.890625,-15.58
14:36:47.906250,-10.76
14:36:47.921875,-5.82
14:36:47.937500,-1.22
14:36:47.953125,2.74
14:36:47.968750,5.95
14:36:47.984375,8.40
14:36:48,10.17
14:36:48.015625,11.31
14:36:48.031250,11.86
14:36:48.046875,11.88
14:36:48.062500,11.50
14:36:48.078125,10.95
14:36:48.093750,10.50
14:36:48.109375,10.36
14:36:48.125000,10.63
14:36:48.140625,11.23
14:36:48.156250,11.95
14:36:48.171875,12.53
14:36:48.187500,12.75
14:36:48.203125,12.50
14:36:48.218750,11.84
14:36:48.234375,10.91
14:36:48.250000,9.86
14:36:48.265625,8.77
14:36:48.281250,7.63
14:36:48.296875,6.39
14:36:48.312500,4.95
14:36:48.328125,3.26
14:36:48.343750,1.33
14:36:48.359375,-0.75
14:36:48.375000,-2.88
14:36:48.390625,-4.93
14:36:48.406250,-6.80
14:36:48.421875,-8.44
14:36:48.437500,-9.89
14:36:48.453125,-11.25
14:36:48.468750,-12.66
14:36:48.484375,-14.22
14:36:48.500000,-15.97
14:36:48.515625,-17.84
14:36:48.531250,-19.65
14:36:48.546875,-21.15
14:36:48.562500,-22.06
14:36:48.578125,-22.09
14:36:48.593750,-20.97
14:36:48.609375,-18.50
14:36:48.625000,-14.62
14:36:48.640625,-9.44
14:36:48.656250,-3.27
14:36:48.671875,3.45
14:36:48.687500,10.21
14:36:48.703125,16.54
14:36:48.718750,22.08
14:36:48.734375,26.61
14:36:48.750000,30.07
14:36:48.765625,32.56
14:36:48.781250,34.30
14:36:48.796875,35.63
14:36:48.812500,36.88
14:36:48.828125,38.31
14:36:48.843750,40.08
14:36:48.859375,42.22
14:36:48.875000,44.69
14:36:48.890625,47.47
14:36:48.906250,50.44
14:36:48.921875,53.55
14:36:48.937500,56.79
14:36:48.953125,60.20
14:36:48.968750,63.67
14:36:48.984375,67.03
14:36:49,70.13
14:36:49.015625,73.07
14:36:49.031250,76.11
14:36:49.046875,79.48
14:36:49.062500,83.33
14:36:49.078125,87.75
14:36:49.093750,92.69
14:36:49.109375,98.05
14:36:49.125000,103.74
14:36:49.140625,109.74
14:36:49.156250,115.94
14:36:49.171875,121.67
14:36:49.187500,125.15
14:36:49.203125,124.08
14:36:49.218750,116.41
14:36:49.234375,101.20
14:36:49.250000,78.63
14:36:49.265625,49.60
14:36:49.281250,14.98
14:36:49.296875,-24.58
14:36:49.312500,-68.24
14:36:49.328125,-114.78
14:36:49.343750,-160.33
14:36:49.359375,-198.13
14:36:49.375000,-220.36
14:36:49.390625,-221.66
14:36:49.406250,-201.64
14:36:49.421875,-165.08
14:36:49.437500,-119.84
14:36:49.453125,-74.20
14:36:49.468750,-36.78
14:36:49.484375,-13.41
14:36:49.500000,-6.27
14:36:49.515625,-14.52
14:36:49.531250,-35.94
14:36:49.546875,-67.48
14:36:49.562500,-104.83
14:36:49.578125,-142.47
14:36:49.593750,-174.83
14:36:49.609375,-201.22
14:36:49.625000,-222.45
14:36:49.640625,-238.32
14:36:49.656250,-246.70
14:36:49.671875,-245.26
14:36:49.687500,-233.29
14:36:49.703125,-212.05
14:36:49.718750,-184.54
14:36:49.734375,-154.90
14:36:49.750000,-131.78
14:36:49.765625,-122.15
14:36:49.781250,-128.01
14:36:49.796875,-146.36
14:36:49.812500,-172.70
14:36:49.828125,-203.49
14:36:49.843750,-236.24
14:36:49.859375,-268.87
14:36:49.875000,-272.63
14:36:49.890625,-231.02
14:36:49.906250,-151.03
14:36:49.921875,-58.97
14:36:49.937500,21.54
14:36:49.953125,81.29
14:36:49.968750,122.07
14:36:49.984375,149.69
14:36:50,169.49
14:36:50.015625,184.74
14:36:50.031250,192.52
14:36:50.046875,190.01
14:36:50.062500,178.07
14:36:50.078125,161.48
14:36:50.093750,145.63
14:36:50.109375,133.82
14:36:50.125000,127.01
14:36:50.140625,124.63
14:36:50.156250,125.45
14:36:50.171875,124.75
14:36:50.187500,118.78
14:36:50.203125,107.16
14:36:50.218750,92.76
14:36:50.234375,78.84
14:36:50.250000,67.06
14:36:50.265625,57.64
14:36:50.281250,50.55
14:36:50.296875,46.49
14:36:50.312500,44.87
14:36:50.328125,45.57
14:36:50.343750,48.97
14:36:50.359375,55.26
14:36:50.375000,62.87
14:36:50.390625,68.87
14:36:50.406250,70.72
14:36:50.421875,67.45
14:36:50.437500,60.26
14:36:50.453125,50.60
14:36:50.468750,40.08
14:36:50.484375,30.02
14:36:50.500000,21.39
14:36:50.515625,14.50
14:36:50.531250,9.31
14:36:50.546875,6.01
14:36:50.562500,5.10
14:36:50.578125,7.04
14:36:50.593750,11.21
14:36:50.609375,16.12
14:36:50.625000,19.86
14:36:50.640625,20.98
14:36:50.656250,18.79
14:36:50.671875,13.62
14:36:50.687500,6.76
14:36:50.703125,0.01
14:36:50.718750,-4.94
14:36:50.734375,-7.01
14:36:50.750000,-5.92
14:36:50.765625,-2.15
14:36:50.781250,3.76
14:36:50.796875,11.06
14:36:50.812500,18.98
14:36:50.828125,26.64
14:36:50.843750,33.13
14:36:50.859375,38.00
14:36:50.875000,41.31
14:36:50.890625,44.05
14:36:50.906250,44.88
14:36:50.921875,43.97
14:36:50.937500,41.83
14:36:50.953125,39.15
14:36:50.968750,36.32
14:36:50.984375,33.55
14:36:51,31.24
14:36:51.015625,29.69
14:36:51.031250,29.23
14:36:51.046875,29.40
14:36:51.062500,29.34
14:36:51.078125,27.99
14:36:51.093750,24.84
14:36:51.109375,19.60
14:36:51.125000,12.63
14:36:51.140625,5.18
14:36:51.156250,-1.03
14:36:51.171875,-3.97
14:36:51.187500,-2.69
14:36:51.203125,2.58
14:36:51.218750,10.50
14:36:51.234375,19.00
14:36:51.250000,24.42
14:36:51.265625,22.95
14:36:51.281250,12.20
14:36:51.296875,-8.80
14:36:51.312500,-35.45
14:36:51.328125,-59.61
14:36:51.343750,-75.21
14:36:51.359375,-81.47
14:36:51.375000,-81.02
14:36:51.390625,-78.46
14:36:51.406250,-80.39
14:36:51.421875,-87.81
14:36:51.437500,-99.66
14:36:51.453125,-114.82
14:36:51.468750,-133.63
14:36:51.484375,-156.94
14:36:51.500000,-184.60
14:36:51.515625,-207.96
14:36:51.531250,-219.65
14:36:51.546875,-214.23
14:36:51.562500,-189.77
14:36:51.578125,-147.35
14:36:51.593750,-91.78
14:36:51.609375,-31.22
14:36:51.625000,26.09
14:36:51.640625,75.36
14:36:51.656250,115.65
14:36:51.671875,147.41
14:36:51.687500,171.91
14:36:51.703125,178.11
14:36:51.718750,160.99
14:36:51.734375,127.37
14:36:51.750000,89.68
14:36:51.765625,56.52
14:36:51.781250,31.15
14:36:51.796875,13.32
14:36:51.812500,0.78
14:36:51.828125,-8.77
14:36:51.843750,-16.78
14:36:51.859375,-22.20
14:36:51.875000,-22.27
14:36:51.890625,-18.31
14:36:51.906250,-12.65
14:36:51.921875,-6.41
14:36:51.937500,-0.03
14:36:51.953125,6.17
14:36:51.968750,12.30
14:36:51.984375,18.89
14:36:52,28.15
14:36:52.015625,42.23
14:36:52.031250,62.24
14:36:52.046875,82.86
14:36:52.062500,101.60
14:36:52.078125,117.04
14:36:52.093750,128.29
14:36:52.109375,134.83
14:36:52.125000,136.47
14:36:52.140625,134.14
14:36:52.156250,128.81
14:36:52.171875,120.53
14:36:52.187500,108.95
14:36:52.203125,94.46
14:36:52.218750,76.93
14:36:52.234375,55.44
14:36:52.250000,28.40
14:36:52.265625,-5.76
14:36:52.281250,-47.11
14:36:52.296875,-93.90
14:36:52.312500,-142.79
14:36:52.328125,-189.12
14:36:52.343750,-227.25
14:36:52.359375,-252.92
14:36:52.375000,-264.15
14:36:52.390625,-261.41
14:36:52.406250,-246.85
14:36:52.421875,-223.05
14:36:52.437500,-192.52
14:36:52.453125,-157.71
14:36:52.468750,-121.15
14:36:52.484375,-84.88
14:36:52.500000,-50.50
14:36:52.515625,-18.22
14:36:52.531250,13.36
14:36:52.546875,46.74
14:36:52.562500,83.86
14:36:52.578125,124.42
14:36:52.593750,165.19
14:36:52.609375,200.90
14:36:52.625000,226.49
14:36:52.640625,238.95
14:36:52.656250,238.51
14:36:52.671875,228.24
14:36:52.687500,212.40
14:36:52.703125,194.70
14:36:52.718750,177.15
14:36:52.734375,160.24
14:36:52.750000,143.78
14:36:52.765625,127.87
14:36:52.781250,113.13
14:36:52.796875,100.36
14:36:52.812500,89.96
14:36:52.828125,81.54
14:36:52.843750,74.14
14:36:52.859375,66.78
14:36:52.875000,59.11
14:36:52.890625,51.62
14:36:52.906250,45.29
14:36:52.921875,40.81
14:36:52.937500,37.84
14:36:52.953125,34.72
14:36:52.968750,28.91
14:36:52.984375,18.04
14:36:53,1.06
14:36:53.015625,-21.16
14:36:53.031250,-46.04
14:36:53.046875,-70.20
14:36:53.062500,-90.76
14:36:53.078125,-106.35
14:36:53.093750,-117.26
14:36:53.109375,-125.08
14:36:53.125000,-131.73
14:36:53.140625,-138.60
14:36:53.156250,-146.07
14:36:53.171875,-153.45
14:36:53.187500,-159.29
14:36:53.203125,-161.59
14:36:53.218750,-158.17
14:36:53.234375,-147.00
14:36:53.250000,-126.74
14:36:53.265625,-97.46
14:36:53.281250,-61.08
14:36:53.296875,-21.33
14:36:53.312500,16.90
14:36:53.328125,48.86
14:36:53.343750,71.20
14:36:53.359375,82.96
14:36:53.375000,85.71
14:36:53.390625,82.76
14:36:53.406250,78.04
14:36:53.421875,74.83
14:36:53.437500,74.88
14:36:53.453125,78.31
14:36:53.468750,83.96
14:36:53.484375,90.05
14:36:53.500000,94.92
14:36:53.515625,97.38
14:36:53.531250,96.79
14:36:53.546875,93.00
14:36:53.562500,86.10
14:36:53.578125,76.45
14:36:53.593750,64.62
14:36:53.609375,51.34
14:36:53.625000,37.38
14:36:53.640625,23.23
14:36:53.656250,9.04
14:36:53.671875,-5.30
14:36:53.687500,-19.80
14:36:53.703125,-34.08
14:36:53.718750,-47.29
14:36:53.734375,-58.37
14:36:53.750000,-66.51
14:36:53.765625,-71.51
14:36:53.781250,-73.91
14:36:53.796875,-74.70
14:36:53.812500,-74.91
14:36:53.828125,-75.27
14:36:53.843750,-76.19
14:36:53.859375,-77.74
14:36:53.875000,-79.83
14:36:53.890625,-82.29
14:36:53.906250,-84.85
14:36:53.921875,-87.15
14:36:53.937500,-88.84
14:36:53.953125,-89.68
14:36:53.968750,-89.60
14:36:53.984375,-88.63
14:36:54,-86.84
14:36:54.015625,-84.10
14:36:54.031250,-80.19
14:36:54.046875,-74.86
14:36:54.062500,-68.02
14:36:54.078125,-59.84
14:36:54.093750,-50.70
14:36:54.109375,-41.07
14:36:54.125000,-31.38
14:36:54.140625,-21.98
14:36:54.156250,-13.14
14:36:54.171875,-5.16
14:36:54.187500,1.64
14:36:54.203125,7.01
14:36:54.218750,10.78
14:36:54.234375,13.03
14:36:54.250000,14.07
14:36:54.265625,14.35
14:36:54.281250,14.38
14:36:54.296875,14.63
14:36:54.312500,15.36
14:36:54.328125,16.65
14:36:54.343750,18.33
14:36:54.359375,20.06
14:36:54.375000,21.38
14:36:54.390625,21.95
14:36:54.406250,21.59
14:36:54.421875,20.42
14:36:54.437500,18.79
14:36:54.453125,17.16
14:36:54.468750,15.80
14:36:54.484375,14.66
14:36:54.500000,13.23
14:36:54.515625,10.64
14:36:54.531250,6.08
14:36:54.546875,-0.86
14:36:54.562500,-9.86
14:36:54.578125,-19.92
14:36:54.593750,-29.73
14:36:54.609375,-38.23
14:36:54.625000,-45.08
14:36:54.640625,-50.74
14:36:54.656250,-56.19
14:36:54.671875,-62.41
14:36:54.687500,-69.88
14:36:54.703125,-78.35
14:36:54.718750,-86.91
14:36:54.734375,-94.18
14:36:54.750000,-98.55
14:36:54.765625,-98.50
14:36:54.781250,-92.98
14:36:54.796875,-81.87
14:36:54.812500,-66.44
14:36:54.828125,-49.32
14:36:54.843750,-33.93
14:36:54.859375,-23.46
14:36:54.875000,-19.77
14:36:54.890625,-22.78
14:36:54.906250,-30.64
14:36:54.921875,-40.63
14:36:54.937500,-50.30
14:36:54.953125,-58.24
14:36:54.968750,-64.19
14:36:54.984375,-68.38
14:36:55,-70.77
14:36:55.015625,-70.52
14:36:55.031250,-66.14
14:36:55.046875,-56.23
14:36:55.062500,-40.38
14:36:55.078125,-19.82
14:36:55.093750,2.62
14:36:55.109375,23.41
14:36:55.125000,39.52
14:36:55.140625,49.56
14:36:55.156250,54.20
14:36:55.171875,55.63
14:36:55.187500,56.47
14:36:55.203125,58.62
14:36:55.218750,62.55
14:36:55.234375,67.55
14:36:55.250000,72.39
14:36:55.265625,76.13
14:36:55.281250,78.51
14:36:55.296875,79.88
14:36:55.312500,80.71
14:36:55.328125,81.30
14:36:55.343750,81.60
14:36:55.359375,81.46
14:36:55.375000,80.87
14:36:55.390625,80.09
14:36:55.406250,79.56
14:36:55.421875,79.64
14:36:55.437500,80.44
14:36:55.453125,81.74
14:36:55.468750,83.04
14:36:55.484375,83.71
14:36:55.500000,83.13
14:36:55.515625,80.85
14:36:55.531250,76.69
14:36:55.546875,70.86
14:36:55.562500,63.91
14:36:55.578125,56.55
14:36:55.593750,49.48
14:36:55.609375,43.10
14:36:55.625000,37.45
14:36:55.640625,32.28
14:36:55.656250,27.23
14:36:55.671875,21.98
14:36:55.687500,16.37
14:36:55.703125,10.41
14:36:55.718750,4.24
14:36:55.734375,-1.99
14:36:55.750000,-8.08
14:36:55.765625,-13.78
14:36:55.781250,-18.73
14:36:55.796875,-22.44
14:36:55.812500,-24.39
14:36:55.828125,-24.18
14:36:55.843750,-21.67
14:36:55.859375,-17.07
14:36:55.875000,-10.92
14:36:55.890625,-3.97
14:36:55.906250,2.96
14:36:55.921875,9.25
14:36:55.937500,14.52
14:36:55.953125,18.68
14:36:55.968750,21.84
14:36:55.984375,24.16
14:36:56,25.75
14:36:56.015625,26.62
14:36:56.031250,26.77
14:36:56.046875,26.21
14:36:56.062500,25.12
14:36:56.078125,23.77
14:36:56.093750,22.48
14:36:56.109375,21.52
14:36:56.125000,20.99
14:36:56.140625,20.82
14:36:56.156250,20.82
14:36:56.171875,20.74
14:36:56.187500,20.38
14:36:56.203125,19.59
14:36:56.218750,18.29
14:36:56.234375,16.50
14:36:56.250000,14.31
14:36:56.265625,11.87
14:36:56.281250,9.33
14:36:56.296875,6.79
14:36:56.312500,4.24
14:36:56.328125,1.61
14:36:56.343750,-1.21
14:36:56.359375,-4.31
14:36:56.375000,-7.70
14:36:56.390625,-11.29
14:36:56.406250,-14.87
14:36:56.421875,-18.06
14:36:56.437500,-20.32
14:36:56.453125,-21.09
14:36:56.468750,-19.87
14:36:56.484375,-16.45
14:36:56.500000,-10.97
14:36:56.515625,-3.93
14:36:56.531250,3.95
14:36:56.546875,11.95
14:36:56.562500,19.45
14:36:56.578125,26.03
14:36:56.593750,31.39
14:36:56.609375,35.39
14:36:56.625000,38.01
14:36:56.640625,39.45
14:36:56.656250,40.10
14:36:56.671875,40.47
14:36:56.687500,41.04
14:36:56.703125,42.12
14:36:56.718750,43.69
14:36:56.734375,45.50
14:36:56.750000,47.21
14:36:56.765625,48.55
14:36:56.781250,49.48
14:36:56.796875,50.18
14:36:56.812500,51.00
14:36:56.828125,52.23
14:36:56.843750,54.00
14:36:56.859375,56.12
14:36:56.875000,58.19
14:36:56.890625,59.76
14:36:56.906250,60.58
14:36:56.921875,60.72
14:36:56.937500,60.57
14:36:56.953125,60.62
14:36:56.968750,61.18
14:36:56.984375,62.16
14:36:57,63.14
14:36:57.015625,63.54
14:36:57.031250,62.81
14:36:57.046875,60.51
14:36:57.062500,56.03
14:36:57.078125,48.33
14:36:57.093750,35.84
14:36:57.109375,16.89
14:36:57.125000,-9.52
14:36:57.140625,-42.92
14:36:57.156250,-81.02
14:36:57.171875,-120.04
14:36:57.187500,-155.73
14:36:57.203125,-184.55
14:36:57.218750,-204.44
14:36:57.234375,-214.95
14:36:57.250000,-216.60
14:36:57.265625,-210.35
14:36:57.281250,-197.42
14:36:57.296875,-179.82
14:36:57.312500,-160.77
14:36:57.328125,-144.43
14:36:57.343750,-134.35
14:36:57.359375,-131.24
14:36:57.375000,-131.53
14:36:57.390625,-128.13
14:36:57.406250,-113.39
14:36:57.421875,-82.94
14:36:57.437500,-38.00
14:36:57.453125,14.97
14:36:57.468750,67.26
14:36:57.484375,111.65
14:36:57.500000,144.86
14:36:57.515625,167.47
14:36:57.531250,181.85
14:36:57.546875,189.75
14:36:57.562500,191.26
14:36:57.578125,185.59
14:36:57.593750,172.67
14:36:57.609375,154.09
14:36:57.625000,132.88
14:36:57.640625,112.32
14:36:57.656250,94.66
14:36:57.671875,80.44
14:36:57.687500,68.75
14:36:57.703125,58.12
14:36:57.718750,47.66
14:36:57.734375,37.50
14:36:57.750000,28.37
14:36:57.765625,20.96
14:36:57.781250,15.47
14:36:57.796875,11.52
14:36:57.812500,8.31
14:36:57.828125,5.01
14:36:57.843750,0.97
14:36:57.859375,-3.27
14:36:57.875000,-6.35
14:36:57.890625,-7.18
14:36:57.906250,-5.73
14:36:57.921875,-3.29
14:36:57.937500,-1.60
14:36:57.953125,-2.27
14:36:57.968750,-6.14
14:36:57.984375,-13.28
14:36:58,-21.93
14:36:58.015625,-29.34
14:36:58.031250,-33.50
14:36:58.046875,-34.29
14:36:58.062500,-33.60
14:36:58.078125,-34.05
14:36:58.093750,-38.23
14:36:58.109375,-48.05
14:36:58.125000,-64.64
14:36:58.140625,-86.52
14:36:58.156250,-110.06
14:36:58.171875,-130.97
14:36:58.187500,-145.54
14:36:58.203125,-151.34
14:36:58.218750,-146.93
14:36:58.234375,-132.64
14:36:58.250000,-107.97
14:36:58.265625,-78.78
14:36:58.281250,-53.70
14:36:58.296875,-37.08
14:36:58.312500,-26.27
14:36:58.328125,-14.35
14:36:58.343750,0.98
14:36:58.359375,18.34
14:36:58.375000,34.52
14:36:58.390625,46.89
14:36:58.406250,51.28
14:36:58.421875,47.92
14:36:58.437500,40.24
14:36:58.453125,32.28
14:36:58.468750,26.24
14:36:58.484375,21.65
14:36:58.500000,16.91
14:36:58.515625,10.45
14:36:58.531250,1.80
14:36:58.546875,-8.47
14:36:58.562500,-17.91
14:36:58.578125,-23.82
14:36:58.593750,-24.83
14:36:58.609375,-21.48
14:36:58.625000,-15.52
14:36:58.640625,-8.41
14:36:58.656250,-0.88
14:36:58.671875,6.96
14:36:58.687500,14.85
14:36:58.703125,23.01
14:36:58.718750,31.43
14:36:58.734375,39.44
14:36:58.750000,45.84
14:36:58.765625,49.32
14:36:58.781250,49.49
14:36:58.796875,46.89
14:36:58.812500,42.68
14:36:58.828125,37.97
14:36:58.843750,33.96
14:36:58.859375,31.41
14:36:58.875000,30.37
14:36:58.890625,30.22
14:36:58.906250,29.98
14:36:58.921875,28.90
14:36:58.937500,26.63
14:36:58.953125,23.22
14:36:58.968750,18.92
14:36:58.984375,14.23
14:36:59,9.62
14:36:59.015625,5.32
14:36:59.031250,1.31
14:36:59.046875,-2.67
14:36:59.062500,-6.83
14:36:59.078125,-11.33
14:36:59.093750,-16.26
14:36:59.109375,-21.61
14:36:59.125000,-27.24
14:36:59.140625,-32.88
14:36:59.156250,-38.13
14:36:59.171875,-42.60
14:36:59.187500,-46.03
14:36:59.203125,-48.36
14:36:59.218750,-49.81
14:36:59.234375,-50.72
14:36:59.250000,-51.33
14:36:59.265625,-51.68
14:36:59.281250,-51.50
14:36:59.296875,-50.30
14:36:59.312500,-47.53
14:36:59.328125,-42.72
14:36:59.343750,-35.65
14:36:59.359375,-26.37
14:36:59.375000,-15.29
14:36:59.390625,-3.04
14:36:59.406250,9.54
14:36:59.421875,21.60
14:36:59.437500,32.45
14:36:59.453125,41.67
14:36:59.468750,49.15
14:36:59.484375,55.00
14:36:59.500000,59.42
14:36:59.515625,62.62
14:36:59.531250,64.80
14:36:59.546875,66.14
14:36:59.562500,66.84
14:36:59.578125,67.08
14:36:59.593750,66.96
14:36:59.609375,66.44
14:36:59.625000,65.39
14:36:59.640625,63.63
14:36:59.656250,61.06
14:36:59.671875,57.67
14:36:59.687500,53.57
14:36:59.703125,48.96
14:36:59.718750,44.05
14:36:59.734375,39.01
14:36:59.750000,33.95
14:36:59.765625,28.91
14:36:59.781250,23.82
14:36:59.796875,18.60
14:36:59.812500,13.19
14:36:59.828125,7.58
14:36:59.843750,1.76
14:36:59.859375,-4.32
14:36:59.875000,-10.83
14:36:59.890625,-18.10
14:36:59.906250,-26.49
14:36:59.921875,-36.27
14:36:59.937500,-47.41
14:36:59.953125,-59.49
14:36:59.968750,-71.68
14:36:59.984375,-82.88
14:37:00,-91.95
14:37:00.015625,-98.08
14:37:00.031250,-101.03
14:37:00.046875,-101.27
14:37:00.062500,-99.97
14:37:00.078125,-98.46
14:37:00.093750,-97.81
14:37:00.109375,-98.28
14:37:00.125000,-99.26
14:37:00.140625,-99.54
14:37:00.156250,-98.03
14:37:00.171875,-94.24
14:37:00.187500,-88.42
14:37:00.203125,-81.35
14:37:00.218750,-73.79
14:37:00.234375,-66.15
14:37:00.250000,-58.31
14:37:00.265625,-49.82
14:37:00.281250,-39.85
14:37:00.296875,-27.17
14:37:00.312500,-10.11
14:37:00.328125,13.05
14:37:00.343750,43.07
14:37:00.359375,78.64
14:37:00.375000,115.69
14:37:00.390625,148.07
14:37:00.406250,169.41
14:37:00.421875,175.47
14:37:00.437500,165.82
14:37:00.453125,143.89
14:37:00.468750,115.57
14:37:00.484375,87.05
14:37:00.500000,62.96
14:37:00.515625,45.61
14:37:00.531250,35.26
14:37:00.546875,30.82
14:37:00.562500,30.42
14:37:00.578125,31.69
14:37:00.593750,31.84
14:37:00.609375,28.16
14:37:00.625000,18.77
14:37:00.640625,3.43
14:37:00.656250,-16.19
14:37:00.671875,-36.98
14:37:00.687500,-55.50
14:37:00.703125,-69.14
14:37:00.718750,-76.82
14:37:00.734375,-79.05
14:37:00.750000,-77.26
14:37:00.765625,-73.16
14:37:00.781250,-68.16
14:37:00.796875,-63.27
14:37:00.812500,-59.14
14:37:00.828125,-56.23
14:37:00.843750,-54.87
14:37:00.859375,-55.02
14:37:00.875000,-56.31
14:37:00.890625,-58.01
14:37:00.906250,-59.33
14:37:00.921875,-59.59
14:37:00.937500,-58.48
14:37:00.953125,-56.11
14:37:00.968750,-52.95
14:37:00.984375,-49.68
14:37:01,-47.02
14:37:01.015625,-45.56
14:37:01.031250,-45.58
14:37:01.046875,-47.00
14:37:01.062500,-49.40
14:37:01.078125,-52.13
14:37:01.093750,-54.54
14:37:01.109375,-56.22
14:37:01.125000,-57.15
14:37:01.140625,-57.73
14:37:01.156250,-58.61
14:37:01.171875,-60.39
14:37:01.187500,-63.24
14:37:01.203125,-66.78
14:37:01.218750,-70.05
14:37:01.234375,-71.79
14:37:01.250000,-70.87
14:37:01.265625,-66.66
14:37:01.281250,-59.17
14:37:01.296875,-49.00
14:37:01.312500,-37.08
14:37:01.328125,-24.33
14:37:01.343750,-11.53
14:37:01.359375,0.68
14:37:01.375000,11.71
14:37:01.390625,20.91
14:37:01.406250,27.65
14:37:01.421875,31.39
14:37:01.437500,31.97
14:37:01.453125,29.68
14:37:01.468750,25.22
14:37:01.484375,19.58
14:37:01.500000,13.82
14:37:01.515625,8.85
14:37:01.531250,5.30
14:37:01.546875,3.47
14:37:01.562500,3.33
14:37:01.578125,4.60
14:37:01.593750,6.80
14:37:01.609375,9.41
14:37:01.625000,11.97
14:37:01.640625,14.12
14:37:01.656250,15.68
14:37:01.671875,16.57
14:37:01.687500,16.79
14:37:01.703125,16.37
14:37:01.718750,15.36
14:37:01.734375,13.87
14:37:01.750000,12.02
14:37:01.765625,9.98
14:37:01.781250,7.94
14:37:01.796875,6.19
14:37:01.812500,5.15
14:37:01.828125,5.36
14:37:01.843750,7.36
14:37:01.859375,11.55
14:37:01.875000,18.02
14:37:01.890625,26.47
14:37:01.906250,36.32
14:37:01.921875,46.85
14:37:01.937500,57.34
14:37:01.953125,67.05
14:37:01.968750,75.32
14:37:01.984375,81.44
14:37:02,84.87
14:37:02.015625,85.31
14:37:02.031250,82.87
14:37:02.046875,78.11
14:37:02.062500,71.86
14:37:02.078125,65.04
14:37:02.093750,58.42
14:37:02.109375,52.51
14:37:02.125000,47.55
14:37:02.140625,43.55
14:37:02.156250,40.26
14:37:02.171875,37.18
14:37:02.187500,33.69
14:37:02.203125,29.17
14:37:02.218750,23.24
14:37:02.234375,15.86
14:37:02.250000,7.39
14:37:02.265625,-1.49
14:37:02.281250,-9.94
14:37:02.296875,-17.07
14:37:02.312500,-22.06
14:37:02.328125,-24.32
14:37:02.343750,-23.64
14:37:02.359375,-20.29
14:37:02.375000,-15.08
14:37:02.390625,-9.09
14:37:02.406250,-3.39
14:37:02.421875,1.35
14:37:02.437500,5.10
14:37:02.453125,8.39
14:37:02.468750,12.12
14:37:02.484375,17.08
14:37:02.500000,23.74
14:37:02.515625,31.96
14:37:02.531250,41.05
14:37:02.546875,49.82
14:37:02.562500,56.76
14:37:02.578125,60.37
14:37:02.593750,59.55
14:37:02.609375,54.04
14:37:02.625000,44.65
14:37:02.640625,33.16
14:37:02.656250,21.85
14:37:02.671875,12.75
14:37:02.687500,7.02
14:37:02.703125,4.63
14:37:02.718750,4.57
14:37:02.734375,5.43
14:37:02.750000,6.06
14:37:02.765625,5.94
14:37:02.781250,5.21
14:37:02.796875,4.34
14:37:02.812500,3.79
14:37:02.828125,3.74
14:37:02.843750,4.12
14:37:02.859375,4.81
14:37:02.875000,5.86
14:37:02.890625,7.60
14:37:02.906250,10.56
14:37:02.921875,15.16
14:37:02.937500,21.45
14:37:02.953125,28.87
14:37:02.968750,36.23
14:37:02.984375,41.90
14:37:03,44.14
14:37:03.015625,41.52
14:37:03.031250,33.34
14:37:03.046875,19.94
14:37:03.062500,2.85
14:37:03.078125,-15.44
14:37:03.093750,-32.12
14:37:03.109375,-44.91
14:37:03.125000,-52.72
14:37:03.140625,-55.95
14:37:03.156250,-56.01
14:37:03.171875,-54.54
14:37:03.187500,-52.65
14:37:03.203125,-50.49
14:37:03.218750,-47.49
14:37:03.234375,-42.92
14:37:03.250000,-36.46
14:37:03.265625,-28.39
14:37:03.281250,-19.48
14:37:03.296875,-10.63
14:37:03.312500,-2.56
14:37:03.328125,4.25
14:37:03.343750,9.62
14:37:03.359375,13.59
14:37:03.375000,16.53
14:37:03.390625,19.09
14:37:03.406250,22.07
14:37:03.421875,26.10
14:37:03.437500,31.35
14:37:03.453125,37.54
14:37:03.468750,44.02
14:37:03.484375,50.17
14:37:03.500000,55.51
14:37:03.515625,59.64
14:37:03.531250,61.97
14:37:03.546875,61.52
14:37:03.562500,57.06
14:37:03.578125,47.72
14:37:03.593750,33.58
14:37:03.609375,16.00
14:37:03.625000,-2.73
14:37:03.640625,-20.38
14:37:03.656250,-35.67
14:37:03.671875,-48.71
14:37:03.687500,-60.63
14:37:03.703125,-72.60
14:37:03.718750,-84.85
14:37:03.734375,-96.25
14:37:03.750000,-104.70
14:37:03.765625,-108.01
14:37:03.781250,-104.89
14:37:03.796875,-95.48
14:37:03.812500,-81.31
14:37:03.828125,-64.75
14:37:03.843750,-48.41
14:37:03.859375,-34.44
14:37:03.875000,-24.15
14:37:03.890625,-17.75
14:37:03.906250,-14.40
14:37:03.921875,-12.48
14:37:03.937500,-10.03
14:37:03.953125,-5.47
14:37:03.968750,1.93
14:37:03.984375,11.87
14:37:04,23.26
14:37:04.015625,34.73
14:37:04.031250,45.15
14:37:04.046875,53.83
14:37:04.062500,60.46
14:37:04.078125,64.71
14:37:04.093750,66.15
14:37:04.109375,64.24
14:37:04.125000,58.66
14:37:04.140625,49.69
14:37:04.156250,38.29
14:37:04.171875,25.83
14:37:04.187500,13.68
14:37:04.203125,2.68
14:37:04.218750,-7.06
14:37:04.234375,-16.09
14:37:04.250000,-25.21
14:37:04.265625,-35.08
14:37:04.281250,-45.86
14:37:04.296875,-57.19
14:37:04.312500,-68.21
14:37:04.328125,-77.86
14:37:04.343750,-85.08
14:37:04.359375,-89.14
14:37:04.375000,-89.77
14:37:04.390625,-87.23
14:37:04.406250,-82.29
14:37:04.421875,-75.96
14:37:04.437500,-69.32
14:37:04.453125,-63.30
14:37:04.468750,-58.56
14:37:04.484375,-55.39
14:37:04.500000,-53.75
14:37:04.515625,-53.27
14:37:04.531250,-53.38
14:37:04.546875,-53.35
14:37:04.562500,-52.53
14:37:04.578125,-50.43
14:37:04.593750,-46.76
14:37:04.609375,-41.46
14:37:04.625000,-34.68
14:37:04.640625,-26.67
14:37:04.656250,-17.85
14:37:04.671875,-8.74
14:37:04.687500,0.03
14:37:04.703125,7.87
14:37:04.718750,14.35
14:37:04.734375,19.36
14:37:04.750000,23.05
14:37:04.765625,25.68
14:37:04.781250,27.41
14:37:04.796875,28.22
14:37:04.812500,28.00
14:37:04.828125,26.73
14:37:04.843750,24.65
14:37:04.859375,22.24
14:37:04.875000,19.95
14:37:04.890625,18.07
14:37:04.906250,16.66
14:37:04.921875,15.75
14:37:04.937500,15.58
14:37:04.953125,16.74
14:37:04.968750,19.95
14:37:04.984375,25.71
14:37:05,33.90
14:37:05.015625,43.72
14:37:05.031250,53.94
14:37:05.046875,63.41
14:37:05.062500,71.42
14:37:05.078125,77.81
14:37:05.093750,82.74
14:37:05.109375,86.34
14:37:05.125000,88.59
14:37:05.140625,89.24
14:37:05.156250,88.09
14:37:05.171875,85.21
14:37:05.187500,81.01
14:37:05.203125,76.16
14:37:05.218750,71.35
14:37:05.234375,67.12
14:37:05.250000,63.70
14:37:05.265625,61.01
14:37:05.281250,58.75
14:37:05.296875,56.55
14:37:05.312500,54.16
14:37:05.328125,51.47
14:37:05.343750,48.56
14:37:05.359375,45.62
14:37:05.375000,42.81
14:37:05.390625,40.18
14:37:05.406250,37.64
14:37:05.421875,35.00
14:37:05.437500,32.05
14:37:05.453125,28.61
14:37:05.468750,24.63
14:37:05.484375,20.13
14:37:05.500000,15.24
14:37:05.515625,10.29
14:37:05.531250,5.84
14:37:05.546875,2.65
14:37:05.562500,1.54
14:37:05.578125,3.18
14:37:05.593750,7.84
14:37:05.609375,15.22
14:37:05.625000,24.52
14:37:05.640625,34.68
14:37:05.656250,44.68
14:37:05.671875,53.82
14:37:05.687500,61.88
14:37:05.703125,68.91
14:37:05.718750,75.02
14:37:05.734375,80.10
14:37:05.750000,83.75
14:37:05.765625,85.31
14:37:05.781250,84.11
14:37:05.796875,79.66
14:37:05.812500,71.82
14:37:05.828125,60.81
14:37:05.843750,47.21
14:37:05.859375,31.86
14:37:05.875000,15.77
14:37:05.890625,-0.01
14:37:05.906250,-14.60
14:37:05.921875,-27.41
14:37:05.937500,-38.25
14:37:05.953125,-47.31
14:37:05.968750,-54.90
14:37:05.984375,-61.37
14:37:06,-66.90
14:37:06.015625,-71.59
14:37:06.031250,-75.53
14:37:06.046875,-78.87
14:37:06.062500,-81.79
14:37:06.078125,-84.47
14:37:06.093750,-86.95
14:37:06.109375,-89.20
14:37:06.125000,-91.06
14:37:06.140625,-92.36
14:37:06.156250,-92.86
14:37:06.171875,-92.33
14:37:06.187500,-90.54
14:37:06.203125,-87.31
14:37:06.218750,-82.63
14:37:06.234375,-76.72
14:37:06.250000,-69.97
14:37:06.265625,-62.83
14:37:06.281250,-55.68
14:37:06.296875,-48.73
14:37:06.312500,-42.11
14:37:06.328125,-36.07
14:37:06.343750,-31.00
14:37:06.359375,-27.37
14:37:06.375000,-25.54
14:37:06.390625,-25.53
14:37:06.406250,-26.93
14:37:06.421875,-29.07
14:37:06.437500,-31.22
14:37:06.453125,-32.89
14:37:06.468750,-33.89
14:37:06.484375,-34.27
14:37:06.500000,-34.17
14:37:06.515625,-33.60
14:37:06.531250,-32.49
14:37:06.546875,-30.89
14:37:06.562500,-29.18
14:37:06.578125,-28.11
14:37:06.593750,-28.64
14:37:06.609375,-31.50
14:37:06.625000,-36.76
14:37:06.640625,-43.72
14:37:06.656250,-50.99
14:37:06.671875,-57.02
14:37:06.687500,-60.65
14:37:06.703125,-61.48
14:37:06.718750,-59.87
14:37:06.734375,-56.65
14:37:06.750000,-52.64
14:37:06.765625,-48.27
14:37:06.781250,-43.46
14:37:06.796875,-37.71
14:37:06.812500,-30.45
14:37:06.828125,-21.35
14:37:06.843750,-10.58
14:37:06.859375,1.20
14:37:06.875000,12.99
14:37:06.890625,23.74
14:37:06.906250,32.69
14:37:06.921875,39.54
14:37:06.937500,44.43
14:37:06.953125,47.72
14:37:06.968750,49.83
14:37:06.984375,50.97
14:37:07,51.17
14:37:07.015625,50.40
14:37:07.031250,48.76
14:37:07.046875,46.51
14:37:07.062500,44.04
14:37:07.078125,41.69
14:37:07.093750,39.54
14:37:07.109375,37.37
14:37:07.125000,34.72
14:37:07.140625,31.20
14:37:07.156250,26.88
14:37:07.171875,22.56
14:37:07.187500,19.69
14:37:07.203125,19.84
14:37:07.218750,24.01
14:37:07.234375,31.90
14:37:07.250000,41.82
14:37:07.265625,51.16
14:37:07.281250,57.25
14:37:07.296875,58.28
14:37:07.312500,53.74
14:37:07.328125,44.25
14:37:07.343750,31.07
14:37:07.359375,15.58
14:37:07.375000,-0.97
14:37:07.390625,-17.29
14:37:07.406250,-31.86
14:37:07.421875,-42.94
14:37:07.437500,-48.93
14:37:07.453125,-48.94
14:37:07.468750,-43.21
14:37:07.484375,-33.19
14:37:07.500000,-21.14
14:37:07.515625,-9.45
14:37:07.531250,0.04
14:37:07.546875,6.44
14:37:07.562500,9.87
14:37:07.578125,11.19
14:37:07.593750,11.55
14:37:07.609375,11.93
14:37:07.625000,12.89
14:37:07.640625,14.52
14:37:07.656250,16.51
14:37:07.671875,18.41
14:37:07.687500,19.80
14:37:07.703125,20.47
14:37:07.718750,20.41
14:37:07.734375,19.76
14:37:07.750000,18.69
14:37:07.765625,17.25
14:37:07.781250,15.40
14:37:07.796875,13.03
14:37:07.812500,10.02
14:37:07.828125,6.33
14:37:07.843750,1.99
14:37:07.859375,-2.99
14:37:07.875000,-8.65
14:37:07.890625,-15.08
14:37:07.906250,-22.28
14:37:07.921875,-30.01
14:37:07.937500,-37.70
14:37:07.953125,-44.58
14:37:07.968750,-49.91
14:37:07.984375,-53.34
14:37:08,-54.96
14:37:08.015625,-55.24
14:37:08.031250,-54.69
14:37:08.046875,-53.61
14:37:08.062500,-51.90
14:37:08.078125,-49.25
14:37:08.093750,-45.35
14:37:08.109375,-40.18
14:37:08.125000,-34.14
14:37:08.140625,-27.88
14:37:08.156250,-22.09
14:37:08.171875,-17.32
14:37:08.187500,-13.82
14:37:08.203125,-11.53
14:37:08.218750,-10.11
14:37:08.234375,-9.11
14:37:08.250000,-8.00
14:37:08.265625,-6.33
14:37:08.281250,-3.79
14:37:08.296875,-0.30
14:37:08.312500,4.07
14:37:08.328125,9.17
14:37:08.343750,14.78
14:37:08.359375,20.68
14:37:08.375000,26.56
14:37:08.390625,32.00
14:37:08.406250,36.56
14:37:08.421875,39.83
14:37:08.437500,41.60
14:37:08.453125,41.90
14:37:08.468750,40.97
14:37:08.484375,39.16
14:37:08.500000,36.78
14:37:08.515625,34.04
14:37:08.531250,31.05
14:37:08.546875,27.84
14:37:08.562500,24.45
14:37:08.578125,20.91
14:37:08.593750,17.19
14:37:08.609375,13.21
14:37:08.625000,8.88
14:37:08.640625,4.22
14:37:08.656250,-0.53
14:37:08.671875,-4.87
14:37:08.687500,-8.08
14:37:08.703125,-9.48
14:37:08.718750,-8.64
14:37:08.734375,-5.61
14:37:08.750000,-0.89
14:37:08.765625,4.70
14:37:08.781250,10.28
14:37:08.796875,15.14
14:37:08.812500,18.92
14:37:08.828125,21.54
14:37:08.843750,23.09
14:37:08.859375,23.72
14:37:08.875000,23.51
14:37:08.890625,22.50
14:37:08.906250,20.77
14:37:08.921875,18.51
14:37:08.937500,16.01
14:37:08.953125,13.62
14:37:08.968750,11.62
14:37:08.984375,10.15
14:37:09,9.17
14:37:09.015625,8.50
14:37:09.031250,7.93
14:37:09.046875,7.30
14:37:09.062500,6.51
14:37:09.078125,5.53
14:37:09.093750,4.37
14:37:09.109375,3.05
14:37:09.125000,1.64
14:37:09.140625,0.20
14:37:09.156250,-1.19
14:37:09.171875,-2.48
14:37:09.187500,-3.67
14:37:09.203125,-4.86
14:37:09.218750,-6.25
14:37:09.234375,-8.11
14:37:09.250000,-10.70
14:37:09.265625,-14.14
14:37:09.281250,-18.26
14:37:09.296875,-22.48
14:37:09.312500,-25.94
14:37:09.328125,-27.64
14:37:09.343750,-26.85
14:37:09.359375,-23.38
14:37:09.375000,-17.70
14:37:09.390625,-10.79
14:37:09.406250,-3.85
14:37:09.421875,2.14
14:37:09.437500,6.62
14:37:09.453125,9.51
14:37:09.468750,11.02
14:37:09.484375,11.46
14:37:09.500000,11.11
14:37:09.515625,10.16
14:37:09.531250,8.78
14:37:09.546875,7.19
14:37:09.562500,5.60
14:37:09.578125,4.26
14:37:09.593750,3.31
14:37:09.609375,2.83
14:37:09.625000,2.79
14:37:09.640625,3.07
14:37:09.656250,3.49
14:37:09.671875,3.85
14:37:09.687500,3.98
14:37:09.703125,3.77
14:37:09.718750,3.20
14:37:09.734375,2.34
14:37:09.750000,1.31
14:37:09.765625,0.20
14:37:09.781250,-0.91
14:37:09.796875,-2.04
14:37:09.812500,-3.34
14:37:09.828125,-5.00
14:37:09.843750,-7.27
14:37:09.859375,-10.34
14:37:09.875000,-14.19
14:37:09.890625,-18.51
14:37:09.906250,-22.64
14:37:09.921875,-25.71
14:37:09.937500,-26.88
14:37:09.953125,-25.61
14:37:09.968750,-21.88
14:37:09.984375,-16.21
14:37:10,-9.50
14:37:10.015625,-2.72
14:37:10.031250,3.37
14:37:10.046875,8.37
14:37:10.062500,12.18
14:37:10.078125,14.82
14:37:10.093750,16.31
14:37:10.109375,16.60
14:37:10.125000,15.69
14:37:10.140625,13.74
14:37:10.156250,11.15
14:37:10.171875,8.49
14:37:10.187500,6.27
14:37:10.203125,4.80
14:37:10.218750,4.08
14:37:10.234375,3.87
14:37:10.250000,3.80
14:37:10.265625,3.56
14:37:10.281250,2.98
14:37:10.296875,2.02
14:37:10.312500,0.76
14:37:10.328125,-0.66
14:37:10.343750,-2.14
14:37:10.359375,-3.60
14:37:10.375000,-4.98
14:37:10.390625,-6.32
14:37:10.406250,-7.76
14:37:10.421875,-9.47
14:37:10.437500,-11.63
14:37:10.453125,-14.35
14:37:10.468750,-17.53
14:37:10.484375,-20.84
14:37:10.500000,-23.73
14:37:10.515625,-25.53
14:37:10.531250,-25.64
14:37:10.546875,-23.73
14:37:10.562500,-19.87
14:37:10.578125,-14.48
14:37:10.593750,-8.26
14:37:10.609375,-1.89
14:37:10.625000,4.08
14:37:10.640625,9.33
14:37:10.656250,13.71
14:37:10.671875,17.07
14:37:10.687500,19.28
14:37:10.703125,20.17
14:37:10.718750,19.70
14:37:10.734375,18.07
14:37:10.750000,15.74
14:37:10.765625,13.33
14:37:10.781250,11.38
14:37:10.796875,10.18
14:37:10.812500,9.64
14:37:10.828125,9.41
14:37:10.843750,9.01
14:37:10.859375,8.09
14:37:10.875000,6.60
14:37:10.890625,4.72
14:37:10.906250,2.77
14:37:10.921875,1.01
14:37:10.937500,-0.50
14:37:10.953125,-1.90
14:37:10.968750,-3.45
14:37:10.984375,-5.37
14:37:11,-7.80
14:37:11.015625,-10.74
14:37:11.031250,-14.16
14:37:11.046875,-17.92
14:37:11.062500,-21.81
14:37:11.078125,-25.50
14:37:11.093750,-28.44
14:37:11.109375,-30.07
14:37:11.125000,-29.93
14:37:11.140625,-27.85
14:37:11.156250,-24.02
14:37:11.171875,-18.91
14:37:11.187500,-13.08
14:37:11.203125,-7.03
14:37:11.218750,-1.10
14:37:11.234375,4.46
14:37:11.250000,9.38
14:37:11.265625,13.32
14:37:11.281250,15.77
14:37:11.296875,16.23
14:37:11.312500,14.38
14:37:11.328125,10.44
14:37:11.343750,5.27
14:37:11.359375,0.26
14:37:11.375000,-3.00
14:37:11.390625,-3.37
14:37:11.406250,-0.60
14:37:11.421875,4.58
14:37:11.437500,10.76
14:37:11.453125,16.56
14:37:11.468750,21.15
14:37:11.484375,24.45
14:37:11.500000,26.86
14:37:11.515625,28.71
14:37:11.531250,29.93
14:37:11.546875,30.04
14:37:11.562500,28.50
14:37:11.578125,25.16
14:37:11.593750,20.38
14:37:11.609375,14.77
14:37:11.625000,8.89
14:37:11.640625,2.91
14:37:11.656250,-3.27
14:37:11.671875,-9.83
14:37:11.687500,-16.67
14:37:11.703125,-23.51
14:37:11.718750,-29.97
14:37:11.734375,-35.70
14:37:11.750000,-40.41
14:37:11.765625,-43.56
14:37:11.781250,-44.26
14:37:11.796875,-41.42
14:37:11.812500,-34.26
14:37:11.828125,-22.92
14:37:11.843750,-8.81
14:37:11.859375,5.72
14:37:11.875000,18.15
14:37:11.890625,26.65
14:37:11.906250,30.75
14:37:11.921875,31.26
14:37:11.937500,29.76
14:37:11.953125,27.84
14:37:11.968750,26.52
14:37:11.984375,26.04
14:37:12,26.11
14:37:12.015625,26.25
14:37:12.031250,26.16
14:37:12.046875,25.80
14:37:12.062500,25.26
14:37:12.078125,24.53
14:37:12.093750,23.31
14:37:12.109375,21.12
14:37:12.125000,17.53
14:37:12.140625,12.53
14:37:12.156250,6.64
14:37:12.171875,0.77
14:37:12.187500,-4.19
14:37:12.203125,-7.75
14:37:12.218750,-10.07
14:37:12.234375,-11.79
14:37:12.250000,-13.68
14:37:12.265625,-16.29
14:37:12.281250,-19.71
14:37:12.296875,-23.67
14:37:12.312500,-27.70
14:37:12.328125,-31.42
14:37:12.343750,-34.54
14:37:12.359375,-36.84
14:37:12.375000,-38.08
14:37:12.390625,-37.93
14:37:12.406250,-36.04
14:37:12.421875,-32.24
14:37:12.437500,-26.63
14:37:12.453125,-19.73
14:37:12.468750,-12.28
14:37:12.484375,-5.03
14:37:12.500000,1.40
14:37:12.515625,6.72
14:37:12.531250,10.85
14:37:12.546875,13.91
14:37:12.562500,16.05
14:37:12.578125,17.50
14:37:12.593750,18.40
14:37:12.609375,18.96
14:37:12.625000,19.44
14:37:12.640625,20.25
14:37:12.656250,21.72
14:37:12.671875,24.06
14:37:12.687500,27.18
14:37:12.703125,30.74
14:37:12.718750,34.28
14:37:12.734375,37.26
14:37:12.750000,39.41
14:37:12.765625,41.00
14:37:12.781250,42.74
14:37:12.796875,45.43
14:37:12.812500,49.50
14:37:12.828125,54.71
14:37:12.843750,60.15
14:37:12.859375,64.81
14:37:12.875000,67.61
14:37:12.890625,68.04
14:37:12.906250,66.41
14:37:12.921875,63.49
14:37:12.937500,60.06
14:37:12.953125,56.52
14:37:12.968750,52.80
14:37:12.984375,48.40
14:37:13,43.04
14:37:13.015625,36.11
14:37:13.031250,27.12
14:37:13.046875,16.09
14:37:13.062500,3.74
14:37:13.078125,-8.41
14:37:13.093750,-18.11
14:37:13.109375,-22.80
14:37:13.125000,-22.41
14:37:13.140625,-16.28
14:37:13.156250,-6.08
14:37:13.171875,4.19
14:37:13.187500,10.25
14:37:13.203125,9.61
14:37:13.218750,2.05
14:37:13.234375,-10.87
14:37:13.250000,-26.80
14:37:13.265625,-43.66
14:37:13.281250,-59.30
14:37:13.296875,-72.52
14:37:13.312500,-82.47
14:37:13.328125,-88.35
14:37:13.343750,-89.72
14:37:13.359375,-86.69
14:37:13.375000,-80.11
14:37:13.390625,-71.47
14:37:13.406250,-63.69
14:37:13.421875,-58.02
14:37:13.437500,-55.71
14:37:13.453125,-57.14
14:37:13.468750,-60.95
14:37:13.484375,-64.17
14:37:13.500000,-63.10
14:37:13.515625,-54.74
14:37:13.531250,-37.21
14:37:13.546875,-13.54
14:37:13.562500,10.83
14:37:13.578125,29.49
14:37:13.593750,37.69
14:37:13.609375,34.00
14:37:13.625000,20.29
14:37:13.640625,0.73
14:37:13.656250,-19.53
14:37:13.671875,-35.63
14:37:13.687500,-43.91
14:37:13.703125,-42.17
14:37:13.718750,-30.69
14:37:13.734375,-12.30
14:37:13.750000,8.55
14:37:13.765625,27.10
14:37:13.781250,40.00
14:37:13.796875,46.24
14:37:13.812500,46.98
14:37:13.828125,44.15
14:37:13.843750,39.60
14:37:13.859375,34.71
14:37:13.875000,29.38
14:37:13.890625,23.85
14:37:13.906250,18.65
14:37:13.921875,14.31
14:37:13.937500,10.94
14:37:13.953125,8.17
14:37:13.968750,5.56
14:37:13.984375,3.54
14:37:14,3.48
14:37:14.015625,6.96
14:37:14.031250,14.99
14:37:14.046875,26.77
14:37:14.062500,39.66
14:37:14.078125,50.02
14:37:14.093750,54.78
14:37:14.109375,52.60
14:37:14.125000,44.37
14:37:14.140625,32.58
14:37:14.156250,20.06
14:37:14.171875,9.14
14:37:14.187500,1.03
14:37:14.203125,-4.08
14:37:14.218750,-6.65
14:37:14.234375,-7.30
14:37:14.250000,-6.63
14:37:14.265625,-5.20
14:37:14.281250,-3.61
14:37:14.296875,-2.49
14:37:14.312500,-2.35
14:37:14.328125,-3.57
14:37:14.343750,-5.69
14:37:14.359375,-8.25
14:37:14.375000,-10.74
14:37:14.390625,-12.83
14:37:14.406250,-14.46
14:37:14.421875,-15.82
14:37:14.437500,-17.20
14:37:14.453125,-18.71
14:37:14.468750,-20.10
14:37:14.484375,-20.82
14:37:14.500000,-20.24
14:37:14.515625,-17.91
14:37:14.531250,-13.83
14:37:14.546875,-8.47
14:37:14.562500,-2.65
14:37:14.578125,2.72
14:37:14.593750,6.91
14:37:14.609375,9.56
14:37:14.625000,10.63
14:37:14.640625,10.34
14:37:14.656250,9.03
14:37:14.671875,7.13
14:37:14.687500,5.03
14:37:14.703125,3.08
14:37:14.718750,1.47
14:37:14.734375,0.30
14:37:14.750000,-0.45
14:37:14.765625,-0.89
14:37:14.781250,-1.19
14:37:14.796875,-1.52
14:37:14.812500,-1.90
14:37:14.828125,-2.29
14:37:14.843750,-2.57
14:37:14.859375,-2.62
14:37:14.875000,-2.43
14:37:14.890625,-2.13
14:37:14.906250,-1.97
14:37:14.921875,-2.20
14:37:14.937500,-2.94
14:37:14.953125,-4.16
14:37:14.968750,-5.62
14:37:14.984375,-7.07
14:37:15,-8.31
14:37:15.015625,-9.27
14:37:15.031250,-10.09
14:37:15.046875,-10.94
14:37:15.062500,-12.01
14:37:15.078125,-13.41
14:37:15.093750,-15.09
14:37:15.109375,-16.82
14:37:15.125000,-18.22
14:37:15.140625,-18.84
14:37:15.156250,-18.25
14:37:15.171875,-16.22
14:37:15.187500,-12.80
14:37:15.203125,-8.33
14:37:15.218750,-3.38
14:37:15.234375,1.46
14:37:15.250000,5.68
14:37:15.265625,8.99
14:37:15.281250,11.30
14:37:15.296875,12.67
14:37:15.312500,13.17
14:37:15.328125,12.94
14:37:15.343750,12.09
14:37:15.359375,10.80
14:37:15.375000,9.29
14:37:15.390625,7.83
14:37:15.406250,6.62
14:37:15.421875,5.76
14:37:15.437500,5.23
14:37:15.453125,4.91
14:37:15.468750,4.61
14:37:15.484375,4.19
14:37:15.500000,3.60
14:37:15.515625,2.90
14:37:15.531250,2.16
14:37:15.546875,1.43
14:37:15.562500,0.70
14:37:15.578125,-0.07
14:37:15.593750,-0.92
14:37:15.609375,-1.87
14:37:15.625000,-2.86
14:37:15.640625,-3.88
14:37:15.656250,-4.96
14:37:15.671875,-6.16
14:37:15.687500,-7.53
14:37:15.703125,-9.10
14:37:15.718750,-10.82
14:37:15.734375,-12.57
14:37:15.750000,-14.09
14:37:15.765625,-15.05
14:37:15.781250,-15.09
14:37:15.796875,-13.87
14:37:15.812500,-11.27
14:37:15.828125,-7.44
14:37:15.843750,-2.80
14:37:15.859375,1.99
14:37:15.875000,6.34
14:37:15.890625,9.78
14:37:15.906250,12.16
14:37:15.921875,13.55
14:37:15.937500,14.14
14:37:15.953125,14.16
14:37:15.968750,13.71
14:37:15.984375,12.86
14:37:16,11.65
14:37:16.015625,10.14
14:37:16.031250,8.48
14:37:16.046875,6.88
14:37:16.062500,5.57
14:37:16.078125,4.74
14:37:16.093750,4.47
14:37:16.109375,4.62
14:37:16.125000,4.95
14:37:16.140625,5.15
14:37:16.156250,5.00
14:37:16.171875,4.43
14:37:16.187500,3.53
14:37:16.203125,2.52
14:37:16.218750,1.59
14:37:16.234375,0.84
14:37:16.250000,0.24
14:37:16.265625,-0.37
14:37:16.281250,-1.21
14:37:16.296875,-2.43
14:37:16.312500,-4.15
14:37:16.328125,-6.38
14:37:16.343750,-9.01
14:37:16.359375,-11.80
14:37:16.375000,-14.37
14:37:16.390625,-16.26
14:37:16.406250,-17.00
14:37:16.421875,-16.26
14:37:16.437500,-13.95
14:37:16.453125,-10.29
14:37:16.468750,-5.73
14:37:16.484375,-0.82
14:37:16.500000,4.02
14:37:16.515625,8.57
14:37:16.531250,12.81
14:37:16.546875,16.84
14:37:16.562500,20.57
14:37:16.578125,23.64
14:37:16.593750,25.37
14:37:16.609375,24.98
14:37:16.625000,21.92
14:37:16.640625,16.12
14:37:16.656250,8.15
14:37:16.671875,-0.95
14:37:16.687500,-10.00
14:37:16.703125,-18.00
14:37:16.718750,-24.34
14:37:16.734375,-28.82
14:37:16.750000,-31.53
14:37:16.765625,-32.65
14:37:16.781250,-32.40
14:37:16.796875,-31.01
14:37:16.812500,-28.85
14:37:16.828125,-26.35
14:37:16.843750,-23.96
14:37:16.859375,-22.00
14:37:16.875000,-20.54
14:37:16.890625,-19.37
14:37:16.906250,-18.17
14:37:16.921875,-16.67
14:37:16.937500,-14.84
14:37:16.953125,-12.94
14:37:16.968750,-11.39
14:37:16.984375,-10.60
14:37:17,-10.69
14:37:17.015625,-11.42
14:37:17.031250,-12.21
14:37:17.046875,-12.36
14:37:17.062500,-11.28
14:37:17.078125,-8.70
14:37:17.093750,-4.74
14:37:17.109375,0.16
14:37:17.125000,5.41
14:37:17.140625,10.38
14:37:17.156250,14.58
14:37:17.171875,17.68
14:37:17.187500,19.58
14:37:17.203125,20.35
14:37:17.218750,20.24
14:37:17.234375,19.54
14:37:17.250000,18.51
14:37:17.265625,17.32
14:37:17.281250,16.00
14:37:17.296875,14.55
14:37:17.312500,12.98
14:37:17.328125,11.36
14:37:17.343750,9.88
14:37:17.359375,8.72
14:37:17.375000,8.00
14:37:17.390625,7.66
14:37:17.406250,7.50
14:37:17.421875,7.24
14:37:17.437500,6.64
14:37:17.453125,5.60
14:37:17.468750,4.20
14:37:17.484375,2.61
14:37:17.500000,1.03
14:37:17.515625,-0.40
14:37:17.531250,-1.66
14:37:17.546875,-2.80
14:37:17.562500,-3.96
14:37:17.578125,-5.24
14:37:17.593750,-6.75
14:37:17.609375,-8.55
14:37:17.625000,-10.64
14:37:17.640625,-12.88
14:37:17.656250,-15.00
14:37:17.671875,-16.55
14:37:17.687500,-17.09
14:37:17.703125,-16.25
14:37:17.718750,-13.94
14:37:17.734375,-10.37
14:37:17.750000,-6.04
14:37:17.765625,-1.52
14:37:17.781250,2.65
14:37:17.796875,6.16
14:37:17.812500,8.86
14:37:17.828125,10.78
14:37:17.843750,11.96
14:37:17.859375,12.47
14:37:17.875000,12.32
14:37:17.890625,11.55
14:37:17.906250,10.28
14:37:17.921875,8.70
14:37:17.937500,7.07
14:37:17.953125,5.65
14:37:17.968750,4.60
14:37:17.984375,3.95
14:37:18,3.57
14:37:18.015625,3.31
14:37:18.031250,2.99
14:37:18.046875,2.49
14:37:18.062500,1.78
14:37:18.078125,0.85
14:37:18.093750,-0.23
14:37:18.109375,-1.42
14:37:18.125000,-2.64
14:37:18.140625,-3.86
14:37:18.156250,-5.06
14:37:18.171875,-6.23
14:37:18.187500,-7.43
14:37:18.203125,-8.74
14:37:18.218750,-10.22
14:37:18.234375,-11.95
14:37:18.250000,-13.87
14:37:18.265625,-15.82
14:37:18.281250,-17.44
14:37:18.296875,-18.23
14:37:18.312500,-17.74
14:37:18.328125,-15.72
14:37:18.343750,-12.26
14:37:18.359375,-7.83
14:37:18.375000,-3.06
14:37:18.390625,1.48
14:37:18.406250,5.44
14:37:18.421875,8.76
14:37:18.437500,11.45
14:37:18.453125,13.52
14:37:18.468750,14.81
14:37:18.484375,15.16
14:37:18.500000,14.51
14:37:18.515625,13.03
14:37:18.531250,11.14
14:37:18.546875,9.28
14:37:18.562500,7.84
14:37:18.578125,6.95
14:37:18.593750,6.58
14:37:18.609375,6.56
14:37:18.625000,6.71
14:37:18.640625,6.87
14:37:18.656250,6.93
14:37:18.671875,6.79
14:37:18.687500,6.40
14:37:18.703125,5.68
14:37:18.718750,4.60
14:37:18.734375,3.14
14:37:18.750000,1.36
14:37:18.765625,-0.67
14:37:18.781250,-2.86
14:37:18.796875,-5.15
14:37:18.812500,-7.52
14:37:18.828125,-10.03
14:37:18.843750,-12.75
14:37:18.859375,-15.69
14:37:18.875000,-18.72
14:37:18.890625,-21.57
14:37:18.906250,-23.78
14:37:18.921875,-24.85
14:37:18.937500,-24.37
14:37:18.953125,-22.13
14:37:18.968750,-18.29
14:37:18.984375,-13.32
14:37:19,-7.90
14:37:19.015625,-2.72
14:37:19.031250,1.73
14:37:19.046875,5.30
14:37:19.062500,8.07
14:37:19.078125,10.29
14:37:19.093750,12.12
14:37:19.109375,13.57
14:37:19.125000,14.49
14:37:19.140625,14.68
14:37:19.156250,14.07
14:37:19.171875,12.80
14:37:19.187500,11.20
14:37:19.203125,9.65
14:37:19.218750,8.42
14:37:19.234375,7.57
14:37:19.250000,6.94
14:37:19.265625,6.29
14:37:19.281250,5.40
14:37:19.296875,4.18
14:37:19.312500,2.71
14:37:19.328125,1.11
14:37:19.343750,-0.48
14:37:19.359375,-2.00
14:37:19.375000,-3.46
14:37:19.390625,-4.86
14:37:19.406250,-6.23
14:37:19.421875,-7.54
14:37:19.437500,-8.80
14:37:19.453125,-10.02
14:37:19.468750,-11.35
14:37:19.484375,-12.93
14:37:19.500000,-14.83
14:37:19.515625,-16.95
14:37:19.531250,-18.95
14:37:19.546875,-20.29
14:37:19.562500,-20.44
14:37:19.578125,-19.01
14:37:19.593750,-15.97
14:37:19.609375,-11.62
14:37:19.625000,-6.51
14:37:19.640625,-1.32
14:37:19.656250,3.40
14:37:19.671875,7.28
14:37:19.687500,10.18
14:37:19.703125,12.13
14:37:19.718750,13.21
14:37:19.734375,13.48
14:37:19.750000,12.99
14:37:19.765625,11.82
14:37:19.781250,10.13
14:37:19.796875,8.25
14:37:19.812500,6.55
14:37:19.828125,5.38
14:37:19.843750,4.90
14:37:19.859375,5.00
14:37:19.875000,5.35
14:37:19.890625,5.58
14:37:19.906250,5.42
14:37:19.921875,4.82
14:37:19.937500,3.87
14:37:19.953125,2.75
14:37:19.968750,1.56
14:37:19.984375,0.31
14:37:20,-1.06
14:37:20.015625,-2.60
14:37:20.031250,-4.31
14:37:20.046875,-6.17
14:37:20.062500,-8.13
14:37:20.078125,-10.20
14:37:20.093750,-12.37
14:37:20.109375,-14.57
14:37:20.125000,-16.58
14:37:20.140625,-18.02
14:37:20.156250,-18.40
14:37:20.171875,-17.35
14:37:20.187500,-14.73
14:37:20.203125,-10.72
14:37:20.218750,-5.82
14:37:20.234375,-0.66
14:37:20.250000,4.17
14:37:20.265625,8.27
14:37:20.281250,11.44
14:37:20.296875,13.67
14:37:20.312500,15.00
14:37:20.328125,15.48
14:37:20.343750,15.20
14:37:20.359375,14.27
14:37:20.375000,12.97
14:37:20.390625,11.59
14:37:20.406250,10.41
14:37:20.421875,9.58
14:37:20.437500,9.13
14:37:20.453125,8.99
14:37:20.468750,9.10
14:37:20.484375,9.43
14:37:20.500000,9.98
14:37:20.515625,10.65
14:37:20.531250,11.25
14:37:20.546875,11.47
14:37:20.562500,11.05
14:37:20.578125,9.90
14:37:20.593750,8.25
14:37:20.609375,6.54
14:37:20.625000,5.29
14:37:20.640625,4.85
14:37:20.656250,5.18
14:37:20.671875,5.85
14:37:20.687500,6.26
14:37:20.703125,5.93
14:37:20.718750,4.79
14:37:20.734375,3.36
14:37:20.750000,2.55
14:37:20.765625,3.42
14:37:20.781250,6.66
14:37:20.796875,12.40
14:37:20.812500,20.03
14:37:20.828125,28.36
14:37:20.843750,35.89
14:37:20.859375,41.19
14:37:20.875000,43.18
14:37:20.890625,41.45
14:37:20.906250,36.42
14:37:20.921875,29.48
14:37:20.937500,22.82
14:37:20.953125,18.98
14:37:20.968750,20.04
14:37:20.984375,26.70
14:37:21,37.76
14:37:21.015625,50.24
14:37:21.031250,60.33
14:37:21.046875,64.86
14:37:21.062500,62.37
14:37:21.078125,53.49
14:37:21.093750,40.34
14:37:21.109375,25.39
14:37:21.125000,10.42
14:37:21.140625,-3.86
14:37:21.156250,-17.52
14:37:21.171875,-30.79
14:37:21.187500,-43.52
14:37:21.203125,-55.12
14:37:21.218750,-64.85
14:37:21.234375,-72.15
14:37:21.250000,-76.79
14:37:21.265625,-78.69
14:37:21.281250,-77.70
14:37:21.296875,-73.57
14:37:21.312500,-66.15
14:37:21.328125,-55.65
14:37:21.343750,-42.98
14:37:21.359375,-29.65
14:37:21.375000,-17.52
14:37:21.390625,-8.42
14:37:21.406250,-3.67
14:37:21.421875,-3.68
14:37:21.437500,-7.86
14:37:21.453125,-14.67
14:37:21.468750,-22.05
14:37:21.484375,-28.00
14:37:21.500000,-31.10
14:37:21.515625,-30.91
14:37:21.531250,-27.95
14:37:21.546875,-23.43
14:37:21.562500,-18.67
14:37:21.578125,-14.67
14:37:21.593750,-11.84
14:37:21.609375,-10.08
14:37:21.625000,-9.07
14:37:21.640625,-8.58
14:37:21.656250,-8.56
14:37:21.671875,-9.13
14:37:21.687500,-10.37
14:37:21.703125,-12.18
14:37:21.718750,-14.34
14:37:21.734375,-16.66
14:37:21.750000,-18.96
14:37:21.765625,-21.33
14:37:21.781250,-23.94
14:37:21.796875,-26.96
14:37:21.812500,-30.48
14:37:21.828125,-34.50
14:37:21.843750,-38.91
14:37:21.859375,-43.33
14:37:21.875000,-46.85
14:37:21.890625,-48.07
14:37:21.906250,-45.33
14:37:21.921875,-37.29
14:37:21.937500,-23.49
14:37:21.953125,-4.78
14:37:21.968750,16.90
14:37:21.984375,39.07
14:37:22,59.50
14:37:22.015625,76.74
14:37:22.031250,90.24
14:37:22.046875,100.12
14:37:22.062500,106.72
14:37:22.078125,110.38
14:37:22.093750,111.23
14:37:22.109375,109.44
14:37:22.125000,105.31
14:37:22.140625,99.42
14:37:22.156250,92.55
14:37:22.171875,85.55
14:37:22.187500,79.06
14:37:22.203125,73.41
14:37:22.218750,68.60
14:37:22.234375,64.22
14:37:22.250000,59.98
14:37:22.265625,55.72
14:37:22.281250,51.49
14:37:22.296875,47.52
14:37:22.312500,44.01
14:37:22.328125,40.98
14:37:22.343750,38.25
14:37:22.359375,35.57
14:37:22.375000,32.70
14:37:22.390625,29.56
14:37:22.406250,26.18
14:37:22.421875,22.62
14:37:22.437500,18.88
14:37:22.453125,14.80
14:37:22.468750,10.10
14:37:22.484375,4.47
14:37:22.500000,-2.24
14:37:22.515625,-9.86
14:37:22.531250,-17.77
14:37:22.546875,-25.06
14:37:22.562500,-30.74
14:37:22.578125,-34.09
14:37:22.593750,-34.94
14:37:22.609375,-33.78
14:37:22.625000,-31.57
14:37:22.640625,-29.48
14:37:22.656250,-28.53
14:37:22.671875,-29.26
14:37:22.687500,-31.74
14:37:22.703125,-35.57
14:37:22.718750,-40.10
14:37:22.734375,-44.73
14:37:22.750000,-49.02
14:37:22.765625,-52.73
14:37:22.781250,-55.80
14:37:22.796875,-58.26
14:37:22.812500,-60.16
14:37:22.828125,-61.57
14:37:22.843750,-62.58
14:37:22.859375,-63.26
14:37:22.875000,-63.52
14:37:22.890625,-62.95
14:37:22.906250,-60.78
14:37:22.921875,-55.90
14:37:22.937500,-47.05
14:37:22.953125,-33.24
14:37:22.968750,-14.04
14:37:22.984375,10.11
14:37:23,37.87
14:37:23.015625,67.22
14:37:23.031250,95.81
14:37:23.046875,121.52
14:37:23.062500,142.79
14:37:23.078125,158.84
14:37:23.093750,169.44
14:37:23.109375,174.62
14:37:23.125000,174.32
14:37:23.140625,168.41
14:37:23.156250,156.82
14:37:23.171875,139.98
14:37:23.187500,118.97
14:37:23.203125,95.50
14:37:23.218750,71.44
14:37:23.234375,48.31
14:37:23.250000,26.93
14:37:23.265625,7.43
14:37:23.281250,-10.47
14:37:23.296875,-26.95
14:37:23.312500,-41.88
14:37:23.328125,-54.76
14:37:23.343750,-65.01
14:37:23.359375,-72.29
14:37:23.375000,-76.78
14:37:23.390625,-79.05
14:37:23.406250,-79.92
14:37:23.421875,-80.04
14:37:23.437500,-79.58
14:37:23.453125,-78.22
14:37:23.468750,-75.27
14:37:23.484375,-69.99
14:37:23.500000,-61.99
14:37:23.515625,-51.37
14:37:23.531250,-38.90
14:37:23.546875,-26.00
14:37:23.562500,-14.58
14:37:23.578125,-6.76
14:37:23.593750,-4.40
14:37:23.609375,-8.47
14:37:23.625000,-18.67
14:37:23.640625,-33.38
14:37:23.656250,-50.02
14:37:23.671875,-65.79
14:37:23.687500,-78.45
14:37:23.703125,-86.76
14:37:23.718750,-90.53
14:37:23.734375,-90.35
14:37:23.750000,-87.15
14:37:23.765625,-81.93
14:37:23.781250,-75.61
14:37:23.796875,-68.96
14:37:23.812500,-62.59
14:37:23.828125,-56.89
14:37:23.843750,-51.99
14:37:23.859375,-47.86
14:37:23.875000,-44.37
14:37:23.890625,-41.41
14:37:23.906250,-38.87
14:37:23.921875,-36.68
14:37:23.937500,-34.72
14:37:23.953125,-32.88
14:37:23.968750,-31.16
14:37:23.984375,-29.64
14:37:24,-28.45
14:37:24.015625,-27.66
14:37:24.031250,-27.30
14:37:24.046875,-27.23
14:37:24.062500,-27.31
14:37:24.078125,-27.42
14:37:24.093750,-27.51
14:37:24.109375,-27.62
14:37:24.125000,-27.78
14:37:24.140625,-28.02
14:37:24.156250,-28.38
14:37:24.171875,-28.89
14:37:24.187500,-29.48
14:37:24.203125,-30.06
14:37:24.218750,-30.47
14:37:24.234375,-30.51
14:37:24.250000,-30.08
14:37:24.265625,-29.12
14:37:24.281250,-27.65
14:37:24.296875,-25.73
14:37:24.312500,-23.36
14:37:24.328125,-20.56
14:37:24.343750,-17.45
14:37:24.359375,-14.28
14:37:24.375000,-11.44
14:37:24.390625,-9.32
14:37:24.406250,-8.16
14:37:24.421875,-7.94
14:37:24.437500,-8.41
14:37:24.453125,-9.17
14:37:24.468750,-9.84
14:37:24.484375,-10.15
14:37:24.500000,-9.95
14:37:24.515625,-9.22
14:37:24.531250,-8.05
14:37:24.546875,-6.59
14:37:24.562500,-5.11
14:37:24.578125,-3.90
14:37:24.593750,-3.22
14:37:24.609375,-3.18
14:37:24.625000,-3.76
14:37:24.640625,-4.77
14:37:24.656250,-5.99
14:37:24.671875,-7.24
14:37:24.687500,-8.40
14:37:24.703125,-9.38
14:37:24.718750,-10.16
14:37:24.734375,-10.80
14:37:24.750000,-11.44
14:37:24.765625,-12.21
14:37:24.781250,-13.18
14:37:24.796875,-14.22
14:37:24.812500,-15.03
14:37:24.828125,-15.18
14:37:24.843750,-14.25
14:37:24.859375,-12.02
14:37:24.875000,-8.49
14:37:24.890625,-3.88
14:37:24.906250,1.47
14:37:24.921875,7.22
14:37:24.937500,13.04
14:37:24.953125,18.72
14:37:24.968750,24.07
14:37:24.984375,28.95
14:37:25,33.21
14:37:25.015625,36.72
14:37:25.031250,39.38
14:37:25.046875,41.15
14:37:25.062500,42.11
14:37:25.078125,42.47
14:37:25.093750,42.47
14:37:25.109375,42.32
14:37:25.125000,42.14
14:37:25.140625,41.92
14:37:25.156250,41.59
14:37:25.171875,41.10
14:37:25.187500,40.46
14:37:25.203125,39.70
14:37:25.218750,38.76
14:37:25.234375,37.50
14:37:25.250000,35.70
14:37:25.265625,33.17
14:37:25.281250,29.85
14:37:25.296875,25.83
14:37:25.312500,21.29
14:37:25.328125,16.41
14:37:25.343750,11.28
14:37:25.359375,6.01
14:37:25.375000,0.72
14:37:25.390625,-4.33
14:37:25.406250,-8.75
14:37:25.421875,-12.10
14:37:25.437500,-14.05
14:37:25.453125,-14.45
14:37:25.468750,-13.44
14:37:25.484375,-11.37
14:37:25.500000,-8.70
14:37:25.515625,-5.87
14:37:25.531250,-3.25
14:37:25.546875,-1.05
14:37:25.562500,0.62
14:37:25.578125,1.69
14:37:25.593750,2.14
14:37:25.609375,1.95
14:37:25.625000,1.13
14:37:25.640625,-0.20
14:37:25.656250,-1.82
14:37:25.671875,-3.45
14:37:25.687500,-4.76
14:37:25.703125,-5.54
14:37:25.718750,-5.73
14:37:25.734375,-5.46
14:37:25.750000,-4.93
14:37:25.765625,-4.38
14:37:25.781250,-3.95
14:37:25.796875,-3.69
14:37:25.812500,-3.57
14:37:25.828125,-3.55
14:37:25.843750,-3.64
14:37:25.859375,-3.86
14:37:25.875000,-4.21
14:37:25.890625,-4.70
14:37:25.906250,-5.31
14:37:25.921875,-6.01
14:37:25.937500,-6.86
14:37:25.953125,-7.92
14:37:25.968750,-9.29
14:37:25.984375,-10.97
14:37:26,-12.88
14:37:26.015625,-14.73
14:37:26.031250,-16.17
14:37:26.046875,-16.76
14:37:26.062500,-16.20
14:37:26.078125,-14.32
14:37:26.093750,-11.23
14:37:26.109375,-7.21
14:37:26.125000,-2.72
14:37:26.140625,1.82
14:37:26.156250,6.02
14:37:26.171875,9.66
14:37:26.187500,12.60
14:37:26.203125,14.79
14:37:26.218750,16.17
14:37:26.234375,16.74
14:37:26.250000,16.58
14:37:26.265625,15.88
14:37:26.281250,14.92
14:37:26.296875,14.00
14:37:26.312500,13.38
14:37:26.328125,13.12
14:37:26.343750,13.13
14:37:26.359375,13.21
14:37:26.375000,13.12
14:37:26.390625,12.69
14:37:26.406250,11.89
14:37:26.421875,10.81
14:37:26.437500,9.64
14:37:26.453125,8.57
14:37:26.468750,7.70
14:37:26.484375,7.05
14:37:26.500000,6.45
14:37:26.515625,5.72
14:37:26.531250,4.68
14:37:26.546875,3.23
14:37:26.562500,1.40
14:37:26.578125,-0.74
14:37:26.593750,-3.14
14:37:26.609375,-5.79
14:37:26.625000,-8.67
14:37:26.640625,-11.69
14:37:26.656250,-14.56
14:37:26.671875,-16.88
14:37:26.687500,-18.16
14:37:26.703125,-18.04
14:37:26.718750,-16.41
14:37:26.734375,-13.43
14:37:26.750000,-9.49
14:37:26.765625,-5.07
14:37:26.781250,-0.60
14:37:26.796875,3.60
14:37:26.812500,7.29
14:37:26.828125,10.36
14:37:26.843750,12.68
14:37:26.859375,14.18
14:37:26.875000,14.81
14:37:26.890625,14.65
14:37:26.906250,13.87
14:37:26.921875,12.79
14:37:26.937500,11.77
14:37:26.953125,11.10
14:37:26.968750,10.93
14:37:26.984375,11.20
14:37:27,11.70
14:37:27.015625,12.17
14:37:27.031250,12.42
14:37:27.046875,12.38
14:37:27.062500,12.14
14:37:27.078125,11.82
14:37:27.093750,11.54
14:37:27.109375,11.28
14:37:27.125000,10.97
14:37:27.140625,10.45
14:37:27.156250,9.66
14:37:27.171875,8.59
14:37:27.187500,7.35
14:37:27.203125,6.07
14:37:27.218750,4.85
14:37:27.234375,3.65
14:37:27.250000,2.33
14:37:27.265625,0.68
14:37:27.281250,-1.49
14:37:27.296875,-4.18
14:37:27.312500,-7.20
14:37:27.328125,-10.16
14:37:27.343750,-12.55
14:37:27.359375,-13.90
14:37:27.375000,-13.84
14:37:27.390625,-12.26
14:37:27.406250,-9.31
14:37:27.421875,-5.34
14:37:27.437500,-0.84
14:37:27.453125,3.71
14:37:27.468750,7.86
14:37:27.484375,11.28
14:37:27.500000,13.77
14:37:27.515625,15.27
14:37:27.531250,15.82
14:37:27.546875,15.63
14:37:27.562500,14.95
14:37:27.578125,14.09
14:37:27.593750,13.29
14:37:27.609375,12.59
14:37:27.625000,11.89
14:37:27.640625,11.01
14:37:27.656250,9.81
14:37:27.671875,8.27
14:37:27.687500,6.57
14:37:27.703125,4.95
14:37:27.718750,3.63
14:37:27.734375,2.63
14:37:27.750000,1.78
14:37:27.765625,0.81
14:37:27.781250,-0.51
14:37:27.796875,-2.19
14:37:27.812500,-4.02
14:37:27.828125,-5.61
14:37:27.843750,-6.59
14:37:27.859375,-6.82
14:37:27.875000,-6.40
14:37:27.890625,-5.69
14:37:27.906250,-5.19
14:37:27.921875,-5.32
14:37:27.937500,-6.30
14:37:27.953125,-8.07
14:37:27.968750,-10.29
14:37:27.984375,-12.40
14:37:28,-13.69
14:37:28.015625,-13.53
14:37:28.031250,-11.50
14:37:28.046875,-7.55
14:37:28.062500,-1.99
14:37:28.078125,4.58
14:37:28.093750,11.44
14:37:28.109375,18.03
14:37:28.125000,24.01
14:37:28.140625,29.28
14:37:28.156250,33.84
14:37:28.171875,37.65
14:37:28.187500,40.63
14:37:28.203125,42.72
14:37:28.218750,43.91
14:37:28.234375,44.38
14:37:28.250000,44.47
14:37:28.265625,44.65
14:37:28.281250,45.38
14:37:28.296875,46.95
14:37:28.312500,49.43
14:37:28.328125,52.70
14:37:28.343750,56.50
14:37:28.359375,60.46
14:37:28.375000,64.17
14:37:28.390625,67.24
14:37:28.406250,69.31
14:37:28.421875,70.00
14:37:28.437500,68.81
14:37:28.453125,65.14
14:37:28.468750,58.36
14:37:28.484375,48.00
14:37:28.500000,33.75
14:37:28.515625,15.71
14:37:28.531250,-5.26
14:37:28.546875,-27.50
14:37:28.562500,-48.78
14:37:28.578125,-66.92
14:37:28.593750,-80.46
14:37:28.609375,-89.25
14:37:28.625000,-94.23
14:37:28.640625,-97.37
14:37:28.656250,-100.63
14:37:28.671875,-104.85
14:37:28.687500,-109.25
14:37:28.703125,-111.96
14:37:28.718750,-111.06
14:37:28.734375,-105.53
14:37:28.750000,-95.73
14:37:28.765625,-82.91
14:37:28.781250,-69.45
14:37:28.796875,-58.02
14:37:28.812500,-50.27
14:37:28.828125,-46.21
14:37:28.843750,-44.44
14:37:28.859375,-42.94
14:37:28.875000,-39.92
14:37:28.890625,-34.38
14:37:28.906250,-25.84
14:37:28.921875,-15.55
14:37:28.937500,-5.58
14:37:28.953125,2.76
14:37:28.968750,9.69
14:37:28.984375,16.11
14:37:29,22.93
14:37:29.015625,30.78
14:37:29.031250,40.36
14:37:29.046875,53.24
14:37:29.062500,69.67
14:37:29.078125,87.87
14:37:29.093750,104.46
14:37:29.109375,115.39
14:37:29.125000,117.08
14:37:29.140625,108.14
14:37:29.156250,90.89
14:37:29.171875,66.07
14:37:29.187500,42.69
14:37:29.203125,31.52
14:37:29.218750,35.09
14:37:29.234375,45.76
14:37:29.250000,52.96
14:37:29.265625,50.10
14:37:29.281250,36.98
14:37:29.296875,18.13
14:37:29.312500,-0.63
14:37:29.328125,-14.83
14:37:29.343750,-24.22
14:37:29.359375,-31.57
14:37:29.375000,-39.53
14:37:29.390625,-48.29
14:37:29.406250,-55.74
14:37:29.421875,-59.37
14:37:29.437500,-58.52
14:37:29.453125,-53.75
14:37:29.468750,-46.80
14:37:29.484375,-40.77
14:37:29.500000,-38.39
14:37:29.515625,-40.32
14:37:29.531250,-44.94
14:37:29.546875,-49.79
14:37:29.562500,-53.08
14:37:29.578125,-54.37
14:37:29.593750,-54.27
14:37:29.609375,-53.74
14:37:29.625000,-54.01
14:37:29.640625,-56.01
14:37:29.656250,-59.77
14:37:29.671875,-64.28
14:37:29.687500,-68.30
14:37:29.703125,-70.58
14:37:29.718750,-70.92
14:37:29.734375,-69.85
14:37:29.750000,-68.12
14:37:29.765625,-66.56
14:37:29.781250,-65.64
14:37:29.796875,-64.88
14:37:29.812500,-62.84
14:37:29.828125,-57.73
14:37:29.843750,-48.18
14:37:29.859375,-34.00
14:37:29.875000,-16.25
14:37:29.890625,3.01
14:37:29.906250,21.40
14:37:29.921875,37.09
14:37:29.937500,49.47
14:37:29.953125,59.21
14:37:29.968750,67.67
14:37:29.984375,76.08
14:37:30,84.92
14:37:30.015625,93.83
14:37:30.031250,101.89
14:37:30.046875,108.19
14:37:30.062500,112.16
14:37:30.078125,113.76
14:37:30.093750,113.29
14:37:30.109375,111.13
14:37:30.125000,107.58
14:37:30.140625,102.77
14:37:30.156250,96.81
14:37:30.171875,89.82
14:37:30.187500,82.02
14:37:30.203125,73.69
14:37:30.218750,65.15
14:37:30.234375,56.72
14:37:30.250000,48.61
14:37:30.265625,40.82
14:37:30.281250,33.14
14:37:30.296875,25.24
14:37:30.312500,16.78
14:37:30.328125,7.59
14:37:30.343750,-2.30
14:37:30.359375,-12.59
14:37:30.375000,-22.89
14:37:30.390625,-32.77
14:37:30.406250,-41.84
14:37:30.421875,-49.80
14:37:30.437500,-56.30
14:37:30.453125,-61.04
14:37:30.468750,-63.72
14:37:30.484375,-64.16
14:37:30.500000,-62.40
14:37:30.515625,-58.73
14:37:30.531250,-53.64
14:37:30.546875,-47.73
14:37:30.562500,-41.54
14:37:30.578125,-35.46
14:37:30.593750,-29.70
14:37:30.609375,-24.32
14:37:30.625000,-19.26
14:37:30.640625,-14.34
14:37:30.656250,-9.34
14:37:30.671875,-3.98
14:37:30.687500,1.96
14:37:30.703125,8.54
14:37:30.718750,15.50
14:37:30.734375,22.24
14:37:30.750000,27.94
14:37:30.765625,31.81
14:37:30.781250,33.38
14:37:30.796875,32.70
14:37:30.812500,30.21
14:37:30.828125,26.59
14:37:30.843750,22.43
14:37:30.859375,18.08
14:37:30.875000,13.66
14:37:30.890625,9.19
14:37:30.906250,4.73
14:37:30.921875,0.45
14:37:30.937500,-3.41
14:37:30.953125,-6.62
14:37:30.968750,-9.07
14:37:30.984375,-10.74
14:37:31,-11.62
14:37:31.015625,-11.61
14:37:31.031250,-10.59
14:37:31.046875,-8.48
14:37:31.062500,-5.36
14:37:31.078125,-1.48
14:37:31.093750,2.73
14:37:31.109375,6.82
14:37:31.125000,10.40
14:37:31.140625,13.15
14:37:31.156250,14.86
14:37:31.171875,15.41
14:37:31.187500,14.82
14:37:31.203125,13.31
14:37:31.218750,11.27
14:37:31.234375,9.17
14:37:31.250000,7.41
14:37:31.265625,6.19
14:37:31.281250,5.46
14:37:31.296875,5.01
14:37:31.312500,4.60
14:37:31.328125,4.00
14:37:31.343750,3.10
14:37:31.359375,1.80
14:37:31.375000,0.03
14:37:31.390625,-2.27
14:37:31.406250,-5.16
14:37:31.421875,-8.63
14:37:31.437500,-12.62
14:37:31.453125,-17.01
14:37:31.468750,-21.73
14:37:31.484375,-26.74
14:37:31.500000,-32.05
14:37:31.515625,-37.57
14:37:31.531250,-43.08
14:37:31.546875,-48.08
14:37:31.562500,-51.91
14:37:31.578125,-53.90
14:37:31.593750,-53.66
14:37:31.609375,-51.19
14:37:31.625000,-46.97
14:37:31.640625,-41.73
14:37:31.656250,-36.16
14:37:31.671875,-30.67
14:37:31.687500,-25.37
14:37:31.703125,-20.12
14:37:31.718750,-14.81
14:37:31.734375,-9.36
14:37:31.750000,-3.78
14:37:31.765625,1.95
14:37:31.781250,7.95
14:37:31.796875,14.44
14:37:31.812500,21.62
14:37:31.828125,29.55
14:37:31.843750,38.04
14:37:31.859375,46.65
14:37:31.875000,54.71
14:37:31.890625,61.48
14:37:31.906250,66.33
14:37:31.921875,68.88
14:37:31.937500,69.07
14:37:31.953125,67.19
14:37:31.968750,63.72
14:37:31.984375,59.19
14:37:32,54.06
14:37:32.015625,48.61
14:37:32.031250,43.02
14:37:32.046875,37.35
14:37:32.062500,31.65
14:37:32.078125,25.91
14:37:32.093750,20.09
14:37:32.109375,14.22
14:37:32.125000,8.50
14:37:32.140625,3.32
14:37:32.156250,-0.73
14:37:32.171875,-3.03
14:37:32.187500,-3.16
14:37:32.203125,-1.05
14:37:32.218750,3.00
14:37:32.234375,8.35
14:37:32.250000,14.29
14:37:32.265625,20.14
14:37:32.281250,25.39
14:37:32.296875,29.74
14:37:32.312500,33.01
14:37:32.328125,35.07
14:37:32.343750,35.80
14:37:32.359375,35.14
14:37:32.375000,33.16
14:37:32.390625,30.14
14:37:32.406250,26.51
14:37:32.421875,22.78
14:37:32.437500,19.32
14:37:32.453125,16.26
14:37:32.468750,13.46
14:37:32.484375,10.63
14:37:32.500000,7.56
14:37:32.515625,4.23
14:37:32.531250,0.82
14:37:32.546875,-2.37
14:37:32.562500,-5.08
14:37:32.578125,-7.27
14:37:32.593750,-9.09
14:37:32.609375,-10.81
14:37:32.625000,-12.71
14:37:32.640625,-14.92
14:37:32.656250,-17.45
14:37:32.671875,-20.20
14:37:32.687500,-23.04
14:37:32.703125,-25.86
14:37:32.718750,-28.59
14:37:32.734375,-31.16
14:37:32.750000,-33.49
14:37:32.765625,-35.42
14:37:32.781250,-36.82
14:37:32.796875,-37.57
14:37:32.812500,-37.67
14:37:32.828125,-37.27
14:37:32.843750,-36.57
14:37:32.859375,-35.82
14:37:32.875000,-35.11
14:37:32.890625,-34.38
14:37:32.906250,-33.33
14:37:32.921875,-31.58
14:37:32.937500,-28.75
14:37:32.953125,-24.63
14:37:32.968750,-19.31
14:37:32.984375,-13.13
14:37:33,-6.61
14:37:33.015625,-0.21
14:37:33.031250,5.68
14:37:33.046875,10.90
14:37:33.062500,15.32
14:37:33.078125,18.88
14:37:33.093750,21.46
14:37:33.109375,22.93
14:37:33.125000,23.24
14:37:33.140625,22.48
14:37:33.156250,20.88
14:37:33.171875,18.80
14:37:33.187500,16.62
14:37:33.203125,14.68
14:37:33.218750,13.18
14:37:33.234375,12.19
14:37:33.250000,11.59
14:37:33.265625,11.18
14:37:33.281250,10.73
14:37:33.296875,10.10
14:37:33.312500,9.28
14:37:33.328125,8.43
14:37:33.343750,7.75
14:37:33.359375,7.36
14:37:33.375000,7.21
14:37:33.390625,7.03
14:37:33.406250,6.50
14:37:33.421875,5.41
14:37:33.437500,3.76
14:37:33.453125,1.79
14:37:33.468750,-0.11
14:37:33.484375,-1.61
14:37:33.500000,-2.56
14:37:33.515625,-3.06
14:37:33.531250,-3.36
14:37:33.546875,-3.83
14:37:33.562500,-4.72
14:37:33.578125,-6.13
14:37:33.593750,-8.00
14:37:33.609375,-10.12
14:37:33.625000,-12.27
14:37:33.640625,-14.28
14:37:33.656250,-16.12
14:37:33.671875,-17.85
14:37:33.687500,-19.62
14:37:33.703125,-21.55
14:37:33.718750,-23.68
14:37:33.734375,-25.92
14:37:33.750000,-28.07
14:37:33.765625,-29.86
14:37:33.781250,-30.99
14:37:33.796875,-31.18
14:37:33.812500,-30.23
14:37:33.828125,-28.02
14:37:33.843750,-24.58
14:37:33.859375,-20.08
14:37:33.875000,-14.84
14:37:33.890625,-9.27
14:37:33.906250,-3.82
14:37:33.921875,1.14
14:37:33.937500,5.28
14:37:33.953125,8.39
14:37:33.968750,10.39
14:37:33.984375,11.32
14:37:34,11.37
14:37:34.015625,10.84
14:37:34.031250,10.07
14:37:34.046875,9.37
14:37:34.062500,8.96
14:37:34.078125,8.90
14:37:34.093750,9.12
14:37:34.109375,9.45
14:37:34.125000,9.67
14:37:34.140625,9.58
14:37:34.156250,9.09
14:37:34.171875,8.21
14:37:34.187500,7.08
14:37:34.203125,5.91
14:37:34.218750,4.93
14:37:34.234375,4.29
14:37:34.250000,3.96
14:37:34.265625,3.81
14:37:34.281250,3.59
14:37:34.296875,3.09
14:37:34.312500,2.21
14:37:34.328125,1.00
14:37:34.343750,-0.37
14:37:34.359375,-1.71
14:37:34.375000,-2.95
14:37:34.390625,-4.12
14:37:34.406250,-5.42
14:37:34.421875,-7.06
14:37:34.437500,-9.17
14:37:34.453125,-11.72
14:37:34.468750,-14.53
14:37:34.484375,-17.36
14:37:34.500000,-20.03
14:37:34.515625,-22.47
14:37:34.531250,-24.65
14:37:34.546875,-26.56
14:37:34.562500,-28.12
14:37:34.578125,-29.24
14:37:34.593750,-29.90
14:37:34.609375,-30.19
14:37:34.625000,-30.30
14:37:34.640625,-30.37
14:37:34.656250,-30.36
14:37:34.671875,-29.90
14:37:34.687500,-28.51
14:37:34.703125,-25.71
14:37:34.718750,-21.32
14:37:34.734375,-15.61
14:37:34.750000,-9.12
14:37:34.765625,-2.51
14:37:34.781250,3.82
14:37:34.796875,9.79
14:37:34.812500,15.64
14:37:34.828125,21.64
14:37:34.843750,27.82
14:37:34.859375,33.86
14:37:34.875000,39.17
14:37:34.890625,43.17
14:37:34.906250,45.57
14:37:34.921875,46.49
14:37:34.937500,46.35
14:37:34.953125,45.66
14:37:34.968750,44.77
14:37:34.984375,43.74
14:37:35,42.42
14:37:35.015625,40.64
14:37:35.031250,38.39
14:37:35.046875,35.81
14:37:35.062500,33.17
14:37:35.078125,30.71
14:37:35.093750,28.50
14:37:35.109375,26.44
14:37:35.125000,24.34
14:37:35.140625,21.96
14:37:35.156250,19.19
14:37:35.171875,16.05
14:37:35.187500,12.71
14:37:35.203125,9.36
14:37:35.218750,6.18
14:37:35.234375,3.22
14:37:35.250000,0.43
14:37:35.265625,-2.34
14:37:35.281250,-5.24
14:37:35.296875,-8.32
14:37:35.312500,-11.51
14:37:35.328125,-14.62
14:37:35.343750,-17.42
14:37:35.359375,-19.76
14:37:35.375000,-21.63
14:37:35.390625,-23.22
14:37:35.406250,-24.80
14:37:35.421875,-26.63
14:37:35.437500,-28.83
14:37:35.453125,-31.28
14:37:35.468750,-33.68
14:37:35.484375,-35.61
14:37:35.500000,-36.66
14:37:35.515625,-36.55
14:37:35.531250,-35.16
14:37:35.546875,-32.54
14:37:35.562500,-28.84
14:37:35.578125,-24.37
14:37:35.593750,-19.49
14:37:35.609375,-14.65
14:37:35.625000,-10.20
14:37:35.640625,-6.43
14:37:35.656250,-3.48
14:37:35.671875,-1.37
14:37:35.687500,0.02
14:37:35.703125,0.84
14:37:35.718750,1.24
14:37:35.734375,1.28
14:37:35.750000,1.00
14:37:35.765625,0.49
14:37:35.781250,-0.12
14:37:35.796875,-0.69
14:37:35.812500,-1.16
14:37:35.828125,-1.51
14:37:35.843750,-1.80
14:37:35.859375,-2.10
14:37:35.875000,-2.49
14:37:35.890625,-3.05
14:37:35.906250,-3.73
14:37:35.921875,-4.53
14:37:35.937500,-5.48
14:37:35.953125,-6.70
14:37:35.968750,-8.31
14:37:35.984375,-10.33
14:37:36,-12.72
14:37:36.015625,-15.39
14:37:36.031250,-18.26
14:37:36.046875,-20.97
14:37:36.062500,-23.25
14:37:36.078125,-25.13
14:37:36.093750,-26.99
14:37:36.109375,-29.33
14:37:36.125000,-32.45
14:37:36.140625,-36.42
14:37:36.156250,-40.87
14:37:36.171875,-45.39
14:37:36.187500,-48.99
14:37:36.203125,-51.05
14:37:36.218750,-51.82
14:37:36.234375,-52.47
14:37:36.250000,-54.25
14:37:36.265625,-57.61
14:37:36.281250,-61.89
14:37:36.296875,-65.19
14:37:36.312500,-65.37
14:37:36.328125,-59.95
14:37:36.343750,-47.79
14:37:36.359375,-29.90
14:37:36.375000,-9.24
14:37:36.390625,10.78
14:37:36.406250,27.78
14:37:36.421875,40.61
14:37:36.437500,49.85
14:37:36.453125,56.59
14:37:36.468750,63.40
14:37:36.484375,72.72
14:37:36.500000,85.89
14:37:36.515625,102.77
14:37:36.531250,122.32
14:37:36.546875,143.23
14:37:36.562500,163.69
14:37:36.578125,182.28
14:37:36.593750,189.05
14:37:36.609375,176.61
14:37:36.625000,145.50
14:37:36.640625,105.20
14:37:36.656250,66.79
14:37:36.671875,36.67
14:37:36.687500,18.04
14:37:36.703125,6.11
14:37:36.718750,-3.37
14:37:36.734375,-13.47
14:37:36.750000,-24.42
14:37:36.765625,-35.00
14:37:36.781250,-44.24
14:37:36.796875,-51.07
14:37:36.812500,-54.67
14:37:36.828125,-54.53
14:37:36.843750,-51.18
14:37:36.859375,-45.33
14:37:36.875000,-38.24
14:37:36.890625,-30.05
14:37:36.906250,-20.41
14:37:36.921875,-9.33
14:37:36.937500,2.11
14:37:36.953125,12.02
14:37:36.968750,18.61
14:37:36.984375,20.61
14:37:37,18.38
14:37:37.015625,13.21
14:37:37.031250,7.42
14:37:37.046875,3.07
14:37:37.062500,1.06
14:37:37.078125,1.02
14:37:37.093750,1.92
14:37:37.109375,2.87
14:37:37.125000,3.30
14:37:37.140625,3.68
14:37:37.156250,4.62
14:37:37.171875,7.04
14:37:37.187500,11.64
14:37:37.203125,18.42
14:37:37.218750,26.61
14:37:37.234375,34.83
14:37:37.250000,41.64
14:37:37.265625,45.79
14:37:37.281250,46.82
14:37:37.296875,44.87
14:37:37.312500,40.71
14:37:37.328125,35.41
14:37:37.343750,29.88
14:37:37.359375,24.71
14:37:37.375000,19.99
14:37:37.390625,15.60
14:37:37.406250,11.27
14:37:37.421875,6.91
14:37:37.437500,2.58
14:37:37.453125,-1.54
14:37:37.468750,-5.28
14:37:37.484375,-8.56
14:37:37.500000,-11.52
14:37:37.515625,-14.39
14:37:37.531250,-17.43
14:37:37.546875,-20.68
14:37:37.562500,-23.91
14:37:37.578125,-26.72
14:37:37.593750,-28.69
14:37:37.609375,-29.59
14:37:37.625000,-29.49
14:37:37.640625,-28.73
14:37:37.656250,-27.73
14:37:37.671875,-26.92
14:37:37.687500,-26.59
14:37:37.703125,-26.86
14:37:37.718750,-27.75
14:37:37.734375,-29.22
14:37:37.750000,-31.20
14:37:37.765625,-33.68
14:37:37.781250,-36.73
14:37:37.796875,-40.43
14:37:37.812500,-44.83
14:37:37.828125,-49.79
14:37:37.843750,-54.95
14:37:37.859375,-59.68
14:37:37.875000,-63.28
14:37:37.890625,-65.12
14:37:37.906250,-64.93
14:37:37.921875,-62.82
14:37:37.937500,-59.27
14:37:37.953125,-54.87
14:37:37.968750,-50.08
14:37:37.984375,-44.99
14:37:38,-39.20
14:37:38.015625,-32.00
14:37:38.031250,-22.76
14:37:38.046875,-11.26
14:37:38.062500,1.94
14:37:38.078125,15.59
14:37:38.093750,28.09
14:37:38.109375,38.04
14:37:38.125000,44.67
14:37:38.140625,48.03
14:37:38.156250,48.82
14:37:38.171875,47.97
14:37:38.187500,46.27
14:37:38.203125,44.11
14:37:38.218750,41.60
14:37:38.234375,38.76
14:37:38.250000,35.71
14:37:38.265625,32.73
14:37:38.281250,30.16
14:37:38.296875,28.20
14:37:38.312500,26.76
14:37:38.328125,25.50
14:37:38.343750,23.98
14:37:38.359375,21.88
14:37:38.375000,19.16
14:37:38.390625,16.03
14:37:38.406250,12.87
14:37:38.421875,10.01
14:37:38.437500,7.60
14:37:38.453125,5.56
14:37:38.468750,3.70
14:37:38.484375,1.76
14:37:38.500000,-0.51
14:37:38.515625,-3.28
14:37:38.531250,-6.69
14:37:38.546875,-10.80
14:37:38.562500,-15.58
14:37:38.578125,-20.89
14:37:38.593750,-26.44
14:37:38.609375,-31.80
14:37:38.625000,-36.44
14:37:38.640625,-39.78
14:37:38.656250,-41.27
14:37:38.671875,-40.57
14:37:38.687500,-37.61
14:37:38.703125,-32.66
14:37:38.718750,-26.25
14:37:38.734375,-18.96
14:37:38.750000,-11.28
14:37:38.765625,-3.44
14:37:38.781250,4.52
14:37:38.796875,12.65
14:37:38.812500,20.80
14:37:38.828125,28.66
14:37:38.843750,35.75
14:37:38.859375,41.57
14:37:38.875000,45.74
14:37:38.890625,48.07
14:37:38.906250,48.52
14:37:38.921875,47.19
14:37:38.937500,44.29
14:37:38.953125,40.05
14:37:38.968750,34.83
14:37:38.984375,28.99
14:37:39,22.89
14:37:39.015625,16.78
14:37:39.031250,10.84
14:37:39.046875,5.11
14:37:39.062500,-0.36
14:37:39.078125,-5.51
14:37:39.093750,-10.22
14:37:39.109375,-14.31
14:37:39.125000,-17.65
14:37:39.140625,-20.24
14:37:39.156250,-22.21
14:37:39.171875,-23.82
14:37:39.187500,-25.32
14:37:39.203125,-26.88
14:37:39.218750,-28.53
14:37:39.234375,-30.21
14:37:39.250000,-31.85
14:37:39.265625,-33.45
14:37:39.281250,-35.05
14:37:39.296875,-36.70
14:37:39.312500,-38.43
14:37:39.328125,-40.19
14:37:39.343750,-41.95
14:37:39.359375,-43.66
14:37:39.375000,-45.25
14:37:39.390625,-46.57
14:37:39.406250,-47.33
14:37:39.421875,-47.09
14:37:39.437500,-45.42
14:37:39.453125,-42.14
14:37:39.468750,-37.43
14:37:39.484375,-31.92
14:37:39.500000,-26.41
14:37:39.515625,-21.66
14:37:39.531250,-18.01
14:37:39.546875,-15.39
14:37:39.562500,-13.34
14:37:39.578125,-11.35
14:37:39.593750,-9.06
14:37:39.609375,-6.40
14:37:39.625000,-3.54
14:37:39.640625,-0.77
14:37:39.656250,1.69
14:37:39.671875,3.72
14:37:39.687500,5.36
14:37:39.703125,6.69
14:37:39.718750,7.82
14:37:39.734375,8.77
14:37:39.750000,9.53
14:37:39.765625,10.03
14:37:39.781250,10.18
14:37:39.796875,9.89
14:37:39.812500,9.02
14:37:39.828125,7.48
14:37:39.843750,5.19
14:37:39.859375,2.22
14:37:39.875000,-1.13
14:37:39.890625,-4.28
14:37:39.906250,-6.46
14:37:39.921875,-6.88
14:37:39.937500,-4.99
14:37:39.953125,-0.80
14:37:39.968750,5.13
14:37:39.984375,11.77
14:37:40,17.95
14:37:40.015625,22.64
14:37:40.031250,25.19
14:37:40.046875,25.43
14:37:40.062500,23.58
14:37:40.078125,20.14
14:37:40.093750,15.75
14:37:40.109375,11.03
14:37:40.125000,6.59
14:37:40.140625,2.99
14:37:40.156250,0.71
14:37:40.171875,0.12
14:37:40.187500,1.44
14:37:40.203125,4.56
14:37:40.218750,9.05
14:37:40.234375,14.17
14:37:40.250000,19.00
14:37:40.265625,22.70
14:37:40.281250,24.76
14:37:40.296875,25.10
14:37:40.312500,24.05
14:37:40.328125,22.21
14:37:40.343750,20.07
14:37:40.359375,17.91
14:37:40.375000,15.70
14:37:40.390625,13.21
14:37:40.406250,10.24
14:37:40.421875,6.75
14:37:40.437500,2.97
14:37:40.453125,-0.67
14:37:40.468750,-3.74
14:37:40.484375,-6.00
14:37:40.500000,-7.59
14:37:40.515625,-8.99
14:37:40.531250,-10.87
14:37:40.546875,-13.83
14:37:40.562500,-18.11
14:37:40.578125,-23.47
14:37:40.593750,-29.20
14:37:40.609375,-34.37
14:37:40.625000,-38.24
14:37:40.640625,-40.62
14:37:40.656250,-42.03
14:37:40.671875,-43.57
14:37:40.687500,-46.46
14:37:40.703125,-51.48
14:37:40.718750,-58.57
14:37:40.734375,-66.79
14:37:40.750000,-74.67
14:37:40.765625,-80.77
14:37:40.781250,-84.28
14:37:40.796875,-85.27
14:37:40.812500,-84.64
14:37:40.828125,-83.71
14:37:40.843750,-83.78
14:37:40.859375,-85.60
14:37:40.875000,-88.89
14:37:40.890625,-92.04
14:37:40.906250,-91.92
14:37:40.921875,-84.42
14:37:40.937500,-65.66
14:37:40.953125,-33.60
14:37:40.968750,10.53
14:37:40.984375,61.80
14:37:41,112.72
14:37:41.015625,155.50
14:37:41.031250,184.59
14:37:41.046875,198.38
14:37:41.062500,199.21
14:37:41.078125,191.84
14:37:41.093750,181.17
14:37:41.109375,170.37
14:37:41.125000,160.08
14:37:41.140625,148.94
14:37:41.156250,134.88
14:37:41.171875,116.48
14:37:41.187500,93.82
14:37:41.203125,68.55
14:37:41.218750,43.28
14:37:41.234375,20.70
14:37:41.250000,2.83
14:37:41.265625,-9.29
14:37:41.281250,-15.50
14:37:41.296875,-16.21
14:37:41.312500,-12.16
14:37:41.328125,-4.43
14:37:41.343750,5.42
14:37:41.359375,15.25
14:37:41.375000,22.68
14:37:41.390625,25.78
14:37:41.406250,23.84
14:37:41.421875,17.85
14:37:41.437500,10.43
14:37:41.453125,4.95
14:37:41.468750,4.48
14:37:41.484375,10.63
14:37:41.500000,23.05
14:37:41.515625,39.57
14:37:41.531250,57.09
14:37:41.546875,72.64
14:37:41.562500,84.43
14:37:41.578125,92.21
14:37:41.593750,97.04
14:37:41.609375,100.46
14:37:41.625000,103.91
14:37:41.640625,108.38
14:37:41.656250,114.26
14:37:41.671875,121.38
14:37:41.687500,128.52
14:37:41.703125,132.91
14:37:41.718750,130.16
14:37:41.734375,115.53
14:37:41.750000,86.32
14:37:41.765625,44.04
14:37:41.781250,-5.40
14:37:41.796875,-53.90
14:37:41.812500,-94.74
14:37:41.828125,-125.38
14:37:41.843750,-147.27
14:37:41.859375,-163.29
14:37:41.875000,-174.45
14:37:41.890625,-178.44
14:37:41.906250,-171.36
14:37:41.921875,-151.34
14:37:41.937500,-121.35
14:37:41.953125,-89.06
14:37:41.968750,-63.49
14:37:41.984375,-50.53
14:37:42,-50.33
14:37:42.015625,-57.91
14:37:42.031250,-66.31
14:37:42.046875,-70.37
14:37:42.062500,-68.72
14:37:42.078125,-63.32
14:37:42.093750,-57.37
14:37:42.109375,-53.53
14:37:42.125000,-52.68
14:37:42.140625,-53.96
14:37:42.156250,-55.71
14:37:42.171875,-56.25
14:37:42.187500,-54.61
14:37:42.203125,-50.60
14:37:42.218750,-44.70
14:37:42.234375,-37.63
14:37:42.250000,-29.91
14:37:42.265625,-21.60
14:37:42.281250,-12.49
14:37:42.296875,-2.48
14:37:42.312500,7.87
14:37:42.328125,17.21
14:37:42.343750,23.71
14:37:42.359375,25.81
14:37:42.375000,22.94
14:37:42.390625,15.86
14:37:42.406250,6.36
14:37:42.421875,-3.36
14:37:42.437500,-11.53
14:37:42.453125,-17.20
14:37:42.468750,-20.30
14:37:42.484375,-21.35
14:37:42.500000,-20.98
14:37:42.515625,-19.70
14:37:42.531250,-17.80
14:37:42.546875,-15.52
14:37:42.562500,-13.31
14:37:42.578125,-12.00
14:37:42.593750,-12.70
14:37:42.609375,-16.35
14:37:42.625000,-23.19
14:37:42.640625,-32.35
14:37:42.656250,-41.84
14:37:42.671875,-49.11
14:37:42.687500,-51.88
14:37:42.703125,-48.96
14:37:42.718750,-40.70
14:37:42.734375,-28.84
14:37:42.750000,-15.95
14:37:42.765625,-4.60
14:37:42.781250,3.28
14:37:42.796875,6.76
14:37:42.812500,5.82
14:37:42.828125,1.16
14:37:42.843750,-6.06
14:37:42.859375,-14.47
14:37:42.875000,-22.57
14:37:42.890625,-28.88
14:37:42.906250,-32.17
14:37:42.921875,-31.69
14:37:42.937500,-27.43
14:37:42.953125,-20.18
14:37:42.968750,-11.31
14:37:42.984375,-2.39
14:37:43,5.37
14:37:43.015625,11.36
14:37:43.031250,15.67
14:37:43.046875,18.74
14:37:43.062500,21.04
14:37:43.078125,22.78
14:37:43.093750,23.81
14:37:43.109375,23.74
14:37:43.125000,22.19
14:37:43.140625,18.97
14:37:43.156250,14.27
14:37:43.171875,8.59
14:37:43.187500,2.75
14:37:43.203125,-2.41
14:37:43.218750,-6.23
14:37:43.234375,-8.37
14:37:43.250000,-8.92
14:37:43.265625,-8.23
14:37:43.281250,-6.73
14:37:43.296875,-4.79
14:37:43.312500,-2.62
14:37:43.328125,-0.38
14:37:43.343750,1.70
14:37:43.359375,3.34
14:37:43.375000,4.19
14:37:43.390625,4.07
14:37:43.406250,3.03
14:37:43.421875,1.32
14:37:43.437500,-0.68
14:37:43.453125,-2.72
14:37:43.468750,-4.74
14:37:43.484375,-6.93
14:37:43.500000,-9.63
14:37:43.515625,-13.12
14:37:43.531250,-17.44
14:37:43.546875,-22.18
14:37:43.562500,-26.51
14:37:43.578125,-29.36
14:37:43.593750,-29.73
14:37:43.609375,-27.05
14:37:43.625000,-21.43
14:37:43.640625,-13.62
14:37:43.656250,-4.71
14:37:43.671875,4.19
14:37:43.687500,12.25
14:37:43.703125,19.06
