18:41:56,-0.00
18:41:56.015625,-0.00
18:41:56.031250,-0.00
18:41:56.046875,-0.00
18:41:56.062500,-0.00
18:41:56.078125,-0.00
18:41:56.093750,-0.00
18:41:56.109375,-0.00
18:41:56.125000,-0.00
18:41:56.140625,-0.00
18:41:56.156250,0.00
18:41:56.171875,0.01
18:41:56.187500,0.01
18:41:56.203125,-0.00
18:41:56.218750,-0.03
18:41:56.234375,-0.05
18:41:56.250000,-0.05
18:41:56.265625,0.00
18:41:56.281250,0.13
18:41:56.296875,0.36
18:41:56.312500,0.66
18:41:56.328125,1.01
18:41:56.343750,1.37
18:41:56.359375,1.72
18:41:56.375000,2.06
18:41:56.390625,2.40
18:41:56.406250,2.79
18:41:56.421875,3.24
18:41:56.437500,3.80
18:41:56.453125,4.42
18:41:56.468750,5.06
18:41:56.484375,5.66
18:41:56.500000,6.20
18:41:56.515625,6.68
18:41:56.531250,7.15
18:41:56.546875,7.68
18:41:56.562500,8.31
18:41:56.578125,9.14
18:41:56.593750,10.09
18:41:56.609375,11.04
18:41:56.625000,11.88
18:41:56.640625,12.56
18:41:56.656250,13.14
18:41:56.671875,13.76
18:41:56.687500,14.65
18:41:56.703125,15.96
18:41:56.718750,17.91
18:41:56.734375,20.32
18:41:56.750000,22.90
18:41:56.765625,25.38
18:41:56.781250,27.58
18:41:56.796875,29.57
18:41:56.812500,31.68
18:41:56.828125,34.32
18:41:56.843750,37.81
18:41:56.859375,42.54
18:41:56.875000,48.15
18:41:56.890625,54.10
18:41:56.906250,59.83
18:41:56.921875,64.97
18:41:56.937500,69.58
18:41:56.953125,74.15
18:41:56.968750,79.35
18:41:56.984375,85.71
18:41:57,93.76
18:41:57.015625,102.99
18:41:57.031250,112.61
18:41:57.046875,121.74
18:41:57.062500,129.79
18:41:57.078125,136.80
18:41:57.093750,143.35
18:41:57.109375,150.76
18:41:57.125000,157.71
18:41:57.140625,166.46
18:41:57.156250,177.62
18:41:57.171875,191.34
18:41:57.187500,206.44
18:41:57.203125,220.01
18:41:57.218750,227.70
18:41:57.234375,224.83
18:41:57.250000,207.99
18:41:57.265625,176.27
18:41:57.281250,132.05
18:41:57.296875,79.21
18:41:57.312500,22.13
18:41:57.328125,-35.94
18:41:57.343750,-93.42
18:41:57.359375,-150.08
18:41:57.375000,-206.12
18:41:57.390625,-261.32
18:41:57.406250,-314.87
18:41:57.421875,-365.29
18:41:57.437500,-411.57
18:41:57.453125,-452.92
18:41:57.468750,-488.64
18:41:57.484375,-517.83
18:41:57.500000,-539.20
18:41:57.515625,-551.12
18:41:57.531250,-552.02
18:41:57.546875,-540.91
18:41:57.562500,-517.52
18:41:57.578125,-482.88
18:41:57.593750,-438.85
18:41:57.609375,-387.84
18:41:57.625000,-332.42
18:41:57.640625,-275.01
18:41:57.656250,-217.64
18:41:57.671875,-161.94
18:41:57.687500,-109.17
18:41:57.703125,-60.11
18:41:57.718750,-15.44
18:41:57.734375,24.47
18:41:57.750000,59.37
18:41:57.765625,89.12
18:41:57.781250,113.60
18:41:57.796875,132.76
18:41:57.812500,146.72
18:41:57.828125,155.82
18:41:57.843750,160.74
18:41:57.859375,162.40
18:41:57.875000,161.78
18:41:57.890625,159.72
18:41:57.906250,156.67
18:41:57.921875,152.73
18:41:57.937500,147.71
18:41:57.953125,141.37
18:41:57.968750,133.50
18:41:57.984375,123.95
18:41:58,112.67
18:41:58.015625,99.98
18:41:58.031250,86.96
18:41:58.046875,75.63
18:41:58.062500,68.58
18:41:58.078125,68.01
18:41:58.093750,74.61
18:41:58.109375,86.84
18:41:58.125000,101.23
18:41:58.140625,113.64
18:41:58.156250,120.93
18:41:58.171875,122.00
18:41:58.187500,117.85
18:41:58.203125,110.57
18:41:58.218750,102.12
18:41:58.234375,93.48
18:41:58.250000,84.70
18:41:58.265625,75.66
18:41:58.281250,66.37
18:41:58.296875,57.45
18:41:58.312500,49.76
18:41:58.328125,43.93
18:41:58.343750,39.93
18:41:58.359375,37.10
18:41:58.375000,34.50
18:41:58.390625,31.34
18:41:58.406250,27.34
18:41:58.421875,22.71
18:41:58.437500,18.02
18:41:58.453125,13.85
18:41:58.468750,10.58
18:41:58.484375,8.21
18:41:58.500000,6.52
18:41:58.515625,5.14
18:41:58.531250,3.76
18:41:58.546875,2.22
18:41:58.562500,0.52
18:41:58.578125,-1.26
18:41:58.593750,-3.07
18:41:58.609375,-4.91
18:41:58.625000,-6.82
18:41:58.640625,-8.73
18:41:58.656250,-10.24
18:41:58.671875,-10.60
18:41:58.687500,-8.94
18:41:58.703125,-4.74
18:41:58.718750,1.76
18:41:58.734375,9.46
18:41:58.750000,16.71
18:41:58.765625,21.91
18:41:58.781250,24.15
18:41:58.796875,23.41
18:41:58.812500,20.45
18:41:58.828125,16.29
18:41:58.843750,11.79
18:41:58.859375,7.45
18:41:58.875000,3.46
18:41:58.890625,-0.06
18:41:58.906250,-3.00
18:41:58.921875,-5.18
18:41:58.937500,-6.48
18:41:58.953125,-6.89
18:41:58.968750,-6.56
18:41:58.984375,-5.70
18:41:59,-4.57
18:41:59.015625,-3.43
18:41:59.031250,-2.51
18:41:59.046875,-1.94
18:41:59.062500,-1.72
18:41:59.078125,-1.74
18:41:59.093750,-1.89
18:41:59.109375,-2.16
18:41:59.125000,-2.61
18:41:59.140625,-3.35
18:41:59.156250,-4.41
18:41:59.171875,-5.66
18:41:59.187500,-6.87
18:41:59.203125,-7.73
18:41:59.218750,-8.09
18:41:59.234375,-7.93
18:41:59.250000,-7.40
18:41:59.265625,-6.69
18:41:59.281250,-6.03
18:41:59.296875,-5.54
18:41:59.312500,-5.29
18:41:59.328125,-5.24
18:41:59.343750,-5.28
18:41:59.359375,-5.24
18:41:59.375000,-4.94
18:41:59.390625,-4.30
18:41:59.406250,-3.32
18:41:59.421875,-2.15
18:41:59.437500,-1.03
18:41:59.453125,-0.16
18:41:59.468750,0.31
18:41:59.484375,0.43
18:41:59.500000,0.37
18:41:59.515625,0.40
18:41:59.531250,0.78
18:41:59.546875,1.65
18:41:59.562500,2.91
18:41:59.578125,4.24
18:41:59.593750,5.21
18:41:59.609375,5.37
18:41:59.625000,4.44
18:41:59.640625,2.50
18:41:59.656250,0.04
18:41:59.671875,-2.07
18:41:59.687500,-2.75
18:41:59.703125,-1.11
18:41:59.718750,3.03
18:41:59.734375,9.00
18:41:59.750000,15.40
18:41:59.765625,20.50
18:41:59.781250,22.85
18:41:59.796875,21.89
18:41:59.812500,17.98
18:41:59.828125,12.29
18:41:59.843750,6.15
18:41:59.859375,0.69
18:41:59.875000,-3.49
18:41:59.890625,-6.31
18:41:59.906250,-8.00
18:41:59.921875,-8.92
18:41:59.937500,-9.34
18:41:59.953125,-9.44
18:41:59.968750,-9.26
18:41:59.984375,-8.79
18:42:00,-8.03
18:42:00.015625,-7.05
18:42:00.031250,-6.00
18:42:00.046875,-5.02
18:42:00.062500,-4.23
18:42:00.078125,-3.62
18:42:00.093750,-3.13
18:42:00.109375,-2.73
18:42:00.125000,-2.48
18:42:00.140625,-2.56
18:42:00.156250,-3.19
18:42:00.171875,-4.42
18:42:00.187500,-6.08
18:42:00.203125,-7.79
18:42:00.218750,-9.11
18:42:00.234375,-9.72
18:42:00.250000,-9.59
18:42:00.265625,-8.93
18:42:00.281250,-8.11
18:42:00.296875,-7.45
18:42:00.312500,-7.13
18:42:00.328125,-7.10
18:42:00.343750,-7.20
18:42:00.359375,-7.27
18:42:00.375000,-7.24
18:42:00.390625,-7.21
18:42:00.406250,-7.33
18:42:00.421875,-7.78
18:42:00.437500,-8.63
18:42:00.453125,-9.84
18:42:00.468750,-11.22
18:42:00.484375,-12.52
18:42:00.500000,-13.50
18:42:00.515625,-14.12
18:42:00.531250,-14.54
18:42:00.546875,-15.09
18:42:00.562500,-16.18
18:42:00.578125,-18.04
18:42:00.593750,-20.64
18:42:00.609375,-23.68
18:42:00.625000,-26.66
18:42:00.640625,-29.16
18:42:00.656250,-30.99
18:42:00.671875,-32.36
18:42:00.687500,-33.82
18:42:00.703125,-35.85
18:42:00.718750,-39.08
18:42:00.734375,-43.91
18:42:00.750000,-50.28
18:42:00.765625,-57.36
18:42:00.781250,-63.53
18:42:00.796875,-66.61
18:42:00.812500,-64.44
18:42:00.828125,-55.70
18:42:00.843750,-40.54
18:42:00.859375,-20.76
18:42:00.875000,0.70
18:42:00.890625,20.66
18:42:00.906250,36.67
18:42:00.921875,47.60
18:42:00.937500,53.73
18:42:00.953125,56.27
18:42:00.968750,56.70
18:42:00.984375,56.23
18:42:01,55.44
18:42:01.015625,54.46
18:42:01.031250,53.22
18:42:01.046875,51.66
18:42:01.062500,49.91
18:42:01.078125,48.23
18:42:01.093750,46.85
18:42:01.109375,45.88
18:42:01.125000,45.25
18:42:01.140625,44.74
18:42:01.156250,44.22
18:42:01.171875,43.70
18:42:01.187500,43.31
18:42:01.203125,43.20
18:42:01.218750,43.36
18:42:01.234375,43.55
18:42:01.250000,43.32
18:42:01.265625,42.20
18:42:01.281250,39.85
18:42:01.296875,36.28
18:42:01.312500,31.78
18:42:01.328125,26.92
18:42:01.343750,22.27
18:42:01.359375,18.27
18:42:01.375000,15.10
18:42:01.390625,12.67
18:42:01.406250,10.72
18:42:01.421875,8.93
18:42:01.437500,7.09
18:42:01.453125,5.11
18:42:01.468750,3.06
18:42:01.484375,1.10
18:42:01.500000,-0.64
18:42:01.515625,-2.07
18:42:01.531250,-3.21
18:42:01.546875,-4.16
18:42:01.562500,-5.10
18:42:01.578125,-6.23
18:42:01.593750,-7.71
18:42:01.609375,-9.64
18:42:01.625000,-11.96
18:42:01.640625,-14.48
18:42:01.656250,-16.93
18:42:01.671875,-19.11
18:42:01.687500,-21.00
18:42:01.703125,-22.82
18:42:01.718750,-24.96
18:42:01.734375,-27.81
18:42:01.750000,-31.55
18:42:01.765625,-36.02
18:42:01.781250,-40.76
18:42:01.796875,-45.17
18:42:01.812500,-48.75
18:42:01.828125,-51.30
18:42:01.843750,-53.09
18:42:01.859375,-54.74
18:42:01.875000,-57.10
18:42:01.890625,-60.92
18:42:01.906250,-66.57
18:42:01.921875,-73.69
18:42:01.937500,-81.07
18:42:01.953125,-86.72
18:42:01.968750,-88.38
18:42:01.984375,-84.17
18:42:02,-73.33
18:42:02.015625,-56.59
18:42:02.031250,-36.10
18:42:02.046875,-14.77
18:42:02.062500,4.63
18:42:02.078125,20.18
18:42:02.093750,31.29
18:42:02.109375,38.45
18:42:02.125000,42.80
18:42:02.140625,45.53
18:42:02.156250,47.43
18:42:02.171875,48.85
18:42:02.187500,49.81
18:42:02.203125,50.26
18:42:02.218750,50.24
18:42:02.234375,49.94
18:42:02.250000,49.63
18:42:02.265625,49.53
18:42:02.281250,49.74
18:42:02.296875,50.20
18:42:02.312500,50.78
18:42:02.328125,51.36
18:42:02.343750,51.89
18:42:02.359375,52.37
18:42:02.375000,52.77
18:42:02.390625,52.93
18:42:02.406250,52.57
18:42:02.421875,51.31
18:42:02.437500,48.87
18:42:02.453125,45.18
18:42:02.468750,40.51
18:42:02.484375,35.39
18:42:02.500000,30.47
18:42:02.515625,26.31
18:42:02.531250,23.19
18:42:02.546875,21.02
18:42:02.562500,19.42
18:42:02.578125,17.93
18:42:02.593750,16.16
18:42:02.609375,13.98
18:42:02.625000,11.58
18:42:02.640625,9.25
18:42:02.656250,7.33
18:42:02.671875,5.98
18:42:02.687500,5.14
18:42:02.703125,4.57
18:42:02.718750,3.94
18:42:02.734375,2.98
18:42:02.750000,1.54
18:42:02.765625,-0.36
18:42:02.781250,-2.55
18:42:02.796875,-4.81
18:42:02.812500,-6.92
18:42:02.828125,-8.82
18:42:02.843750,-10.66
18:42:02.859375,-12.75
18:42:02.875000,-15.47
18:42:02.890625,-19.04
18:42:02.906250,-23.43
18:42:02.921875,-28.27
18:42:02.937500,-33.03
18:42:02.953125,-37.21
18:42:02.968750,-40.62
18:42:02.984375,-43.41
18:42:03,-46.11
18:42:03.015625,-49.45
18:42:03.031250,-54.07
18:42:03.046875,-60.33
18:42:03.062500,-68.00
18:42:03.078125,-76.12
18:42:03.093750,-83.02
18:42:03.109375,-86.66
18:42:03.125000,-85.17
18:42:03.140625,-77.55
18:42:03.156250,-64.11
18:42:03.171875,-46.55
18:42:03.187500,-27.44
18:42:03.203125,-9.50
18:42:03.218750,5.28
18:42:03.234375,15.99
18:42:03.250000,22.87
18:42:03.265625,26.80
18:42:03.281250,28.83
18:42:03.296875,29.76
18:42:03.312500,29.98
18:42:03.328125,29.65
18:42:03.343750,28.82
18:42:03.359375,27.63
18:42:03.375000,26.32
18:42:03.390625,25.15
18:42:03.406250,24.32
18:42:03.421875,23.96
18:42:03.437500,24.08
18:42:03.453125,24.63
18:42:03.468750,25.54
18:42:03.484375,26.75
18:42:03.500000,28.19
18:42:03.515625,29.70
18:42:03.531250,31.04
18:42:03.546875,31.85
18:42:03.562500,31.76
18:42:03.578125,30.51
18:42:03.593750,28.09
18:42:03.609375,24.83
18:42:03.625000,21.29
18:42:03.640625,18.17
18:42:03.656250,16.01
18:42:03.671875,15.10
18:42:03.687500,15.35
18:42:03.703125,16.39
18:42:03.718750,17.68
18:42:03.734375,18.67
18:42:03.750000,18.88
18:42:03.765625,18.00
18:42:03.781250,15.96
18:42:03.796875,12.92
18:42:03.812500,9.26
18:42:03.828125,5.46
18:42:03.843750,1.90
18:42:03.859375,-1.21
18:42:03.875000,-3.91
18:42:03.890625,-6.44
18:42:03.906250,-9.13
18:42:03.921875,-12.20
18:42:03.937500,-15.73
18:42:03.953125,-19.58
18:42:03.968750,-23.47
18:42:03.984375,-27.08
18:42:04,-30.17
18:42:04.015625,-32.66
18:42:04.031250,-34.73
18:42:04.046875,-36.77
18:42:04.062500,-39.31
18:42:04.078125,-42.87
18:42:04.093750,-47.74
18:42:04.109375,-53.83
18:42:04.125000,-60.43
18:42:04.140625,-66.24
18:42:04.156250,-69.59
18:42:04.171875,-68.82
18:42:04.187500,-62.90
18:42:04.203125,-51.79
18:42:04.218750,-36.64
18:42:04.234375,-19.50
18:42:04.250000,-2.71
18:42:04.265625,11.82
18:42:04.281250,23.03
18:42:04.296875,30.85
18:42:04.312500,35.93
18:42:04.328125,39.17
18:42:04.343750,41.29
18:42:04.359375,42.63
18:42:04.375000,43.28
18:42:04.390625,43.16
18:42:04.406250,42.35
18:42:04.421875,41.12
18:42:04.437500,39.86
18:42:04.453125,38.95
18:42:04.468750,38.63
18:42:04.484375,38.87
18:42:04.500000,39.48
18:42:04.515625,40.21
18:42:04.531250,40.86
18:42:04.546875,41.35
18:42:04.562500,41.63
18:42:04.578125,41.63
18:42:04.593750,41.16
18:42:04.609375,39.99
18:42:04.625000,37.92
18:42:04.640625,34.89
18:42:04.656250,31.07
18:42:04.671875,26.80
18:42:04.687500,22.51
18:42:04.703125,18.53
18:42:04.718750,15.03
18:42:04.734375,11.98
18:42:04.750000,9.24
18:42:04.765625,6.64
18:42:04.781250,4.11
18:42:04.796875,1.72
18:42:04.812500,-0.42
18:42:04.828125,-2.20
18:42:04.843750,-3.67
18:42:04.859375,-5.03
18:42:04.875000,-6.54
18:42:04.890625,-8.40
18:42:04.906250,-10.59
18:42:04.921875,-12.93
18:42:04.937500,-15.14
18:42:04.953125,-17.07
18:42:04.968750,-18.76
18:42:04.984375,-20.50
18:42:05,-22.63
18:42:05.015625,-25.39
18:42:05.031250,-28.80
18:42:05.046875,-32.61
18:42:05.062500,-36.45
18:42:05.078125,-39.93
18:42:05.093750,-42.89
18:42:05.109375,-45.40
18:42:05.125000,-47.79
18:42:05.140625,-50.56
18:42:05.156250,-54.23
18:42:05.171875,-59.15
18:42:05.187500,-65.28
18:42:05.203125,-71.98
18:42:05.218750,-77.92
18:42:05.234375,-81.28
18:42:05.250000,-80.32
18:42:05.265625,-73.91
18:42:05.281250,-62.12
18:42:05.296875,-46.29
18:42:05.312500,-28.66
18:42:05.328125,-11.68
18:42:05.343750,2.77
18:42:05.359375,13.76
18:42:05.375000,21.37
18:42:05.390625,26.30
18:42:05.406250,29.37
18:42:05.421875,31.17
18:42:05.437500,31.98
18:42:05.453125,31.93
18:42:05.468750,31.18
18:42:05.484375,30.02
18:42:05.500000,28.90
18:42:05.515625,28.27
18:42:05.531250,28.48
18:42:05.546875,29.64
18:42:05.562500,31.57
18:42:05.578125,33.92
18:42:05.593750,36.25
18:42:05.609375,38.20
18:42:05.625000,39.59
18:42:05.640625,40.43
18:42:05.656250,40.82
18:42:05.671875,40.84
18:42:05.687500,40.41
18:42:05.703125,39.33
18:42:05.718750,37.40
18:42:05.734375,34.53
18:42:05.750000,30.91
18:42:05.765625,26.88
18:42:05.781250,22.86
18:42:05.796875,19.14
18:42:05.812500,15.81
18:42:05.828125,12.84
18:42:05.843750,10.14
18:42:05.859375,7.70
18:42:05.875000,5.53
18:42:05.890625,3.66
18:42:05.906250,2.05
18:42:05.921875,0.54
18:42:05.937500,-1.07
18:42:05.953125,-2.91
18:42:05.968750,-4.99
18:42:05.984375,-7.17
18:42:06,-9.28
18:42:06.015625,-11.22
18:42:06.031250,-13.03
18:42:06.046875,-14.92
18:42:06.062500,-17.15
18:42:06.078125,-19.94
18:42:06.093750,-23.34
18:42:06.109375,-27.18
18:42:06.125000,-31.13
18:42:06.140625,-34.81
18:42:06.156250,-38.01
18:42:06.171875,-40.73
18:42:06.187500,-43.21
18:42:06.203125,-45.86
18:42:06.218750,-49.17
18:42:06.234375,-53.50
18:42:06.250000,-58.97
18:42:06.265625,-65.26
18:42:06.281250,-71.45
18:42:06.296875,-76.13
18:42:06.312500,-77.58
18:42:06.328125,-74.36
18:42:06.343750,-65.80
18:42:06.359375,-52.42
18:42:06.375000,-35.86
18:42:06.390625,-18.44
18:42:06.406250,-2.48
18:42:06.421875,10.43
18:42:06.437500,19.67
18:42:06.453125,25.63
18:42:06.468750,29.21
18:42:06.484375,31.31
18:42:06.500000,32.51
18:42:06.515625,32.94
18:42:06.531250,32.56
18:42:06.546875,31.39
18:42:06.562500,29.76
18:42:06.578125,28.27
18:42:06.593750,27.54
18:42:06.609375,27.95
18:42:06.625000,29.43
18:42:06.640625,31.51
18:42:06.656250,33.57
18:42:06.671875,35.11
18:42:06.687500,35.98
18:42:06.703125,36.32
18:42:06.718750,36.42
18:42:06.734375,36.45
18:42:06.750000,36.34
18:42:06.765625,35.75
18:42:06.781250,34.31
18:42:06.796875,31.80
18:42:06.812500,28.35
18:42:06.828125,24.34
18:42:06.843750,20.35
18:42:06.859375,16.84
18:42:06.875000,14.03
18:42:06.890625,11.85
18:42:06.906250,10.03
18:42:06.921875,8.30
18:42:06.937500,6.47
18:42:06.953125,4.45
18:42:06.968750,2.27
18:42:06.984375,-0.01
18:42:07,-2.32
18:42:07.015625,-4.57
18:42:07.031250,-6.72
18:42:07.046875,-8.69
18:42:07.062500,-10.54
18:42:07.078125,-12.38
18:42:07.093750,-14.41
18:42:07.109375,-16.82
18:42:07.125000,-19.72
18:42:07.140625,-23.10
18:42:07.156250,-26.81
18:42:07.171875,-30.62
18:42:07.187500,-34.26
18:42:07.203125,-37.54
18:42:07.218750,-40.42
18:42:07.234375,-43.09
18:42:07.250000,-45.97
18:42:07.265625,-49.57
18:42:07.281250,-54.29
18:42:07.296875,-60.25
18:42:07.312500,-66.97
18:42:07.328125,-73.39
18:42:07.343750,-77.88
18:42:07.359375,-78.77
18:42:07.375000,-74.75
18:42:07.390625,-65.47
18:42:07.406250,-51.73
18:42:07.421875,-35.33
18:42:07.437500,-18.53
18:42:07.453125,-3.37
18:42:07.468750,8.91
18:42:07.484375,18.01
18:42:07.500000,24.39
18:42:07.515625,28.81
18:42:07.531250,31.87
18:42:07.546875,33.86
18:42:07.562500,34.81
18:42:07.578125,34.72
18:42:07.593750,33.77
18:42:07.609375,32.40
18:42:07.625000,31.20
18:42:07.640625,30.71
18:42:07.656250,31.25
18:42:07.671875,32.81
18:42:07.687500,35.10
18:42:07.703125,37.70
18:42:07.718750,40.18
18:42:07.734375,42.25
18:42:07.750000,43.74
18:42:07.765625,44.54
18:42:07.781250,44.55
18:42:07.796875,43.66
18:42:07.812500,41.77
18:42:07.828125,38.89
18:42:07.843750,35.23
18:42:07.859375,31.09
18:42:07.875000,26.87
18:42:07.890625,22.89
18:42:07.906250,19.33
18:42:07.921875,16.20
18:42:07.937500,13.42
18:42:07.953125,10.89
18:42:07.968750,8.55
18:42:07.984375,6.37
18:42:08,4.32
18:42:08.015625,2.30
18:42:08.031250,0.17
18:42:08.046875,-2.20
18:42:08.062500,-4.84
18:42:08.078125,-7.62
18:42:08.093750,-10.31
18:42:08.109375,-12.73
18:42:08.125000,-14.88
18:42:08.140625,-16.99
18:42:08.156250,-19.45
18:42:08.171875,-22.58
18:42:08.187500,-26.48
18:42:08.203125,-30.96
18:42:08.218750,-35.61
18:42:08.234375,-40.01
18:42:08.250000,-43.91
18:42:08.265625,-47.32
18:42:08.281250,-50.53
18:42:08.296875,-53.95
18:42:08.312500,-58.03
18:42:08.328125,-63.14
18:42:08.343750,-69.44
18:42:08.359375,-76.68
18:42:08.375000,-84.07
18:42:08.390625,-90.18
18:42:08.406250,-93.15
18:42:08.421875,-91.24
18:42:08.437500,-83.44
18:42:08.453125,-70.00
18:42:08.468750,-52.52
18:42:08.484375,-33.46
18:42:08.500000,-15.40
18:42:08.515625,-0.20
18:42:08.531250,11.42
18:42:08.546875,19.84
18:42:08.562500,26.10
18:42:08.578125,31.29
18:42:08.593750,36.11
18:42:08.609375,40.71
18:42:08.625000,44.85
18:42:08.640625,48.18
18:42:08.656250,50.53
18:42:08.671875,52.02
18:42:08.687500,53.09
18:42:08.703125,54.25
18:42:08.718750,55.88
18:42:08.734375,58.00
18:42:08.750000,60.34
18:42:08.765625,62.37
18:42:08.781250,63.63
18:42:08.796875,63.83
18:42:08.812500,62.98
18:42:08.828125,61.24
18:42:08.843750,58.75
18:42:08.859375,55.57
18:42:08.875000,51.64
18:42:08.890625,46.99
18:42:08.906250,41.83
18:42:08.921875,36.58
18:42:08.937500,31.76
18:42:08.953125,27.77
18:42:08.968750,24.75
18:42:08.984375,22.48
18:42:09,20.56
18:42:09.015625,18.58
18:42:09.031250,16.32
18:42:09.046875,13.85
18:42:09.062500,11.42
18:42:09.078125,9.32
18:42:09.093750,7.67
18:42:09.109375,6.34
18:42:09.125000,5.02
18:42:09.140625,3.33
18:42:09.156250,1.07
18:42:09.171875,-1.74
18:42:09.187500,-4.86
18:42:09.203125,-8.02
18:42:09.218750,-11.02
18:42:09.234375,-13.88
18:42:09.250000,-16.83
18:42:09.265625,-20.14
18:42:09.281250,-24.03
18:42:09.296875,-28.49
18:42:09.312500,-33.33
18:42:09.328125,-38.20
18:42:09.343750,-42.72
18:42:09.359375,-46.62
18:42:09.375000,-49.88
18:42:09.390625,-52.78
18:42:09.406250,-55.90
18:42:09.421875,-59.96
18:42:09.437500,-65.53
18:42:09.453125,-72.72
18:42:09.468750,-80.80
18:42:09.484375,-88.25
18:42:09.500000,-92.96
18:42:09.515625,-92.85
18:42:09.531250,-86.62
18:42:09.546875,-74.29
18:42:09.562500,-57.27
18:42:09.578125,-37.97
18:42:09.593750,-19.01
18:42:09.609375,-2.42
18:42:09.625000,10.83
18:42:09.640625,20.84
18:42:09.656250,28.38
18:42:09.671875,34.33
18:42:09.687500,39.30
18:42:09.703125,43.48
18:42:09.718750,46.79
18:42:09.734375,49.13
18:42:09.750000,50.53
18:42:09.765625,51.23
18:42:09.781250,51.54
18:42:09.796875,51.69
18:42:09.812500,51.78
18:42:09.828125,51.78
18:42:09.843750,51.65
18:42:09.859375,51.43
18:42:09.875000,51.32
18:42:09.890625,51.48
18:42:09.906250,51.98
18:42:09.921875,52.61
18:42:09.937500,52.91
18:42:09.953125,52.35
18:42:09.968750,50.54
18:42:09.984375,47.41
18:42:10,43.28
18:42:10.015625,38.68
18:42:10.031250,34.17
18:42:10.046875,30.18
18:42:10.062500,26.89
18:42:10.078125,24.27
18:42:10.093750,22.16
18:42:10.109375,20.28
18:42:10.125000,18.41
18:42:10.140625,16.36
18:42:10.156250,14.07
18:42:10.171875,11.63
18:42:10.187500,9.23
18:42:10.203125,7.09
18:42:10.218750,5.29
18:42:10.234375,3.75
18:42:10.250000,2.20
18:42:10.265625,0.34
18:42:10.281250,-2.03
18:42:10.296875,-4.86
18:42:10.312500,-7.90
18:42:10.328125,-10.84
18:42:10.343750,-13.47
18:42:10.359375,-15.86
18:42:10.375000,-18.29
18:42:10.390625,-21.13
18:42:10.406250,-24.63
18:42:10.421875,-28.74
18:42:10.437500,-33.11
18:42:10.453125,-37.25
18:42:10.468750,-40.76
18:42:10.484375,-43.54
18:42:10.500000,-45.88
18:42:10.515625,-48.39
18:42:10.531250,-51.74
18:42:10.546875,-56.45
18:42:10.562500,-62.60
18:42:10.578125,-69.66
18:42:10.593750,-76.48
18:42:10.609375,-81.42
18:42:10.625000,-82.72
18:42:10.640625,-78.99
18:42:10.656250,-69.74
18:42:10.671875,-55.59
18:42:10.687500,-38.27
18:42:10.703125,-20.05
18:42:10.718750,-3.13
18:42:10.734375,10.96
18:42:10.750000,21.69
18:42:10.765625,29.43
18:42:10.781250,35.00
18:42:10.796875,39.21
18:42:10.812500,42.58
18:42:10.828125,45.20
18:42:10.843750,46.95
18:42:10.859375,47.72
18:42:10.875000,47.56
18:42:10.890625,46.78
18:42:10.906250,45.75
18:42:10.921875,44.87
18:42:10.937500,44.34
18:42:10.953125,44.18
18:42:10.968750,44.31
18:42:10.984375,44.61
18:42:11,45.01
18:42:11.015625,45.43
18:42:11.031250,45.78
18:42:11.046875,45.77
18:42:11.062500,45.08
18:42:11.078125,43.35
18:42:11.093750,40.42
18:42:11.109375,36.41
18:42:11.125000,31.71
18:42:11.140625,26.88
18:42:11.156250,22.46
18:42:11.171875,18.81
18:42:11.187500,15.98
18:42:11.203125,13.80
18:42:11.218750,12.00
18:42:11.234375,10.31
18:42:11.250000,8.58
18:42:11.265625,6.74
18:42:11.281250,4.82
18:42:11.296875,2.82
18:42:11.312500,0.72
18:42:11.328125,-1.49
18:42:11.343750,-3.78
18:42:11.359375,-6.05
18:42:11.375000,-8.17
18:42:11.390625,-10.05
18:42:11.406250,-11.76
18:42:11.421875,-13.49
18:42:11.437500,-15.50
18:42:11.453125,-17.98
18:42:11.468750,-20.94
18:42:11.484375,-24.19
18:42:11.500000,-27.42
18:42:11.515625,-30.41
18:42:11.531250,-33.07
18:42:11.546875,-35.50
18:42:11.562500,-37.91
18:42:11.578125,-40.53
18:42:11.593750,-43.58
18:42:11.609375,-47.25
18:42:11.625000,-51.72
18:42:11.640625,-56.97
18:42:11.656250,-62.62
18:42:11.671875,-67.68
18:42:11.687500,-70.63
18:42:11.703125,-69.79
18:42:11.718750,-63.91
18:42:11.734375,-52.80
18:42:11.750000,-37.56
18:42:11.765625,-20.34
18:42:11.781250,-3.61
18:42:11.796875,10.64
18:42:11.812500,21.41
18:42:11.828125,28.77
18:42:11.843750,33.48
18:42:11.859375,36.37
18:42:11.875000,37.96
18:42:11.890625,38.37
18:42:11.906250,37.57
18:42:11.921875,35.67
18:42:11.937500,33.14
18:42:11.953125,30.75
18:42:11.968750,29.25
18:42:11.984375,29.13
18:42:12,30.37
18:42:12.015625,32.49
18:42:12.031250,34.79
18:42:12.046875,36.65
18:42:12.062500,37.77
18:42:12.078125,38.20
18:42:12.093750,38.21
18:42:12.109375,38.05
18:42:12.125000,37.72
18:42:12.140625,37.01
18:42:12.156250,35.53
18:42:12.171875,33.00
18:42:12.187500,29.36
18:42:12.203125,24.94
18:42:12.218750,20.29
18:42:12.234375,15.99
18:42:12.250000,12.43
18:42:12.265625,9.68
18:42:12.281250,7.50
18:42:12.296875,5.50
18:42:12.312500,3.32
18:42:12.328125,0.81
18:42:12.343750,-1.94
18:42:12.359375,-4.66
18:42:12.375000,-7.07
18:42:12.390625,-8.99
18:42:12.406250,-10.47
18:42:12.421875,-11.73
18:42:12.437500,-13.12
18:42:12.453125,-14.98
18:42:12.468750,-17.56
18:42:12.484375,-20.88
18:42:12.500000,-24.81
18:42:12.515625,-29.03
18:42:12.531250,-33.13
18:42:12.546875,-36.77
18:42:12.562500,-39.72
18:42:12.578125,-42.04
18:42:12.593750,-44.04
18:42:12.609375,-46.27
18:42:12.625000,-49.39
18:42:12.640625,-53.96
18:42:12.656250,-60.14
18:42:12.671875,-67.44
18:42:12.687500,-74.59
18:42:12.703125,-79.74
18:42:12.718750,-80.85
18:42:12.734375,-76.43
18:42:12.750000,-66.10
18:42:12.765625,-50.86
18:42:12.781250,-32.85
18:42:12.796875,-14.65
18:42:12.812500,1.50
18:42:12.828125,14.35
18:42:12.843750,23.77
18:42:12.859375,30.46
18:42:12.875000,35.41
18:42:12.890625,39.43
18:42:12.906250,42.88
18:42:12.921875,45.70
18:42:12.937500,47.68
18:42:12.953125,48.68
18:42:12.968750,48.79
18:42:12.984375,48.32
18:42:13,47.73
18:42:13.015625,47.38
18:42:13.031250,47.47
18:42:13.046875,47.94
18:42:13.062500,48.53
18:42:13.078125,48.95
18:42:13.093750,49.05
18:42:13.109375,48.84
18:42:13.125000,48.45
18:42:13.140625,47.99
18:42:13.156250,47.41
18:42:13.171875,46.43
18:42:13.187500,44.70
18:42:13.203125,41.97
18:42:13.218750,38.23
18:42:13.234375,33.85
18:42:13.250000,29.37
18:42:13.265625,25.37
18:42:13.281250,22.19
18:42:13.296875,19.86
18:42:13.312500,18.07
18:42:13.328125,16.37
18:42:13.343750,14.34
18:42:13.359375,11.80
18:42:13.375000,8.85
18:42:13.390625,5.84
18:42:13.406250,3.22
18:42:13.421875,1.27
18:42:13.437500,0.02
18:42:13.453125,-0.82
18:42:13.468750,-1.74
18:42:13.484375,-3.19
18:42:13.500000,-5.41
18:42:13.515625,-8.32
18:42:13.531250,-11.55
18:42:13.546875,-14.69
18:42:13.562500,-17.43
18:42:13.578125,-19.77
18:42:13.593750,-21.99
18:42:13.609375,-24.51
18:42:13.625000,-27.73
18:42:13.640625,-31.76
18:42:13.656250,-36.42
18:42:13.671875,-41.26
18:42:13.687500,-45.73
18:42:13.703125,-49.44
18:42:13.718750,-52.28
18:42:13.734375,-54.46
18:42:13.750000,-56.47
18:42:13.765625,-58.89
18:42:13.781250,-62.29
18:42:13.796875,-67.06
18:42:13.812500,-73.26
18:42:13.828125,-80.44
18:42:13.843750,-87.49
18:42:13.859375,-92.70
18:42:13.875000,-94.08
18:42:13.890625,-89.97
18:42:13.906250,-79.67
18:42:13.921875,-63.91
18:42:13.937500,-44.70
18:42:13.953125,-24.81
18:42:13.968750,-6.84
18:42:13.984375,7.53
18:42:14,17.89
18:42:14.015625,24.95
18:42:14.031250,29.91
18:42:14.046875,33.91
18:42:14.062500,37.54
18:42:14.078125,40.84
18:42:14.093750,43.46
18:42:14.109375,45.09
18:42:14.125000,45.64
18:42:14.140625,45.34
18:42:14.156250,44.68
18:42:14.171875,44.10
18:42:14.187500,43.88
18:42:14.203125,43.96
18:42:14.218750,44.08
18:42:14.234375,43.94
18:42:14.250000,43.40
18:42:14.265625,42.56
18:42:14.281250,41.70
18:42:14.296875,41.12
18:42:14.312500,40.86
18:42:14.328125,40.71
18:42:14.343750,40.19
18:42:14.359375,38.87
18:42:14.375000,36.54
18:42:14.390625,33.35
18:42:14.406250,29.82
18:42:14.421875,26.51
18:42:14.437500,23.88
18:42:14.453125,22.01
18:42:14.468750,20.67
18:42:14.484375,19.47
18:42:14.500000,17.98
18:42:14.515625,15.98
18:42:14.531250,13.54
18:42:14.546875,10.89
18:42:14.562500,8.40
18:42:14.578125,6.34
18:42:14.593750,4.81
18:42:14.609375,3.68
18:42:14.625000,2.68
18:42:14.640625,1.46
18:42:14.656250,-0.21
18:42:14.671875,-2.45
18:42:14.687500,-5.13
18:42:14.703125,-8.06
18:42:14.718750,-10.98
18:42:14.734375,-13.65
18:42:14.750000,-15.99
18:42:14.765625,-18.06
18:42:14.781250,-20.07
18:42:14.796875,-22.28
18:42:14.812500,-24.90
18:42:14.828125,-27.99
18:42:14.843750,-31.41
18:42:14.859375,-34.88
18:42:14.875000,-38.06
18:42:14.890625,-40.78
18:42:14.906250,-43.05
18:42:14.921875,-45.12
18:42:14.937500,-47.45
18:42:14.953125,-50.57
18:42:14.968750,-54.95
18:42:14.984375,-60.82
18:42:15,-67.83
18:42:15.015625,-74.96
18:42:15.031250,-80.48
18:42:15.046875,-82.29
18:42:15.062500,-78.61
18:42:15.078125,-68.67
18:42:15.093750,-53.10
18:42:15.109375,-33.88
18:42:15.125000,-13.72
18:42:15.140625,4.79
18:42:15.156250,19.92
18:42:15.171875,31.15
18:42:15.187500,38.99
18:42:15.203125,44.44
18:42:15.218750,48.51
18:42:15.234375,51.84
18:42:15.250000,54.64
18:42:15.265625,56.84
18:42:15.281250,58.33
18:42:15.296875,59.20
18:42:15.312500,59.69
18:42:15.328125,60.16
18:42:15.343750,60.94
18:42:15.359375,62.12
18:42:15.375000,63.55
18:42:15.390625,64.77
18:42:15.406250,65.21
18:42:15.421875,64.33
18:42:15.437500,61.78
18:42:15.453125,57.48
18:42:15.468750,51.56
18:42:15.484375,44.29
18:42:15.500000,36.00
18:42:15.515625,26.99
18:42:15.531250,17.54
18:42:15.546875,7.90
18:42:15.562500,-1.73
18:42:15.578125,-11.17
18:42:15.593750,-20.23
18:42:15.609375,-28.70
18:42:15.625000,-36.34
18:42:15.640625,-42.96
18:42:15.656250,-48.50
18:42:15.671875,-53.05
18:42:15.687500,-56.84
18:42:15.703125,-60.12
18:42:15.718750,-63.04
18:42:15.734375,-65.54
18:42:15.750000,-67.40
18:42:15.765625,-68.37
18:42:15.781250,-68.28
18:42:15.796875,-67.07
18:42:15.812500,-64.76
18:42:15.828125,-61.31
18:42:15.843750,-56.69
18:42:15.859375,-50.87
18:42:15.875000,-44.06
18:42:15.890625,-36.62
18:42:15.906250,-29.08
18:42:15.921875,-21.94
18:42:15.937500,-15.53
18:42:15.953125,-10.00
18:42:15.968750,-5.38
18:42:15.984375,-1.75
18:42:16,0.71
18:42:16.015625,1.68
18:42:16.031250,0.88
18:42:16.046875,-1.82
18:42:16.062500,-6.15
18:42:16.078125,-11.36
18:42:16.093750,-16.17
18:42:16.109375,-18.96
18:42:16.125000,-18.19
18:42:16.140625,-12.87
18:42:16.156250,-3.09
18:42:16.171875,9.94
18:42:16.187500,24.15
18:42:16.203125,37.18
18:42:16.218750,47.10
18:42:16.234375,52.86
18:42:16.250000,54.33
18:42:16.265625,52.06
18:42:16.281250,46.97
18:42:16.296875,40.10
18:42:16.312500,32.57
18:42:16.328125,25.50
18:42:16.343750,19.99
18:42:16.359375,16.85
18:42:16.375000,16.40
18:42:16.390625,18.38
18:42:16.406250,22.09
18:42:16.421875,26.57
18:42:16.437500,30.96
18:42:16.453125,34.53
18:42:16.468750,36.81
18:42:16.484375,37.48
18:42:16.500000,36.39
18:42:16.515625,33.57
18:42:16.531250,29.33
18:42:16.546875,24.19
18:42:16.562500,18.78
18:42:16.578125,13.66
18:42:16.593750,9.25
18:42:16.609375,5.79
18:42:16.625000,3.40
18:42:16.640625,2.14
18:42:16.656250,1.91
18:42:16.671875,2.56
18:42:16.687500,3.73
18:42:16.703125,4.94
18:42:16.718750,5.67
18:42:16.734375,5.57
18:42:16.750000,4.49
18:42:16.765625,2.63
18:42:16.781250,0.48
18:42:16.796875,-1.27
18:42:16.812500,-1.89
18:42:16.828125,-0.83
18:42:16.843750,2.10
18:42:16.859375,6.58
18:42:16.875000,11.80
18:42:16.890625,16.65
18:42:16.906250,20.06
18:42:16.921875,21.35
18:42:16.937500,20.40
18:42:16.953125,17.62
18:42:16.968750,13.67
18:42:16.984375,9.09
18:42:17,4.07
18:42:17.015625,-1.56
18:42:17.031250,-8.26
18:42:17.046875,-16.44
18:42:17.062500,-26.24
18:42:17.078125,-37.28
18:42:17.093750,-48.53
18:42:17.109375,-58.40
18:42:17.125000,-64.97
18:42:17.140625,-66.49
18:42:17.156250,-61.99
18:42:17.171875,-51.68
18:42:17.187500,-37.06
18:42:17.203125,-20.49
18:42:17.218750,-4.52
18:42:17.234375,8.92
18:42:17.250000,18.91
18:42:17.265625,25.56
18:42:17.281250,29.60
18:42:17.296875,31.87
18:42:17.312500,32.93
18:42:17.328125,32.95
18:42:17.343750,31.87
18:42:17.359375,29.70
18:42:17.375000,26.68
18:42:17.390625,23.31
18:42:17.406250,20.18
18:42:17.421875,17.73
18:42:17.437500,16.11
18:42:17.453125,15.13
18:42:17.468750,14.49
18:42:17.484375,13.97
18:42:17.500000,13.63
18:42:17.515625,13.66
18:42:17.531250,14.15
18:42:17.546875,14.88
18:42:17.562500,15.18
18:42:17.578125,14.14
18:42:17.593750,10.88
18:42:17.609375,4.92
18:42:17.625000,-3.63
18:42:17.640625,-14.09
18:42:17.656250,-25.40
18:42:17.671875,-36.41
18:42:17.687500,-46.17
18:42:17.703125,-54.09
18:42:17.718750,-59.98
18:42:17.734375,-63.88
18:42:17.750000,-65.98
18:42:17.765625,-66.41
18:42:17.781250,-65.22
18:42:17.796875,-62.43
18:42:17.812500,-58.07
18:42:17.828125,-52.33
18:42:17.843750,-45.52
18:42:17.859375,-38.04
18:42:17.875000,-30.29
18:42:17.890625,-22.64
18:42:17.906250,-15.46
18:42:17.921875,-9.12
18:42:17.937500,-3.93
18:42:17.953125,-0.15
18:42:17.968750,2.15
18:42:17.984375,3.11
18:42:18,3.04
18:42:18.015625,2.24
18:42:18.031250,0.92
18:42:18.046875,-0.90
18:42:18.062500,-3.43
18:42:18.078125,-6.96
18:42:18.093750,-11.81
18:42:18.109375,-18.18
18:42:18.125000,-26.07
18:42:18.140625,-35.19
18:42:18.156250,-44.82
18:42:18.171875,-53.71
18:42:18.187500,-60.25
18:42:18.203125,-62.78
18:42:18.218750,-60.16
18:42:18.234375,-52.24
18:42:18.250000,-40.09
18:42:18.265625,-25.75
18:42:18.281250,-11.58
18:42:18.296875,0.45
18:42:18.312500,9.35
18:42:18.328125,15.15
18:42:18.343750,18.68
18:42:18.359375,20.94
18:42:18.375000,22.72
18:42:18.390625,24.30
18:42:18.406250,25.59
18:42:18.421875,26.41
18:42:18.437500,26.72
18:42:18.453125,26.75
18:42:18.468750,26.98
18:42:18.484375,27.85
18:42:18.500000,29.61
18:42:18.515625,32.22
18:42:18.531250,35.36
18:42:18.546875,38.58
18:42:18.562500,41.55
18:42:18.578125,44.07
18:42:18.593750,46.12
18:42:18.609375,47.66
18:42:18.625000,48.58
18:42:18.640625,48.67
18:42:18.656250,47.68
18:42:18.671875,45.52
18:42:18.687500,42.26
18:42:18.703125,38.21
18:42:18.718750,33.78
18:42:18.734375,29.39
18:42:18.750000,25.33
18:42:18.765625,21.65
18:42:18.781250,18.21
18:42:18.796875,14.72
18:42:18.812500,10.94
18:42:18.828125,6.79
18:42:18.843750,2.47
18:42:18.859375,-1.53
18:42:18.875000,-4.63
18:42:18.890625,-6.39
18:42:18.906250,-6.82
18:42:18.921875,-6.40
18:42:18.937500,-5.96
18:42:18.953125,-6.41
18:42:18.968750,-8.35
18:42:18.984375,-11.84
18:42:19,-16.36
18:42:19.015625,-21.10
18:42:19.031250,-25.27
18:42:19.046875,-28.47
18:42:19.062500,-30.81
18:42:19.078125,-32.90
18:42:19.093750,-35.56
18:42:19.109375,-39.56
18:42:19.125000,-45.29
18:42:19.140625,-52.55
18:42:19.156250,-60.49
18:42:19.171875,-67.58
18:42:19.187500,-71.96
18:42:19.203125,-71.83
18:42:19.218750,-66.06
18:42:19.234375,-54.60
18:42:19.250000,-38.68
18:42:19.265625,-20.50
18:42:19.281250,-2.59
18:42:19.296875,12.94
18:42:19.312500,24.95
18:42:19.328125,33.35
18:42:19.343750,38.83
18:42:19.359375,42.31
18:42:19.375000,44.53
18:42:19.390625,45.85
18:42:19.406250,46.32
18:42:19.421875,45.93
18:42:19.437500,44.83
18:42:19.453125,43.36
18:42:19.468750,42.02
18:42:19.484375,41.29
18:42:19.500000,41.43
18:42:19.515625,42.38
18:42:19.531250,43.81
18:42:19.546875,45.30
18:42:19.562500,46.49
18:42:19.578125,47.27
18:42:19.593750,47.73
18:42:19.609375,48.12
18:42:19.625000,48.59
18:42:19.640625,49.04
18:42:19.656250,49.16
18:42:19.671875,48.50
18:42:19.687500,46.71
18:42:19.703125,43.74
18:42:19.718750,39.84
18:42:19.734375,35.52
18:42:19.750000,31.31
18:42:19.765625,27.65
18:42:19.781250,24.76
18:42:19.796875,22.58
18:42:19.812500,20.88
18:42:19.828125,19.28
18:42:19.843750,17.47
18:42:19.859375,15.24
18:42:19.875000,12.62
18:42:19.890625,9.83
18:42:19.906250,7.16
18:42:19.921875,4.80
18:42:19.937500,2.70
18:42:19.953125,0.54
18:42:19.968750,-2.24
18:42:19.984375,-6.19
18:42:20,-11.59
18:42:20.015625,-18.35
18:42:20.031250,-25.94
18:42:20.046875,-33.63
18:42:20.062500,-40.72
18:42:20.078125,-46.87
18:42:20.093750,-52.19
18:42:20.109375,-57.27
18:42:20.125000,-62.96
18:42:20.140625,-70.07
18:42:20.156250,-79.05
18:42:20.171875,-89.68
18:42:20.187500,-100.88
18:42:20.203125,-110.79
18:42:20.218750,-117.13
18:42:20.234375,-117.79
18:42:20.250000,-111.58
18:42:20.265625,-98.71
18:42:20.281250,-80.85
18:42:20.296875,-60.70
18:42:20.312500,-41.15
18:42:20.328125,-24.48
18:42:20.343750,-11.76
18:42:20.359375,-2.79
18:42:20.375000,3.44
18:42:20.390625,8.23
18:42:20.406250,12.60
18:42:20.421875,17.04
18:42:20.437500,21.48
18:42:20.453125,25.58
18:42:20.468750,28.99
18:42:20.484375,31.58
18:42:20.500000,33.52
18:42:20.515625,35.14
18:42:20.531250,36.79
18:42:20.546875,38.63
18:42:20.562500,40.67
18:42:20.578125,42.75
18:42:20.593750,44.73
18:42:20.609375,46.53
18:42:20.625000,48.13
18:42:20.640625,49.51
18:42:20.656250,50.50
18:42:20.671875,50.83
18:42:20.687500,50.20
18:42:20.703125,48.41
18:42:20.718750,45.44
18:42:20.734375,41.55
18:42:20.750000,37.23
18:42:20.765625,33.02
18:42:20.781250,29.40
18:42:20.796875,26.61
18:42:20.812500,24.63
18:42:20.828125,23.12
18:42:20.843750,21.61
18:42:20.859375,19.70
18:42:20.875000,17.23
18:42:20.890625,14.34
18:42:20.906250,11.44
18:42:20.921875,8.97
18:42:20.937500,7.21
18:42:20.953125,6.11
18:42:20.968750,5.29
18:42:20.984375,4.19
18:42:21,2.36
18:42:21.015625,-0.41
18:42:21.031250,-3.92
18:42:21.046875,-7.71
18:42:21.062500,-11.25
18:42:21.078125,-14.20
18:42:21.093750,-16.59
18:42:21.109375,-18.80
18:42:21.125000,-21.34
18:42:21.140625,-24.62
18:42:21.156250,-28.69
18:42:21.171875,-33.30
18:42:21.187500,-37.92
18:42:21.203125,-42.07
18:42:21.218750,-45.49
18:42:21.234375,-48.26
18:42:21.250000,-50.77
18:42:21.265625,-53.56
18:42:21.281250,-57.17
18:42:21.296875,-62.07
18:42:21.312500,-68.48
18:42:21.328125,-76.22
18:42:21.343750,-84.50
18:42:21.359375,-91.80
18:42:21.375000,-96.04
18:42:21.390625,-95.14
18:42:21.406250,-87.73
18:42:21.421875,-73.80
18:42:21.437500,-54.90
18:42:21.453125,-33.76
18:42:21.468750,-13.43
18:42:21.484375,3.73
18:42:21.500000,16.62
18:42:21.515625,25.54
18:42:21.531250,31.66
18:42:21.546875,36.35
18:42:21.562500,40.57
18:42:21.578125,44.61
18:42:21.593750,48.23
18:42:21.609375,51.03
18:42:21.625000,52.80
18:42:21.640625,53.62
18:42:21.656250,53.86
18:42:21.671875,53.99
18:42:21.687500,54.34
18:42:21.703125,54.96
18:42:21.718750,55.70
18:42:21.734375,56.27
18:42:21.750000,56.47
18:42:21.765625,56.25
18:42:21.781250,55.73
18:42:21.796875,55.00
18:42:21.812500,54.07
18:42:21.828125,52.70
18:42:21.843750,50.51
18:42:21.859375,47.10
18:42:21.875000,42.34
18:42:21.890625,36.47
18:42:21.906250,30.10
18:42:21.921875,24.05
18:42:21.937500,19.02
18:42:21.953125,15.25
18:42:21.968750,12.53
18:42:21.984375,10.25
18:42:22,7.73
18:42:22.015625,4.49
18:42:22.031250,0.41
18:42:22.046875,-4.22
18:42:22.062500,-8.91
18:42:22.078125,-13.14
18:42:22.093750,-16.50
18:42:22.109375,-18.81
18:42:22.125000,-20.08
18:42:22.140625,-20.48
18:42:22.156250,-20.29
18:42:22.171875,-19.82
18:42:22.187500,-19.36
18:42:22.203125,-19.09
18:42:22.218750,-19.03
18:42:22.234375,-19.04
18:42:22.250000,-18.92
18:42:22.265625,-18.54
18:42:22.281250,-18.02
18:42:22.296875,-17.75
18:42:22.312500,-18.40
18:42:22.328125,-20.76
18:42:22.343750,-25.45
18:42:22.359375,-32.59
18:42:22.375000,-41.50
18:42:22.390625,-50.66
18:42:22.406250,-58.00
18:42:22.421875,-61.47
18:42:22.437500,-59.64
18:42:22.453125,-52.27
18:42:22.468750,-40.33
18:42:22.484375,-25.60
18:42:22.500000,-10.15
18:42:22.515625,4.36
18:42:22.531250,16.88
18:42:22.546875,27.00
18:42:22.562500,34.73
18:42:22.578125,40.29
18:42:22.593750,43.90
18:42:22.609375,45.83
18:42:22.625000,46.35
18:42:22.640625,45.75
18:42:22.656250,44.28
18:42:22.671875,42.14
18:42:22.687500,39.54
18:42:22.703125,36.71
18:42:22.718750,33.98
18:42:22.734375,31.73
18:42:22.750000,30.27
18:42:22.765625,29.81
18:42:22.781250,30.39
18:42:22.796875,31.88
18:42:22.812500,34.02
18:42:22.828125,36.44
18:42:22.843750,38.70
18:42:22.859375,40.35
18:42:22.875000,40.97
18:42:22.890625,40.27
18:42:22.906250,38.21
18:42:22.921875,35.01
18:42:22.937500,31.09
18:42:22.953125,26.93
18:42:22.968750,22.95
18:42:22.984375,19.39
18:42:23,16.29
18:42:23.015625,13.57
18:42:23.031250,11.06
18:42:23.046875,8.58
18:42:23.062500,5.97
18:42:23.078125,3.12
18:42:23.093750,-0.05
18:42:23.109375,-3.54
18:42:23.125000,-7.25
18:42:23.140625,-10.96
18:42:23.156250,-14.40
18:42:23.171875,-17.37
18:42:23.187500,-19.86
18:42:23.203125,-22.16
18:42:23.218750,-24.74
18:42:23.234375,-28.16
18:42:23.250000,-32.75
18:42:23.265625,-38.49
18:42:23.281250,-44.93
18:42:23.296875,-51.38
18:42:23.312500,-57.15
18:42:23.328125,-61.84
18:42:23.343750,-65.51
18:42:23.359375,-68.63
18:42:23.375000,-71.91
18:42:23.390625,-76.05
18:42:23.406250,-81.50
18:42:23.421875,-88.27
18:42:23.437500,-95.74
18:42:23.453125,-102.59
18:42:23.468750,-106.92
18:42:23.484375,-106.66
18:42:23.500000,-100.23
18:42:23.515625,-87.09
18:42:23.531250,-68.16
18:42:23.546875,-45.65
18:42:23.562500,-22.40
18:42:23.578125,-1.07
18:42:23.593750,16.57
18:42:23.609375,29.92
18:42:23.625000,39.33
18:42:23.640625,45.65
18:42:23.656250,49.70
18:42:23.671875,52.03
18:42:23.687500,52.93
18:42:23.703125,52.64
18:42:23.718750,51.47
18:42:23.734375,49.87
18:42:23.750000,48.35
18:42:23.765625,47.33
18:42:23.781250,47.07
18:42:23.796875,47.63
18:42:23.812500,48.86
18:42:23.828125,50.55
18:42:23.843750,52.44
18:42:23.859375,54.25
18:42:23.875000,55.71
18:42:23.890625,56.58
18:42:23.906250,56.61
18:42:23.921875,55.62
18:42:23.937500,53.49
18:42:23.953125,50.22
18:42:23.968750,45.94
18:42:23.984375,40.97
18:42:24,35.70
18:42:24.015625,30.57
18:42:24.031250,25.92
18:42:24.046875,21.92
18:42:24.062500,18.57
18:42:24.078125,15.75
18:42:24.093750,13.28
18:42:24.109375,10.99
18:42:24.125000,8.77
18:42:24.140625,6.50
18:42:24.156250,4.14
18:42:24.171875,1.64
18:42:24.187500,-1.02
18:42:24.203125,-3.77
18:42:24.218750,-6.55
18:42:24.234375,-9.22
18:42:24.250000,-11.71
18:42:24.265625,-14.06
18:42:24.281250,-16.43
18:42:24.296875,-19.10
18:42:24.312500,-22.37
18:42:24.328125,-26.42
18:42:24.343750,-31.19
18:42:24.359375,-36.36
18:42:24.375000,-41.48
18:42:24.390625,-46.12
18:42:24.406250,-50.09
18:42:24.421875,-53.53
18:42:24.437500,-56.90
18:42:24.453125,-60.83
18:42:24.468750,-65.93
18:42:24.484375,-72.51
18:42:24.500000,-80.33
18:42:24.515625,-88.37
18:42:24.531250,-94.88
18:42:24.546875,-97.68
18:42:24.562500,-94.80
18:42:24.578125,-85.20
18:42:24.593750,-69.30
18:42:24.609375,-48.94
18:42:24.625000,-26.90
18:42:24.640625,-5.99
18:42:24.656250,11.72
18:42:24.671875,25.32
18:42:24.687500,35.01
18:42:24.703125,41.59
18:42:24.718750,45.89
18:42:24.734375,48.49
18:42:24.750000,49.62
18:42:24.765625,49.37
18:42:24.781250,47.94
18:42:24.796875,45.82
18:42:24.812500,43.72
18:42:24.828125,42.38
18:42:24.843750,42.32
18:42:24.859375,43.64
18:42:24.875000,45.99
18:42:24.890625,48.74
18:42:24.906250,51.27
18:42:24.921875,53.19
18:42:24.937500,54.46
18:42:24.953125,55.22
18:42:24.968750,55.60
18:42:24.984375,55.51
18:42:25,54.66
18:42:25.015625,52.69
18:42:25.031250,49.39
18:42:25.046875,44.95
18:42:25.062500,39.87
18:42:25.078125,34.81
18:42:25.093750,30.32
18:42:25.109375,26.59
18:42:25.125000,23.43
18:42:25.140625,20.45
18:42:25.156250,17.30
18:42:25.171875,13.87
18:42:25.187500,10.35
18:42:25.203125,7.11
18:42:25.218750,4.49
18:42:25.234375,2.58
18:42:25.250000,1.20
18:42:25.265625,-0.10
18:42:25.281250,-1.75
18:42:25.296875,-4.04
18:42:25.312500,-6.94
18:42:25.328125,-10.17
18:42:25.343750,-13.35
18:42:25.359375,-16.19
18:42:25.375000,-18.71
18:42:25.390625,-21.22
18:42:25.406250,-24.26
18:42:25.421875,-28.30
18:42:25.437500,-33.51
18:42:25.453125,-39.64
18:42:25.468750,-46.06
18:42:25.484375,-52.04
18:42:25.500000,-57.04
18:42:25.515625,-60.94
18:42:25.531250,-64.05
18:42:25.546875,-67.06
18:42:25.562500,-70.80
18:42:25.578125,-75.99
18:42:25.593750,-83.06
18:42:25.609375,-91.82
18:42:25.625000,-101.29
18:42:25.640625,-109.59
18:42:25.656250,-114.29
18:42:25.671875,-112.96
18:42:25.687500,-104.09
18:42:25.703125,-87.74
18:42:25.718750,-65.74
18:42:25.734375,-41.22
18:42:25.750000,-17.66
18:42:25.765625,2.20
18:42:25.781250,17.03
18:42:25.796875,27.01
18:42:25.812500,33.33
18:42:25.828125,37.47
18:42:25.843750,40.55
18:42:25.859375,43.08
18:42:25.875000,45.06
18:42:25.890625,46.29
18:42:25.906250,46.73
18:42:25.921875,46.62
18:42:25.937500,46.46
18:42:25.953125,46.77
18:42:25.968750,47.84
18:42:25.984375,49.63
18:42:26,51.79
18:42:26.015625,53.92
18:42:26.031250,55.70
18:42:26.046875,57.02
18:42:26.062500,57.95
18:42:26.078125,58.59
18:42:26.093750,58.88
18:42:26.109375,58.51
18:42:26.125000,57.08
18:42:26.140625,54.26
18:42:26.156250,49.98
18:42:26.171875,44.60
18:42:26.187500,38.76
18:42:26.203125,33.19
18:42:26.218750,28.45
18:42:26.234375,24.71
18:42:26.250000,21.75
18:42:26.265625,19.03
18:42:26.281250,16.00
18:42:26.296875,12.30
18:42:26.312500,7.91
18:42:26.328125,3.20
18:42:26.343750,-1.30
18:42:26.359375,-5.10
18:42:26.375000,-8.02
18:42:26.390625,-10.28
18:42:26.406250,-12.46
18:42:26.421875,-15.23
18:42:26.437500,-19.04
18:42:26.453125,-23.89
18:42:26.468750,-29.32
18:42:26.484375,-34.64
18:42:26.500000,-39.23
18:42:26.515625,-42.86
18:42:26.531250,-45.81
18:42:26.546875,-48.70
18:42:26.562500,-52.26
18:42:26.578125,-57.11
18:42:26.593750,-63.57
18:42:26.609375,-71.54
18:42:26.625000,-80.40
18:42:26.640625,-88.88
18:42:26.656250,-95.14
18:42:26.671875,-97.06
18:42:26.687500,-92.83
18:42:26.703125,-81.67
18:42:26.718750,-64.23
18:42:26.734375,-42.66
18:42:26.750000,-19.93
18:42:26.765625,1.01
18:42:26.781250,18.11
18:42:26.796875,30.65
18:42:26.812500,39.07
18:42:26.828125,44.45
18:42:26.843750,47.89
18:42:26.859375,50.04
18:42:26.875000,51.13
18:42:26.890625,51.16
18:42:26.906250,50.20
18:42:26.921875,48.57
18:42:26.937500,46.84
18:42:26.953125,45.60
18:42:26.968750,45.28
18:42:26.984375,45.99
18:42:27,47.48
18:42:27.015625,49.40
18:42:27.031250,51.33
18:42:27.046875,53.03
18:42:27.062500,54.34
18:42:27.078125,55.19
18:42:27.093750,55.47
18:42:27.109375,54.97
18:42:27.125000,53.47
18:42:27.140625,50.80
18:42:27.156250,46.97
18:42:27.171875,42.22
18:42:27.187500,36.99
18:42:27.203125,31.74
18:42:27.218750,26.85
18:42:27.234375,22.50
18:42:27.250000,18.61
18:42:27.265625,15.03
18:42:27.281250,11.58
18:42:27.296875,8.26
18:42:27.312500,5.17
18:42:27.328125,2.50
18:42:27.343750,0.31
18:42:27.359375,-1.50
18:42:27.375000,-3.21
18:42:27.390625,-5.15
18:42:27.406250,-7.55
18:42:27.421875,-10.39
18:42:27.437500,-13.47
18:42:27.453125,-16.54
18:42:27.468750,-19.48
18:42:27.484375,-22.42
18:42:27.500000,-25.69
18:42:27.515625,-29.59
18:42:27.531250,-34.23
18:42:27.546875,-39.37
18:42:27.562500,-44.51
18:42:27.578125,-49.11
18:42:27.593750,-52.87
18:42:27.609375,-55.92
18:42:27.625000,-58.79
18:42:27.640625,-62.28
18:42:27.656250,-67.18
18:42:27.671875,-73.91
18:42:27.687500,-82.27
18:42:27.703125,-91.26
18:42:27.718750,-99.09
18:42:27.734375,-103.47
18:42:27.750000,-102.20
18:42:27.765625,-93.87
18:42:27.781250,-78.44
18:42:27.796875,-57.43
18:42:27.812500,-33.54
18:42:27.828125,-9.90
18:42:27.843750,10.83
18:42:27.859375,27.10
18:42:27.875000,38.60
18:42:27.890625,45.95
18:42:27.906250,50.19
18:42:27.921875,52.28
18:42:27.937500,52.90
18:42:27.953125,52.43
18:42:27.968750,51.14
18:42:27.984375,49.34
18:42:28,47.43
18:42:28.015625,45.85
18:42:28.031250,44.97
18:42:28.046875,44.96
18:42:28.062500,45.72
18:42:28.078125,47.03
18:42:28.093750,48.58
18:42:28.109375,50.12
18:42:28.125000,51.50
18:42:28.140625,52.60
18:42:28.156250,53.28
18:42:28.171875,53.33
18:42:28.187500,52.48
18:42:28.203125,50.51
18:42:28.218750,47.37
18:42:28.234375,43.21
18:42:28.250000,38.38
18:42:28.265625,33.30
18:42:28.281250,28.36
18:42:28.296875,23.80
18:42:28.312500,19.67
18:42:28.328125,15.88
18:42:28.343750,12.31
18:42:28.359375,8.91
18:42:28.375000,5.69
18:42:28.390625,2.76
18:42:28.406250,0.18
18:42:28.421875,-2.11
18:42:28.437500,-4.24
18:42:28.453125,-6.43
18:42:28.468750,-8.81
18:42:28.484375,-11.39
18:42:28.500000,-14.04
18:42:28.515625,-16.62
18:42:28.531250,-19.08
18:42:28.546875,-21.53
18:42:28.562500,-24.20
18:42:28.578125,-27.32
18:42:28.593750,-30.98
18:42:28.609375,-35.08
18:42:28.625000,-39.34
18:42:28.640625,-43.45
18:42:28.656250,-47.13
18:42:28.671875,-50.29
18:42:28.687500,-53.06
18:42:28.703125,-55.77
18:42:28.718750,-58.88
18:42:28.734375,-62.97
18:42:28.750000,-68.54
18:42:28.765625,-75.77
18:42:28.781250,-84.19
18:42:28.796875,-92.44
18:42:28.812500,-98.37
18:42:28.828125,-99.48
18:42:28.843750,-93.76
18:42:28.859375,-80.58
18:42:28.875000,-61.05
18:42:28.890625,-37.87
18:42:28.906250,-14.42
18:42:28.921875,6.25
18:42:28.937500,22.31
18:42:28.953125,33.44
18:42:28.968750,40.44
18:42:28.984375,44.58
18:42:29,46.89
18:42:29.015625,47.87
18:42:29.031250,47.61
18:42:29.046875,46.10
18:42:29.062500,43.61
18:42:29.078125,40.73
18:42:29.093750,38.32
18:42:29.109375,37.13
18:42:29.125000,37.55
18:42:29.140625,39.44
18:42:29.156250,42.25
18:42:29.171875,45.29
18:42:29.187500,48.00
18:42:29.203125,50.12
18:42:29.218750,51.68
18:42:29.234375,52.71
18:42:29.250000,53.15
18:42:29.265625,52.73
18:42:29.281250,51.14
18:42:29.296875,48.22
18:42:29.312500,44.12
18:42:29.328125,39.32
18:42:29.343750,34.44
18:42:29.359375,29.96
18:42:29.375000,26.03
18:42:29.390625,22.54
18:42:29.406250,19.19
18:42:29.421875,15.80
18:42:29.437500,12.41
18:42:29.453125,9.23
18:42:29.468750,6.46
18:42:29.484375,4.12
18:42:29.500000,1.99
18:42:29.515625,-0.24
18:42:29.531250,-2.77
18:42:29.546875,-5.57
18:42:29.562500,-8.33
18:42:29.578125,-10.69
18:42:29.593750,-12.54
18:42:29.609375,-14.10
18:42:29.625000,-15.97
18:42:29.640625,-18.74
18:42:29.656250,-22.77
18:42:29.671875,-27.92
18:42:29.687500,-33.59
18:42:29.703125,-39.03
18:42:29.718750,-43.61
18:42:29.734375,-47.12
18:42:29.750000,-49.81
18:42:29.765625,-52.27
18:42:29.781250,-55.31
18:42:29.796875,-59.67
18:42:29.812500,-65.86
18:42:29.828125,-73.93
18:42:29.843750,-83.22
18:42:29.859375,-92.22
18:42:29.875000,-98.73
18:42:29.890625,-100.26
18:42:29.906250,-94.83
18:42:29.921875,-81.79
18:42:29.937500,-62.19
18:42:29.953125,-38.66
18:42:29.968750,-14.63
18:42:29.984375,6.71
18:42:30,23.34
18:42:30.015625,34.76
18:42:30.031250,41.73
18:42:30.046875,45.69
18:42:30.062500,47.96
18:42:30.078125,49.37
18:42:30.093750,50.22
18:42:30.109375,50.50
18:42:30.125000,50.21
18:42:30.140625,49.58
18:42:30.156250,49.00
18:42:30.171875,48.84
18:42:30.187500,49.33
18:42:30.203125,50.38
18:42:30.218750,51.75
18:42:30.234375,53.13
18:42:30.250000,54.26
18:42:30.265625,55.03
18:42:30.281250,55.44
18:42:30.296875,55.52
18:42:30.312500,55.23
18:42:30.328125,54.48
18:42:30.343750,53.05
18:42:30.359375,50.74
18:42:30.375000,47.43
18:42:30.390625,43.19
18:42:30.406250,38.29
18:42:30.421875,33.21
18:42:30.437500,28.43
18:42:30.453125,24.34
18:42:30.468750,21.09
18:42:30.484375,18.52
18:42:30.500000,16.29
18:42:30.515625,14.04
18:42:30.531250,11.53
18:42:30.546875,8.77
18:42:30.562500,5.99
18:42:30.578125,3.51
18:42:30.593750,1.61
18:42:30.609375,0.30
18:42:30.625000,-0.67
18:42:30.640625,-1.76
18:42:30.656250,-3.46
18:42:30.671875,-6.07
18:42:30.687500,-9.55
18:42:30.703125,-13.51
18:42:30.718750,-17.41
18:42:30.734375,-20.72
18:42:30.750000,-23.25
18:42:30.765625,-25.15
18:42:30.781250,-26.91
18:42:30.796875,-29.12
18:42:30.812500,-32.28
18:42:30.828125,-36.52
18:42:30.843750,-41.65
18:42:30.859375,-47.15
18:42:30.875000,-52.36
18:42:30.890625,-56.78
18:42:30.906250,-60.22
18:42:30.921875,-62.94
18:42:30.937500,-65.56
18:42:30.953125,-68.94
18:42:30.968750,-73.83
18:42:30.984375,-80.61
18:42:31,-89.00
18:42:31.015625,-97.86
18:42:31.031250,-105.17
18:42:31.046875,-108.46
18:42:31.062500,-105.47
18:42:31.078125,-94.94
18:42:31.093750,-77.22
18:42:31.109375,-54.38
18:42:31.125000,-29.62
18:42:31.140625,-6.31
18:42:31.156250,13.02
18:42:31.171875,27.27
18:42:31.187500,36.78
18:42:31.203125,42.79
18:42:31.218750,46.72
18:42:31.234375,49.58
18:42:31.250000,51.82
18:42:31.265625,53.43
18:42:31.281250,54.33
18:42:31.296875,54.54
18:42:31.312500,54.33
18:42:31.328125,54.11
18:42:31.343750,54.22
18:42:31.359375,54.80
18:42:31.375000,55.72
18:42:31.390625,56.72
18:42:31.406250,57.53
18:42:31.421875,58.05
18:42:31.437500,58.38
18:42:31.453125,58.70
18:42:31.468750,59.08
18:42:31.484375,59.34
18:42:31.500000,59.02
18:42:31.515625,57.58
18:42:31.531250,54.70
18:42:31.546875,50.45
18:42:31.562500,45.38
18:42:31.578125,40.25
18:42:31.593750,35.74
18:42:31.609375,32.15
18:42:31.625000,29.34
18:42:31.640625,26.88
18:42:31.656250,24.35
18:42:31.671875,21.55
18:42:31.687500,18.64
18:42:31.703125,15.92
18:42:31.718750,13.70
18:42:31.734375,12.10
18:42:31.750000,10.98
18:42:31.765625,10.04
18:42:31.781250,8.96
18:42:31.796875,7.52
18:42:31.812500,5.69
18:42:31.828125,3.59
18:42:31.843750,1.44
18:42:31.859375,-0.61
18:42:31.875000,-2.53
18:42:31.890625,-4.47
18:42:31.906250,-6.69
18:42:31.921875,-9.41
18:42:31.937500,-12.71
18:42:31.953125,-16.40
18:42:31.968750,-20.11
18:42:31.984375,-23.45
18:42:32,-26.24
18:42:32.015625,-28.59
18:42:32.031250,-30.93
18:42:32.046875,-33.77
18:42:32.062500,-37.44
18:42:32.078125,-41.94
18:42:32.093750,-46.90
18:42:32.109375,-51.73
18:42:32.125000,-55.91
18:42:32.140625,-59.19
18:42:32.156250,-61.72
18:42:32.171875,-64.02
18:42:32.187500,-66.77
18:42:32.203125,-70.71
18:42:32.218750,-76.43
18:42:32.234375,-84.06
18:42:32.250000,-93.01
18:42:32.265625,-101.78
18:42:32.281250,-108.03
18:42:32.296875,-109.10
18:42:32.312500,-102.87
18:42:32.328125,-88.63
18:42:32.343750,-67.54
18:42:32.359375,-42.44
18:42:32.375000,-17.01
18:42:32.390625,5.41
18:42:32.406250,22.73
18:42:32.421875,34.53
18:42:32.437500,41.68
18:42:32.453125,45.64
18:42:32.468750,47.78
18:42:32.484375,48.96
18:42:32.500000,49.52
18:42:32.515625,49.57
18:42:32.531250,49.22
18:42:32.546875,48.73
18:42:32.562500,48.47
18:42:32.578125,48.76
18:42:32.593750,49.69
18:42:32.609375,51.10
18:42:32.625000,52.69
18:42:32.640625,54.15
18:42:32.656250,55.31
18:42:32.671875,56.16
18:42:32.687500,56.84
18:42:32.703125,57.44
18:42:32.718750,57.89
18:42:32.734375,57.93
18:42:32.750000,57.14
18:42:32.765625,55.12
18:42:32.781250,51.72
18:42:32.796875,47.13
18:42:32.812500,41.85
18:42:32.828125,36.55
18:42:32.843750,31.83
18:42:32.859375,28.02
18:42:32.875000,25.05
18:42:32.890625,22.65
18:42:32.906250,20.41
18:42:32.921875,18.05
18:42:32.937500,15.50
18:42:32.953125,12.85
18:42:32.968750,10.28
18:42:32.984375,7.94
18:42:33,5.91
18:42:33.015625,4.21
18:42:33.031250,2.80
18:42:33.046875,1.59
18:42:33.062500,0.42
18:42:33.078125,-0.99
18:42:33.093750,-2.95
18:42:33.109375,-5.67
18:42:33.125000,-9.15
18:42:33.140625,-13.10
18:42:33.156250,-17.01
18:42:33.171875,-20.41
18:42:33.187500,-23.06
18:42:33.203125,-25.06
18:42:33.218750,-26.89
18:42:33.234375,-29.12
18:42:33.250000,-32.21
18:42:33.265625,-36.27
18:42:33.281250,-41.01
18:42:33.296875,-45.91
18:42:33.312500,-50.40
18:42:33.328125,-54.15
18:42:33.343750,-57.16
18:42:33.359375,-59.78
18:42:33.375000,-62.61
18:42:33.390625,-66.33
18:42:33.406250,-71.58
18:42:33.421875,-78.61
18:42:33.437500,-87.03
18:42:33.453125,-95.56
18:42:33.468750,-102.08
18:42:33.484375,-104.06
18:42:33.500000,-99.33
18:42:33.515625,-86.90
18:42:33.531250,-67.57
18:42:33.546875,-43.77
18:42:33.562500,-18.93
18:42:33.578125,3.64
18:42:33.593750,21.64
18:42:33.609375,34.25
18:42:33.625000,41.98
18:42:33.640625,46.10
18:42:33.656250,47.97
18:42:33.671875,48.61
18:42:33.687500,48.55
18:42:33.703125,47.97
18:42:33.718750,46.98
18:42:33.734375,45.81
18:42:33.750000,44.79
18:42:33.765625,44.33
18:42:33.781250,44.68
18:42:33.796875,45.88
18:42:33.812500,47.73
18:42:33.828125,49.88
18:42:33.843750,52.04
18:42:33.859375,54.00
18:42:33.875000,55.74
18:42:33.890625,57.21
18:42:33.906250,58.32
18:42:33.921875,58.80
18:42:33.937500,58.27
18:42:33.953125,56.42
18:42:33.968750,53.20
18:42:33.984375,48.85
18:42:34,43.91
18:42:34.015625,39.01
18:42:34.031250,34.65
18:42:34.046875,31.01
18:42:34.062500,27.98
18:42:34.078125,25.26
18:42:34.093750,22.53
18:42:34.109375,19.66
18:42:34.125000,16.70
18:42:34.140625,13.87
18:42:34.156250,11.36
18:42:34.171875,9.34
18:42:34.187500,7.76
18:42:34.203125,6.52
18:42:34.218750,5.42
18:42:34.234375,4.29
18:42:34.250000,2.98
18:42:34.265625,1.38
18:42:34.281250,-0.60
18:42:34.296875,-3.04
18:42:34.312500,-6.00
18:42:34.328125,-9.46
18:42:34.343750,-13.26
18:42:34.359375,-17.18
18:42:34.375000,-20.92
18:42:34.390625,-24.31
18:42:34.406250,-27.36
18:42:34.421875,-30.32
18:42:34.437500,-33.61
18:42:34.453125,-37.54
18:42:34.468750,-42.20
18:42:34.484375,-47.33
18:42:34.500000,-52.39
18:42:34.515625,-56.82
18:42:34.531250,-60.24
18:42:34.546875,-62.71
18:42:34.562500,-64.73
18:42:34.578125,-67.17
18:42:34.593750,-70.96
18:42:34.609375,-76.79
18:42:34.625000,-84.71
18:42:34.640625,-93.85
18:42:34.656250,-102.36
18:42:34.671875,-107.73
18:42:34.687500,-107.43
18:42:34.703125,-99.77
18:42:34.718750,-84.56
18:42:34.734375,-63.31
18:42:34.750000,-38.92
18:42:34.765625,-14.77
18:42:34.781250,6.23
18:42:34.796875,22.41
18:42:34.812500,33.42
18:42:34.828125,39.98
18:42:34.843750,43.25
18:42:34.859375,44.27
18:42:34.875000,43.77
18:42:34.890625,42.19
18:42:34.906250,39.91
18:42:34.921875,37.37
18:42:34.937500,35.12
18:42:34.953125,33.71
18:42:34.968750,33.45
18:42:34.984375,34.42
18:42:35,36.38
18:42:35.015625,38.97
18:42:35.031250,41.85
18:42:35.046875,44.73
18:42:35.062500,47.43
18:42:35.078125,49.74
18:42:35.093750,51.43
18:42:35.109375,52.18
18:42:35.125000,51.73
18:42:35.140625,49.93
18:42:35.156250,46.86
18:42:35.171875,42.83
18:42:35.187500,38.30
18:42:35.203125,33.75
18:42:35.218750,29.51
18:42:35.234375,25.72
18:42:35.250000,22.30
18:42:35.265625,19.01
18:42:35.281250,15.65
18:42:35.296875,12.13
18:42:35.312500,8.58
18:42:35.328125,5.21
18:42:35.343750,2.26
18:42:35.359375,-0.15
18:42:35.375000,-2.11
18:42:35.390625,-3.86
18:42:35.406250,-5.65
18:42:35.421875,-7.66
18:42:35.437500,-9.88
18:42:35.453125,-12.20
18:42:35.468750,-14.43
18:42:35.484375,-16.53
18:42:35.500000,-18.58
18:42:35.515625,-20.83
18:42:35.531250,-23.58
18:42:35.546875,-27.05
18:42:35.562500,-31.27
18:42:35.578125,-36.02
18:42:35.593750,-40.95
18:42:35.609375,-45.64
18:42:35.625000,-49.79
18:42:35.640625,-53.34
18:42:35.656250,-56.54
18:42:35.671875,-59.86
18:42:35.687500,-63.95
18:42:35.703125,-69.42
18:42:35.718750,-76.51
18:42:35.734375,-84.82
18:42:35.750000,-93.04
18:42:35.765625,-99.03
18:42:35.781250,-100.34
18:42:35.796875,-94.92
18:42:35.812500,-82.03
18:42:35.828125,-62.65
18:42:35.843750,-39.32
18:42:35.859375,-15.38
18:42:35.875000,6.10
18:42:35.890625,23.18
18:42:35.906250,35.32
18:42:35.921875,43.16
18:42:35.937500,47.84
18:42:35.953125,50.42
18:42:35.968750,51.61
18:42:35.984375,51.72
18:42:36,50.99
18:42:36.015625,49.67
18:42:36.031250,48.19
18:42:36.046875,47.03
18:42:36.062500,46.56
18:42:36.078125,46.96
18:42:36.093750,48.18
18:42:36.109375,49.96
18:42:36.125000,51.96
18:42:36.140625,53.90
18:42:36.156250,55.62
18:42:36.171875,57.09
18:42:36.187500,58.28
18:42:36.203125,59.10
18:42:36.218750,59.27
18:42:36.234375,58.41
18:42:36.250000,56.14
18:42:36.265625,52.37
18:42:36.281250,47.36
18:42:36.296875,41.74
18:42:36.312500,36.29
18:42:36.328125,31.64
18:42:36.343750,28.01
18:42:36.359375,25.21
18:42:36.375000,22.74
18:42:36.390625,20.09
18:42:36.406250,16.97
18:42:36.421875,13.47
18:42:36.437500,9.93
18:42:36.453125,6.81
18:42:36.468750,4.45
18:42:36.484375,2.89
18:42:36.500000,1.88
18:42:36.515625,0.93
18:42:36.531250,-0.46
18:42:36.546875,-2.65
18:42:36.562500,-5.65
18:42:36.578125,-9.22
18:42:36.593750,-12.92
18:42:36.609375,-16.32
18:42:36.625000,-19.29
18:42:36.640625,-22.00
18:42:36.656250,-24.91
18:42:36.671875,-28.55
18:42:36.687500,-33.24
18:42:36.703125,-38.87
18:42:36.718750,-44.95
18:42:36.734375,-50.77
18:42:36.750000,-55.70
18:42:36.765625,-59.50
18:42:36.781250,-62.45
18:42:36.796875,-65.30
18:42:36.812500,-69.07
18:42:36.828125,-74.71
18:42:36.843750,-82.73
18:42:36.859375,-92.81
18:42:36.875000,-103.60
18:42:36.890625,-112.76
18:42:36.906250,-117.41
18:42:36.921875,-114.97
18:42:36.937500,-104.07
18:42:36.953125,-85.19
18:42:36.968750,-60.73
18:42:36.984375,-34.26
18:42:37,-9.46
18:42:37.015625,10.97
18:42:37.031250,25.89
18:42:37.046875,35.69
18:42:37.062500,41.65
18:42:37.078125,45.24
18:42:37.093750,47.55
18:42:37.109375,49.15
18:42:37.125000,50.19
18:42:37.140625,50.75
18:42:37.156250,50.96
18:42:37.171875,51.14
18:42:37.187500,51.61
18:42:37.203125,52.57
18:42:37.218750,53.93
18:42:37.234375,55.39
18:42:37.250000,56.57
18:42:37.265625,57.22
18:42:37.281250,57.36
18:42:37.296875,57.30
18:42:37.312500,57.35
18:42:37.328125,57.65
18:42:37.343750,58.07
18:42:37.359375,58.23
18:42:37.375000,57.76
18:42:37.390625,56.47
18:42:37.406250,54.40
18:42:37.421875,51.87
18:42:37.437500,49.15
18:42:37.453125,46.46
18:42:37.468750,43.81
18:42:37.484375,41.11
18:42:37.500000,38.23
18:42:37.515625,35.10
18:42:37.531250,31.71
18:42:37.546875,28.13
18:42:37.562500,24.46
18:42:37.578125,20.80
18:42:37.593750,17.24
18:42:37.609375,13.87
18:42:37.625000,10.68
18:42:37.640625,7.56
18:42:37.656250,4.36
18:42:37.671875,0.86
18:42:37.687500,-3.08
18:42:37.703125,-7.46
18:42:37.718750,-12.21
18:42:37.734375,-17.19
18:42:37.750000,-22.31
18:42:37.765625,-27.51
18:42:37.781250,-32.71
18:42:37.796875,-37.76
18:42:37.812500,-42.44
18:42:37.828125,-46.50
18:42:37.843750,-49.79
18:42:37.859375,-52.42
18:42:37.875000,-54.75
18:42:37.890625,-57.23
18:42:37.906250,-60.15
18:42:37.921875,-63.48
18:42:37.937500,-66.81
18:42:37.953125,-69.53
18:42:37.968750,-71.10
18:42:37.984375,-71.35
18:42:38,-70.48
18:42:38.015625,-69.05
18:42:38.031250,-67.70
18:42:38.046875,-66.98
18:42:38.062500,-67.22
18:42:38.078125,-68.31
18:42:38.093750,-69.65
18:42:38.109375,-69.99
18:42:38.125000,-67.60
18:42:38.140625,-60.66
18:42:38.156250,-47.84
18:42:38.171875,-28.97
18:42:38.187500,-5.31
18:42:38.203125,20.74
18:42:38.218750,46.30
18:42:38.234375,68.87
18:42:38.250000,86.98
18:42:38.265625,100.22
18:42:38.281250,108.91
18:42:38.296875,113.55
18:42:38.312500,114.47
18:42:38.328125,111.77
18:42:38.343750,105.68
18:42:38.359375,96.82
18:42:38.375000,86.30
18:42:38.390625,75.55
18:42:38.406250,65.95
18:42:38.421875,58.48
18:42:38.437500,53.50
18:42:38.453125,50.74
18:42:38.468750,49.55
18:42:38.484375,49.03
18:42:38.500000,48.33
18:42:38.515625,46.82
18:42:38.531250,44.17
18:42:38.546875,40.29
18:42:38.562500,35.29
18:42:38.578125,29.30
18:42:38.593750,22.37
18:42:38.609375,14.56
18:42:38.625000,6.02
18:42:38.640625,-2.87
18:42:38.656250,-11.50
18:42:38.671875,-19.16
18:42:38.687500,-25.32
18:42:38.703125,-29.77
18:42:38.718750,-32.65
18:42:38.734375,-34.22
18:42:38.750000,-34.70
18:42:38.765625,-34.11
18:42:38.781250,-32.33
18:42:38.796875,-29.27
18:42:38.812500,-25.07
18:42:38.828125,-20.09
18:42:38.843750,-14.87
18:42:38.859375,-9.93
18:42:38.875000,-5.73
18:42:38.890625,-2.60
18:42:38.906250,-0.75
18:42:38.921875,-0.32
18:42:38.937500,-1.34
18:42:38.953125,-3.69
18:42:38.968750,-7.02
18:42:38.984375,-10.81
18:42:39,-14.53
18:42:39.015625,-17.79
18:42:39.031250,-20.53
18:42:39.046875,-23.09
18:42:39.062500,-26.04
18:42:39.078125,-29.93
18:42:39.093750,-35.05
18:42:39.109375,-41.23
18:42:39.125000,-47.94
18:42:39.140625,-54.49
18:42:39.156250,-60.37
18:42:39.171875,-65.45
18:42:39.187500,-70.09
18:42:39.203125,-74.93
18:42:39.218750,-80.68
18:42:39.234375,-87.79
18:42:39.250000,-96.20
18:42:39.265625,-105.11
18:42:39.281250,-112.94
18:42:39.296875,-117.56
18:42:39.312500,-116.74
18:42:39.328125,-108.82
18:42:39.343750,-93.38
18:42:39.359375,-71.54
18:42:39.375000,-45.77
18:42:39.390625,-19.20
18:42:39.406250,5.22
18:42:39.421875,25.45
18:42:39.437500,40.60
18:42:39.453125,50.81
18:42:39.468750,56.80
18:42:39.484375,59.52
18:42:39.500000,59.82
18:42:39.515625,58.43
18:42:39.531250,55.97
18:42:39.546875,52.93
18:42:39.562500,49.69
18:42:39.578125,46.58
18:42:39.593750,43.85
18:42:39.609375,41.81
18:42:39.625000,40.75
18:42:39.640625,40.90
18:42:39.656250,42.28
18:42:39.671875,44.63
18:42:39.687500,47.44
18:42:39.703125,50.10
18:42:39.718750,52.01
18:42:39.734375,52.76
18:42:39.750000,52.06
18:42:39.765625,49.80
18:42:39.781250,45.99
18:42:39.796875,40.77
18:42:39.812500,34.50
18:42:39.828125,27.72
18:42:39.843750,21.12
18:42:39.859375,15.37
18:42:39.875000,11.01
18:42:39.890625,8.25
18:42:39.906250,7.01
18:42:39.921875,7.00
18:42:39.937500,7.85
18:42:39.953125,9.16
18:42:39.968750,10.55
18:42:39.984375,11.68
18:42:40,12.22
18:42:40.015625,11.92
18:42:40.031250,10.71
18:42:40.046875,8.73
18:42:40.062500,6.28
18:42:40.078125,3.77
18:42:40.093750,1.56
18:42:40.109375,-0.15
18:42:40.125000,-1.31
18:42:40.140625,-2.01
18:42:40.156250,-2.38
18:42:40.171875,-2.50
18:42:40.187500,-2.48
18:42:40.203125,-2.43
18:42:40.218750,-2.61
18:42:40.234375,-3.37
18:42:40.250000,-5.12
18:42:40.265625,-8.22
18:42:40.281250,-12.96
18:42:40.296875,-19.41
18:42:40.312500,-27.44
18:42:40.328125,-36.53
18:42:40.343750,-45.62
18:42:40.359375,-53.12
18:42:40.375000,-57.16
18:42:40.390625,-56.13
18:42:40.406250,-49.27
18:42:40.421875,-37.08
18:42:40.437500,-21.37
18:42:40.453125,-4.68
18:42:40.468750,10.49
18:42:40.484375,22.43
18:42:40.500000,30.60
18:42:40.515625,35.47
18:42:40.531250,38.05
18:42:40.546875,39.32
18:42:40.562500,39.82
18:42:40.578125,39.66
18:42:40.593750,38.68
18:42:40.609375,36.79
18:42:40.625000,34.20
18:42:40.640625,31.44
18:42:40.656250,29.16
18:42:40.671875,27.87
18:42:40.687500,27.72
18:42:40.703125,28.49
18:42:40.718750,29.75
18:42:40.734375,31.13
18:42:40.750000,32.46
18:42:40.765625,33.79
18:42:40.781250,35.23
18:42:40.796875,36.74
18:42:40.812500,37.98
18:42:40.828125,38.44
18:42:40.843750,37.57
18:42:40.859375,35.09
18:42:40.875000,31.09
18:42:40.890625,26.03
18:42:40.906250,20.47
18:42:40.921875,14.91
18:42:40.937500,9.46
18:42:40.953125,3.99
18:42:40.968750,-1.78
18:42:40.984375,-7.98
18:42:41,-14.37
18:42:41.015625,-20.36
18:42:41.031250,-25.16
18:42:41.046875,-28.06
18:42:41.062500,-28.79
18:42:41.078125,-27.54
18:42:41.093750,-24.90
18:42:41.109375,-21.67
18:42:41.125000,-18.56
18:42:41.140625,-16.09
18:42:41.156250,-14.49
18:42:41.171875,-13.70
18:42:41.187500,-13.51
18:42:41.203125,-13.64
18:42:41.218750,-13.89
18:42:41.234375,-14.26
18:42:41.250000,-14.96
18:42:41.265625,-16.37
18:42:41.281250,-18.81
18:42:41.296875,-22.37
18:42:41.312500,-26.85
18:42:41.328125,-31.74
18:42:41.343750,-36.52
18:42:41.359375,-40.79
18:42:41.375000,-44.53
18:42:41.390625,-48.04
18:42:41.406250,-51.86
18:42:41.421875,-56.66
18:42:41.437500,-62.95
18:42:41.453125,-70.87
18:42:41.468750,-79.88
18:42:41.484375,-88.60
18:42:41.500000,-94.88
18:42:41.515625,-96.32
18:42:41.531250,-90.97
18:42:41.546875,-78.24
18:42:41.562500,-59.26
18:42:41.578125,-36.70
18:42:41.593750,-13.97
18:42:41.609375,5.88
18:42:41.625000,21.05
18:42:41.640625,31.26
18:42:41.656250,37.42
18:42:41.671875,40.96
18:42:41.687500,43.10
18:42:41.703125,44.55
18:42:41.718750,45.56
18:42:41.734375,46.12
18:42:41.750000,46.30
18:42:41.765625,46.32
18:42:41.781250,46.48
18:42:41.796875,47.05
18:42:41.812500,48.10
18:42:41.828125,49.53
18:42:41.843750,51.13
18:42:41.859375,52.71
18:42:41.875000,54.21
18:42:41.890625,55.65
18:42:41.906250,57.04
18:42:41.921875,58.30
18:42:41.937500,59.14
18:42:41.953125,59.14
18:42:41.968750,57.87
18:42:41.984375,55.16
18:42:42,51.16
18:42:42.015625,46.37
18:42:42.031250,41.46
18:42:42.046875,37.05
18:42:42.062500,33.39
18:42:42.078125,30.44
18:42:42.093750,27.87
18:42:42.109375,25.33
18:42:42.125000,22.63
18:42:42.140625,19.81
18:42:42.156250,17.08
18:42:42.171875,14.72
18:42:42.187500,12.86
18:42:42.203125,11.44
18:42:42.218750,10.26
18:42:42.234375,9.02
18:42:42.250000,7.51
18:42:42.265625,5.63
18:42:42.281250,3.45
18:42:42.296875,1.13
18:42:42.312500,-1.21
18:42:42.328125,-3.52
18:42:42.343750,-5.89
18:42:42.359375,-8.47
18:42:42.375000,-11.42
18:42:42.390625,-14.82
18:42:42.406250,-18.67
18:42:42.421875,-22.81
18:42:42.437500,-27.06
18:42:42.453125,-31.19
18:42:42.468750,-35.05
18:42:42.484375,-38.55
18:42:42.500000,-41.74
18:42:42.515625,-44.75
18:42:42.531250,-47.73
18:42:42.546875,-50.73
18:42:42.562500,-53.63
18:42:42.578125,-56.11
18:42:42.593750,-57.76
18:42:42.609375,-58.24
18:42:42.625000,-57.50
18:42:42.640625,-55.87
18:42:42.656250,-54.08
18:42:42.671875,-53.11
18:42:42.687500,-53.89
18:42:42.703125,-57.04
18:42:42.718750,-62.60
18:42:42.734375,-69.79
18:42:42.750000,-76.98
18:42:42.765625,-81.93
18:42:42.781250,-82.20
18:42:42.796875,-75.87
18:42:42.812500,-62.19
18:42:42.828125,-41.95
18:42:42.843750,-17.41
18:42:42.859375,8.31
18:42:42.875000,32.10
18:42:42.890625,51.73
18:42:42.906250,66.28
18:42:42.921875,76.07
18:42:42.937500,82.19
18:42:42.953125,85.90
18:42:42.968750,88.12
18:42:42.984375,89.33
18:42:43,89.64
18:42:43.015625,89.02
18:42:43.031250,87.47
18:42:43.046875,85.11
18:42:43.062500,82.10
18:42:43.078125,78.62
18:42:43.093750,74.91
18:42:43.109375,71.24
18:42:43.125000,67.98
18:42:43.140625,65.52
18:42:43.156250,64.21
18:42:43.171875,64.12
18:42:43.187500,65.00
18:42:43.203125,66.20
18:42:43.218750,66.86
18:42:43.234375,66.12
18:42:43.250000,63.34
18:42:43.265625,58.33
18:42:43.281250,51.35
18:42:43.296875,43.08
18:42:43.312500,34.37
18:42:43.328125,25.98
18:42:43.343750,18.33
18:42:43.359375,11.47
18:42:43.375000,5.05
18:42:43.390625,-1.44
18:42:43.406250,-8.48
18:42:43.421875,-16.34
18:42:43.437500,-24.97
18:42:43.453125,-34.01
18:42:43.468750,-42.85
18:42:43.484375,-50.84
18:42:43.500000,-57.35
18:42:43.515625,-61.98
18:42:43.531250,-64.56
18:42:43.546875,-65.19
18:42:43.562500,-64.18
18:42:43.578125,-61.94
18:42:43.593750,-58.90
18:42:43.609375,-55.49
18:42:43.625000,-52.13
18:42:43.640625,-49.14
18:42:43.656250,-46.70
18:42:43.671875,-44.80
18:42:43.687500,-43.30
18:42:43.703125,-42.00
18:42:43.718750,-40.82
18:42:43.734375,-39.81
18:42:43.750000,-39.20
18:42:43.765625,-39.15
18:42:43.781250,-39.62
18:42:43.796875,-40.33
18:42:43.812500,-40.85
18:42:43.828125,-40.85
18:42:43.843750,-40.30
18:42:43.859375,-39.56
18:42:43.875000,-39.31
18:42:43.890625,-40.32
18:42:43.906250,-43.28
18:42:43.921875,-48.48
18:42:43.937500,-55.61
18:42:43.953125,-63.67
18:42:43.968750,-71.04
18:42:43.984375,-75.75
18:42:44,-76.02
18:42:44.015625,-70.73
18:42:44.031250,-59.79
18:42:44.046875,-44.21
18:42:44.062500,-25.83
18:42:44.078125,-6.80
18:42:44.093750,10.94
18:42:44.109375,26.01
18:42:44.125000,37.75
18:42:44.140625,46.20
18:42:44.156250,51.90
18:42:44.171875,55.59
18:42:44.187500,58.05
18:42:44.203125,59.88
18:42:44.218750,61.41
18:42:44.234375,62.74
18:42:44.250000,63.74
18:42:44.265625,64.24
18:42:44.281250,64.10
18:42:44.296875,63.29
18:42:44.312500,61.95
18:42:44.328125,60.30
18:42:44.343750,58.62
18:42:44.359375,57.16
18:42:44.375000,56.02
18:42:44.390625,55.19
18:42:44.406250,54.51
18:42:44.421875,53.80
18:42:44.437500,52.91
18:42:44.453125,51.76
18:42:44.468750,50.36
18:42:44.484375,48.76
18:42:44.500000,47.00
18:42:44.515625,45.16
18:42:44.531250,43.39
18:42:44.546875,41.84
18:42:44.562500,40.62
18:42:44.578125,39.71
18:42:44.593750,38.92
18:42:44.609375,37.93
18:42:44.625000,36.39
18:42:44.640625,34.14
18:42:44.656250,31.23
18:42:44.671875,27.95
18:42:44.687500,24.61
18:42:44.703125,21.42
18:42:44.718750,18.33
18:42:44.734375,15.11
18:42:44.750000,11.44
18:42:44.765625,7.12
18:42:44.781250,2.16
18:42:44.796875,-3.27
18:42:44.812500,-8.91
18:42:44.828125,-14.59
18:42:44.843750,-20.27
18:42:44.859375,-26.06
18:42:44.875000,-32.12
18:42:44.890625,-38.54
18:42:44.906250,-45.33
18:42:44.921875,-52.38
18:42:44.937500,-59.45
18:42:44.953125,-66.20
18:42:44.968750,-72.13
18:42:44.984375,-76.61
18:42:45,-78.90
18:42:45.015625,-78.35
18:42:45.031250,-74.60
18:42:45.046875,-67.84
18:42:45.062500,-58.81
18:42:45.078125,-48.69
18:42:45.093750,-38.76
18:42:45.109375,-30.08
18:42:45.125000,-23.23
18:42:45.140625,-18.30
18:42:45.156250,-15.07
18:42:45.171875,-13.16
18:42:45.187500,-12.20
18:42:45.203125,-11.90
18:42:45.218750,-12.03
18:42:45.234375,-12.32
18:42:45.250000,-12.52
18:42:45.265625,-12.39
18:42:45.281250,-11.73
18:42:45.296875,-10.49
18:42:45.312500,-8.73
18:42:45.328125,-6.66
18:42:45.343750,-4.52
18:42:45.359375,-2.59
18:42:45.375000,-1.08
18:42:45.390625,-0.13
18:42:45.406250,0.20
18:42:45.421875,-0.17
18:42:45.437500,-1.31
18:42:45.453125,-3.32
18:42:45.468750,-6.29
18:42:45.484375,-10.17
18:42:45.500000,-14.78
18:42:45.515625,-19.80
18:42:45.531250,-24.88
18:42:45.546875,-29.67
18:42:45.562500,-33.89
18:42:45.578125,-37.28
18:42:45.593750,-39.62
18:42:45.609375,-40.70
18:42:45.625000,-40.36
18:42:45.640625,-38.54
18:42:45.656250,-35.34
18:42:45.671875,-30.94
18:42:45.687500,-25.67
18:42:45.703125,-19.88
18:42:45.718750,-13.93
18:42:45.734375,-8.12
18:42:45.750000,-2.71
18:42:45.765625,2.11
18:42:45.781250,6.12
18:42:45.796875,9.05
18:42:45.812500,10.50
18:42:45.828125,10.05
18:42:45.843750,7.34
18:42:45.859375,2.32
18:42:45.875000,-4.55
18:42:45.890625,-12.25
18:42:45.906250,-19.24
18:42:45.921875,-23.87
18:42:45.937500,-24.76
18:42:45.953125,-21.34
18:42:45.968750,-14.06
18:42:45.984375,-4.27
18:42:46,6.20
18:42:46.015625,15.66
18:42:46.031250,23.09
18:42:46.046875,28.33
18:42:46.062500,31.94
18:42:46.078125,34.77
18:42:46.093750,37.57
18:42:46.109375,40.61
18:42:46.125000,43.74
18:42:46.140625,46.56
18:42:46.156250,48.66
18:42:46.171875,49.87
18:42:46.187500,50.25
18:42:46.203125,50.07
18:42:46.218750,49.55
18:42:46.234375,48.86
18:42:46.250000,48.03
18:42:46.265625,47.04
18:42:46.281250,45.96
18:42:46.296875,44.93
18:42:46.312500,44.16
18:42:46.328125,43.77
18:42:46.343750,43.67
18:42:46.359375,43.57
18:42:46.375000,43.04
18:42:46.390625,41.71
18:42:46.406250,39.32
18:42:46.421875,35.90
18:42:46.437500,31.65
18:42:46.453125,26.88
18:42:46.468750,22.01
18:42:46.484375,17.40
18:42:46.500000,13.29
18:42:46.515625,9.76
18:42:46.531250,6.69
18:42:46.546875,3.84
18:42:46.562500,0.99
18:42:46.578125,-1.95
18:42:46.593750,-4.87
18:42:46.609375,-7.54
18:42:46.625000,-9.79
18:42:46.640625,-11.56
18:42:46.656250,-13.02
18:42:46.671875,-14.44
18:42:46.687500,-16.10
18:42:46.703125,-18.20
18:42:46.718750,-20.82
18:42:46.734375,-23.93
18:42:46.750000,-27.41
18:42:46.765625,-31.05
18:42:46.781250,-34.61
18:42:46.796875,-37.90
18:42:46.812500,-40.83
18:42:46.828125,-43.57
18:42:46.843750,-46.50
18:42:46.859375,-50.16
18:42:46.875000,-55.04
18:42:46.890625,-61.40
18:42:46.906250,-69.05
18:42:46.921875,-77.26
18:42:46.937500,-84.85
18:42:46.953125,-90.38
18:42:46.968750,-92.45
18:42:46.984375,-90.10
18:42:47,-83.15
18:42:47.015625,-72.28
18:42:47.031250,-58.93
18:42:47.046875,-44.90
18:42:47.062500,-31.83
18:42:47.078125,-20.76
18:42:47.093750,-12.01
18:42:47.109375,-5.23
18:42:47.125000,0.22
18:42:47.140625,4.86
18:42:47.156250,8.94
18:42:47.171875,12.38
18:42:47.187500,15.03
18:42:47.203125,16.83
18:42:47.218750,18.04
18:42:47.234375,19.17
18:42:47.250000,20.76
18:42:47.265625,23.18
18:42:47.281250,26.48
18:42:47.296875,30.39
18:42:47.312500,34.50
18:42:47.328125,38.37
18:42:47.343750,41.73
18:42:47.359375,44.46
18:42:47.375000,46.46
18:42:47.390625,47.59
18:42:47.406250,47.63
18:42:47.421875,46.40
18:42:47.437500,43.79
18:42:47.453125,39.97
18:42:47.468750,35.29
18:42:47.484375,30.25
18:42:47.500000,25.30
18:42:47.515625,20.76
18:42:47.531250,16.80
18:42:47.546875,13.44
18:42:47.562500,10.67
18:42:47.578125,8.51
18:42:47.593750,6.99
18:42:47.609375,6.08
18:42:47.625000,5.66
18:42:47.640625,5.51
18:42:47.656250,5.34
18:42:47.671875,4.94
18:42:47.687500,4.22
18:42:47.703125,3.24
18:42:47.718750,2.15
18:42:47.734375,1.07
18:42:47.750000,-0.04
18:42:47.765625,-1.37
18:42:47.781250,-3.23
18:42:47.796875,-5.86
18:42:47.812500,-9.27
18:42:47.828125,-13.22
18:42:47.843750,-17.34
18:42:47.859375,-21.27
18:42:47.875000,-24.86
18:42:47.890625,-28.25
18:42:47.906250,-31.78
18:42:47.921875,-35.86
18:42:47.937500,-40.85
18:42:47.953125,-46.90
18:42:47.968750,-53.93
18:42:47.984375,-61.55
18:42:48,-69.03
18:42:48.015625,-75.21
18:42:48.031250,-78.70
18:42:48.046875,-78.17
18:42:48.062500,-72.87
18:42:48.078125,-62.95
18:42:48.093750,-49.61
18:42:48.109375,-34.75
18:42:48.125000,-20.39
18:42:48.140625,-8.06
18:42:48.156250,1.55
18:42:48.171875,8.60
18:42:48.187500,13.75
18:42:48.203125,17.72
18:42:48.218750,21.01
18:42:48.234375,23.77
18:42:48.250000,25.97
18:42:48.265625,27.50
18:42:48.281250,28.38
18:42:48.296875,28.72
18:42:48.312500,28.70
18:42:48.328125,28.50
18:42:48.343750,28.27
18:42:48.359375,28.08
18:42:48.375000,28.02
18:42:48.390625,28.15
18:42:48.406250,28.54
18:42:48.421875,29.24
18:42:48.437500,30.25
18:42:48.453125,31.44
18:42:48.468750,32.61
18:42:48.484375,33.45
18:42:48.500000,33.66
18:42:48.515625,32.99
18:42:48.531250,31.36
18:42:48.546875,28.85
18:42:48.562500,25.66
18:42:48.578125,22.08
18:42:48.593750,18.35
18:42:48.609375,14.68
18:42:48.625000,11.17
18:42:48.640625,7.88
18:42:48.656250,4.77
18:42:48.671875,1.80
18:42:48.687500,-1.11
18:42:48.703125,-4.03
18:42:48.718750,-7.00
18:42:48.734375,-10.00
18:42:48.750000,-12.94
18:42:48.765625,-15.61
18:42:48.781250,-17.77
18:42:48.796875,-19.18
18:42:48.812500,-19.73
18:42:48.828125,-19.49
18:42:48.843750,-18.74
18:42:48.859375,-17.91
18:42:48.875000,-17.39
18:42:48.890625,-17.41
18:42:48.906250,-17.94
18:42:48.921875,-18.74
18:42:48.937500,-19.52
18:42:48.953125,-20.11
18:42:48.968750,-20.62
18:42:48.984375,-21.42
18:42:49,-23.08
18:42:49.015625,-26.09
18:42:49.031250,-30.65
18:42:49.046875,-36.43
18:42:49.062500,-42.51
18:42:49.078125,-47.41
18:42:49.093750,-49.47
18:42:49.109375,-47.33
18:42:49.125000,-40.41
18:42:49.140625,-29.23
18:42:49.156250,-15.27
18:42:49.171875,-0.54
18:42:49.187500,13.06
18:42:49.203125,24.28
18:42:49.218750,32.72
18:42:49.234375,38.74
18:42:49.250000,43.04
18:42:49.265625,46.30
18:42:49.281250,48.93
18:42:49.296875,51.06
18:42:49.312500,52.72
18:42:49.328125,53.93
18:42:49.343750,54.82
18:42:49.359375,55.57
18:42:49.375000,56.32
18:42:49.390625,57.11
18:42:49.406250,57.92
18:42:49.421875,58.75
18:42:49.437500,59.72
18:42:49.453125,61.01
18:42:49.468750,62.87
18:42:49.484375,65.39
18:42:49.500000,68.48
18:42:49.515625,71.80
18:42:49.531250,74.92
18:42:49.546875,77.43
18:42:49.562500,79.05
18:42:49.578125,79.72
18:42:49.593750,79.49
18:42:49.609375,78.40
18:42:49.625000,76.45
18:42:49.640625,73.49
18:42:49.656250,69.36
18:42:49.671875,63.92
18:42:49.687500,57.18
18:42:49.703125,49.32
18:42:49.718750,40.69
18:42:49.734375,31.71
18:42:49.750000,22.79
18:42:49.765625,14.26
18:42:49.781250,6.33
18:42:49.796875,-0.93
18:42:49.812500,-7.53
18:42:49.828125,-13.53
18:42:49.843750,-19.00
18:42:49.859375,-23.93
18:42:49.875000,-28.21
18:42:49.890625,-31.72
18:42:49.906250,-34.32
18:42:49.921875,-36.09
18:42:49.937500,-37.29
18:42:49.953125,-38.35
18:42:49.968750,-39.73
18:42:49.984375,-41.71
18:42:50,-44.30
18:42:50.015625,-47.29
18:42:50.031250,-50.42
18:42:50.046875,-53.60
18:42:50.062500,-56.97
18:42:50.078125,-60.83
18:42:50.093750,-65.44
18:42:50.109375,-70.86
18:42:50.125000,-76.82
18:42:50.140625,-82.76
18:42:50.156250,-87.90
18:42:50.171875,-91.32
18:42:50.187500,-92.11
18:42:50.203125,-89.50
18:42:50.218750,-83.11
18:42:50.234375,-73.17
18:42:50.250000,-60.65
18:42:50.265625,-47.01
18:42:50.281250,-33.84
18:42:50.296875,-22.37
18:42:50.312500,-13.19
18:42:50.328125,-6.22
18:42:50.343750,-0.99
18:42:50.359375,2.97
18:42:50.375000,5.90
18:42:50.390625,7.79
18:42:50.406250,8.61
18:42:50.421875,8.47
18:42:50.437500,7.78
18:42:50.453125,7.09
18:42:50.468750,6.89
18:42:50.484375,7.39
18:42:50.500000,8.46
18:42:50.515625,9.81
18:42:50.531250,11.07
18:42:50.546875,12.10
18:42:50.562500,12.89
18:42:50.578125,13.58
18:42:50.593750,14.25
18:42:50.609375,14.85
18:42:50.625000,15.21
18:42:50.640625,15.12
18:42:50.656250,14.43
18:42:50.671875,13.16
18:42:50.687500,11.50
18:42:50.703125,9.70
18:42:50.718750,7.94
18:42:50.734375,6.37
18:42:50.750000,4.98
18:42:50.765625,3.75
18:42:50.781250,2.57
18:42:50.796875,1.38
18:42:50.812500,0.09
18:42:50.828125,-1.31
18:42:50.843750,-2.83
18:42:50.859375,-4.45
18:42:50.875000,-6.12
18:42:50.890625,-7.84
18:42:50.906250,-9.59
18:42:50.921875,-11.37
18:42:50.937500,-13.19
18:42:50.953125,-15.09
18:42:50.968750,-17.12
18:42:50.984375,-19.32
18:42:51,-21.74
18:42:51.015625,-24.41
18:42:51.031250,-27.27
18:42:51.046875,-30.24
18:42:51.062500,-33.26
18:42:51.078125,-36.34
18:42:51.093750,-39.59
18:42:51.109375,-43.20
18:42:51.125000,-47.40
18:42:51.140625,-52.35
18:42:51.156250,-58.05
18:42:51.171875,-64.28
18:42:51.187500,-70.54
18:42:51.203125,-76.08
18:42:51.218750,-79.95
18:42:51.234375,-81.25
18:42:51.250000,-79.35
18:42:51.265625,-74.13
18:42:51.281250,-66.02
18:42:51.296875,-55.86
18:42:51.312500,-44.66
18:42:51.328125,-33.32
18:42:51.343750,-22.49
18:42:51.359375,-12.54
18:42:51.375000,-3.72
18:42:51.390625,3.79
18:42:51.406250,9.78
18:42:51.421875,14.12
18:42:51.437500,16.81
18:42:51.453125,18.08
18:42:51.468750,18.42
18:42:51.484375,18.44
18:42:51.500000,18.77
18:42:51.515625,19.87
18:42:51.531250,21.95
18:42:51.546875,24.96
18:42:51.562500,28.68
18:42:51.578125,32.79
18:42:51.593750,36.98
18:42:51.609375,41.01
18:42:51.625000,44.63
18:42:51.640625,47.60
18:42:51.656250,49.70
18:42:51.671875,50.77
18:42:51.687500,50.73
18:42:51.703125,49.67
18:42:51.718750,47.79
18:42:51.734375,45.44
18:42:51.750000,43.00
18:42:51.765625,40.78
18:42:51.781250,38.93
18:42:51.796875,37.34
18:42:51.812500,35.66
18:42:51.828125,33.48
18:42:51.843750,30.48
18:42:51.859375,26.65
18:42:51.875000,22.31
18:42:51.890625,17.96
18:42:51.906250,14.04
18:42:51.921875,10.67
18:42:51.937500,7.62
18:42:51.953125,4.41
18:42:51.968750,0.58
18:42:51.984375,-4.08
18:42:52,-9.40
18:42:52.015625,-14.96
18:42:52.031250,-20.29
18:42:52.046875,-25.07
18:42:52.062500,-29.29
18:42:52.078125,-33.23
18:42:52.093750,-37.41
18:42:52.109375,-42.35
18:42:52.125000,-48.48
18:42:52.140625,-55.92
18:42:52.156250,-64.41
18:42:52.171875,-73.20
18:42:52.187500,-81.05
18:42:52.203125,-86.35
18:42:52.218750,-87.51
18:42:52.234375,-83.39
18:42:52.250000,-73.80
18:42:52.265625,-59.67
18:42:52.281250,-42.84
18:42:52.296875,-25.54
18:42:52.312500,-9.69
18:42:52.328125,3.60
18:42:52.343750,14.17
18:42:52.359375,22.51
18:42:52.375000,29.34
18:42:52.390625,35.19
18:42:52.406250,40.26
18:42:52.421875,44.48
18:42:52.437500,47.79
18:42:52.453125,50.24
18:42:52.468750,52.05
18:42:52.484375,53.47
18:42:52.500000,54.66
18:42:52.515625,55.61
18:42:52.531250,56.18
18:42:52.546875,56.20
18:42:52.562500,55.61
18:42:52.578125,54.51
18:42:52.593750,53.07
18:42:52.609375,51.49
18:42:52.625000,49.82
18:42:52.640625,47.99
18:42:52.656250,45.87
18:42:52.671875,43.36
18:42:52.687500,40.52
18:42:52.703125,37.53
18:42:52.718750,34.57
18:42:52.734375,31.80
18:42:52.750000,29.19
18:42:52.765625,26.66
18:42:52.781250,24.12
18:42:52.796875,21.54
18:42:52.812500,18.98
18:42:52.828125,16.57
18:42:52.843750,14.37
18:42:52.859375,12.41
18:42:52.875000,10.68
18:42:52.890625,9.10
18:42:52.906250,7.60
18:42:52.921875,6.08
18:42:52.937500,4.39
18:42:52.953125,2.44
18:42:52.968750,0.20
18:42:52.984375,-2.17
18:42:53,-4.44
18:42:53.015625,-6.37
18:42:53.031250,-7.90
18:42:53.046875,-9.26
18:42:53.062500,-10.88
18:42:53.078125,-13.23
18:42:53.093750,-16.55
18:42:53.109375,-20.75
18:42:53.125000,-25.38
18:42:53.140625,-29.86
18:42:53.156250,-33.69
18:42:53.171875,-36.70
18:42:53.187500,-39.12
18:42:53.203125,-41.53
18:42:53.218750,-44.64
18:42:53.234375,-49.08
18:42:53.250000,-55.16
18:42:53.265625,-62.57
18:42:53.281250,-70.31
18:42:53.296875,-76.75
18:42:53.312500,-80.02
18:42:53.328125,-78.46
18:42:53.343750,-71.34
18:42:53.359375,-59.09
18:42:53.375000,-43.32
18:42:53.390625,-26.26
18:42:53.406250,-10.09
18:42:53.421875,3.67
18:42:53.437500,14.50
18:42:53.453125,22.68
18:42:53.468750,28.90
18:42:53.484375,33.81
18:42:53.500000,37.69
18:42:53.515625,40.52
18:42:53.531250,42.16
18:42:53.546875,42.58
18:42:53.562500,42.00
18:42:53.578125,40.83
18:42:53.593750,39.54
18:42:53.609375,38.49
18:42:53.625000,37.78
18:42:53.640625,37.32
18:42:53.656250,36.96
18:42:53.671875,36.60
18:42:53.687500,36.33
18:42:53.703125,36.29
18:42:53.718750,36.67
18:42:53.734375,37.49
18:42:53.750000,38.62
18:42:53.765625,39.78
18:42:53.781250,40.67
18:42:53.796875,41.09
18:42:53.812500,40.95
18:42:53.828125,40.36
18:42:53.843750,39.45
18:42:53.859375,38.32
18:42:53.875000,37.00
18:42:53.890625,35.35
18:42:53.906250,33.23
18:42:53.921875,30.52
18:42:53.937500,27.28
18:42:53.953125,23.72
18:42:53.968750,20.13
18:42:53.984375,16.75
18:42:54,13.64
18:42:54.015625,10.66
18:42:54.031250,7.62
18:42:54.046875,4.33
18:42:54.062500,0.73
18:42:54.078125,-3.08
18:42:54.093750,-6.94
18:42:54.109375,-10.70
18:42:54.125000,-14.30
18:42:54.140625,-17.80
18:42:54.156250,-21.37
18:42:54.171875,-25.24
18:42:54.187500,-29.58
18:42:54.203125,-34.42
18:42:54.218750,-39.55
18:42:54.234375,-44.58
18:42:54.250000,-49.06
18:42:54.265625,-52.68
18:42:54.281250,-55.45
18:42:54.296875,-57.76
18:42:54.312500,-60.24
18:42:54.328125,-63.55
18:42:54.343750,-68.12
18:42:54.359375,-74.06
18:42:54.375000,-80.99
18:42:54.390625,-88.05
18:42:54.406250,-93.89
18:42:54.421875,-96.96
18:42:54.437500,-95.82
18:42:54.453125,-89.67
18:42:54.468750,-78.68
18:42:54.484375,-63.99
18:42:54.500000,-47.37
18:42:54.515625,-30.63
18:42:54.531250,-15.07
18:42:54.546875,-1.22
18:42:54.562500,10.93
18:42:54.578125,21.66
18:42:54.593750,31.13
18:42:54.609375,39.25
18:42:54.625000,45.78
18:42:54.640625,50.54
18:42:54.656250,53.62
18:42:54.671875,55.39
18:42:54.687500,56.44
18:42:54.703125,57.36
18:42:54.718750,58.57
18:42:54.734375,60.25
18:42:54.750000,62.30
18:42:54.765625,64.44
18:42:54.781250,66.36
18:42:54.796875,67.77
18:42:54.812500,68.51
18:42:54.828125,68.46
18:42:54.843750,67.56
18:42:54.859375,65.78
18:42:54.875000,63.14
18:42:54.890625,59.75
18:42:54.906250,55.79
18:42:54.921875,51.44
18:42:54.937500,46.87
18:42:54.953125,42.20
18:42:54.968750,37.55
18:42:54.984375,33.08
18:42:55,28.94
18:42:55.015625,25.23
18:42:55.031250,21.92
18:42:55.046875,18.79
18:42:55.062500,15.55
18:42:55.078125,11.98
18:42:55.093750,8.06
18:42:55.109375,4.03
18:42:55.125000,0.23
18:42:55.140625,-2.96
18:42:55.156250,-5.44
18:42:55.171875,-7.40
18:42:55.187500,-9.27
18:42:55.203125,-11.55
18:42:55.218750,-14.65
18:42:55.234375,-18.65
18:42:55.250000,-23.33
18:42:55.265625,-28.24
18:42:55.281250,-32.87
18:42:55.296875,-36.94
18:42:55.312500,-40.41
18:42:55.328125,-43.57
18:42:55.343750,-46.87
18:42:55.359375,-50.85
18:42:55.375000,-55.92
18:42:55.390625,-62.31
18:42:55.406250,-69.83
18:42:55.421875,-77.75
18:42:55.437500,-84.71
18:42:55.453125,-88.91
18:42:55.468750,-88.56
18:42:55.484375,-82.55
18:42:55.500000,-70.90
18:42:55.515625,-54.94
18:42:55.531250,-36.96
18:42:55.546875,-19.42
18:42:55.562500,-4.25
18:42:55.578125,7.71
18:42:55.593750,16.67
18:42:55.609375,23.46
18:42:55.625000,28.99
18:42:55.640625,33.80
18:42:55.656250,37.94
18:42:55.671875,41.16
18:42:55.687500,43.25
18:42:55.703125,44.23
18:42:55.718750,44.44
18:42:55.734375,44.32
18:42:55.750000,44.29
18:42:55.765625,44.47
18:42:55.781250,44.82
18:42:55.796875,45.20
18:42:55.812500,45.53
18:42:55.828125,45.89
18:42:55.843750,46.43
18:42:55.859375,47.27
18:42:55.875000,48.33
18:42:55.890625,49.32
18:42:55.906250,49.77
18:42:55.921875,49.29
18:42:55.937500,47.67
18:42:55.953125,45.02
18:42:55.968750,41.73
18:42:55.984375,38.30
18:42:56,35.18
18:42:56.015625,32.54
18:42:56.031250,30.30
18:42:56.046875,28.13
18:42:56.062500,25.67
18:42:56.078125,22.75
18:42:56.093750,19.45
18:42:56.109375,16.10
18:42:56.125000,13.14
18:42:56.140625,10.86
18:42:56.156250,9.30
18:42:56.171875,8.19
18:42:56.187500,7.05
18:42:56.203125,5.39
18:42:56.218750,2.92
18:42:56.234375,-0.36
18:42:56.250000,-4.15
18:42:56.265625,-7.97
18:42:56.281250,-11.39
18:42:56.296875,-14.20
18:42:56.312500,-16.52
18:42:56.328125,-18.70
18:42:56.343750,-21.22
18:42:56.359375,-24.42
18:42:56.375000,-28.39
18:42:56.390625,-32.90
18:42:56.406250,-37.48
18:42:56.421875,-41.67
18:42:56.437500,-45.18
18:42:56.453125,-48.10
18:42:56.468750,-50.78
18:42:56.484375,-53.81
18:42:56.500000,-57.80
18:42:56.515625,-63.21
18:42:56.531250,-70.12
18:42:56.546875,-78.20
18:42:56.562500,-86.49
18:42:56.578125,-93.46
18:42:56.593750,-97.30
18:42:56.609375,-96.32
18:42:56.625000,-89.57
18:42:56.640625,-77.26
18:42:56.656250,-60.83
18:42:56.671875,-42.57
18:42:56.687500,-24.91
18:42:56.703125,-9.65
18:42:56.718750,2.44
18:42:56.734375,11.67
18:42:56.750000,18.98
18:42:56.765625,25.34
18:42:56.781250,31.33
18:42:56.796875,37.00
18:42:56.812500,42.02
18:42:56.828125,46.06
18:42:56.843750,48.95
18:42:56.859375,50.86
18:42:56.875000,52.14
18:42:56.890625,53.12
18:42:56.906250,53.95
18:42:56.921875,54.59
18:42:56.937500,54.91
18:42:56.953125,54.87
18:42:56.968750,54.61
18:42:56.984375,54.37
18:42:57,54.39
18:42:57.015625,54.67
18:42:57.031250,54.94
18:42:57.046875,54.71
18:42:57.062500,53.55
18:42:57.078125,51.26
18:42:57.093750,48.01
18:42:57.109375,44.27
18:42:57.125000,40.58
18:42:57.140625,37.35
18:42:57.156250,34.72
18:42:57.171875,32.52
18:42:57.187500,30.47
18:42:57.203125,28.29
18:42:57.218750,25.82
18:42:57.234375,23.10
18:42:57.250000,20.32
18:42:57.265625,17.75
18:42:57.281250,15.62
18:42:57.296875,14.04
18:42:57.312500,12.93
18:42:57.328125,12.07
18:42:57.343750,11.19
18:42:57.359375,10.06
18:42:57.375000,8.64
18:42:57.390625,7.03
18:42:57.406250,5.39
18:42:57.421875,3.88
18:42:57.437500,2.49
18:42:57.453125,1.04
18:42:57.468750,-0.70
18:42:57.484375,-2.95
18:42:57.500000,-5.78
18:42:57.515625,-9.05
18:42:57.531250,-12.47
18:42:57.546875,-15.71
18:42:57.562500,-18.56
18:42:57.578125,-20.98
18:42:57.593750,-23.17
18:42:57.609375,-25.49
18:42:57.625000,-28.31
18:42:57.640625,-31.86
18:42:57.656250,-36.11
18:42:57.671875,-40.75
18:42:57.687500,-45.37
18:42:57.703125,-49.57
18:42:57.718750,-53.18
18:42:57.734375,-56.31
18:42:57.750000,-59.32
18:42:57.765625,-62.71
18:42:57.781250,-67.04
18:42:57.796875,-72.71
18:42:57.812500,-79.82
18:42:57.828125,-87.90
18:42:57.843750,-95.79
18:42:57.859375,-101.75
18:42:57.875000,-103.83
18:42:57.890625,-100.54
18:42:57.906250,-91.40
18:42:57.921875,-77.27
18:42:57.937500,-60.11
18:42:57.953125,-42.35
18:42:57.968750,-26.07
18:42:57.984375,-12.49
18:42:58,-1.81
18:42:58.015625,6.54
18:42:58.031250,13.38
18:42:58.046875,19.35
18:42:58.062500,24.68
18:42:58.078125,29.27
18:42:58.093750,32.92
18:42:58.109375,35.58
18:42:58.125000,37.43
18:42:58.140625,38.86
18:42:58.156250,40.23
18:42:58.171875,41.73
18:42:58.187500,43.26
18:42:58.203125,44.57
18:42:58.218750,45.42
18:42:58.234375,45.78
18:42:58.250000,45.83
18:42:58.265625,45.84
18:42:58.281250,45.99
18:42:58.296875,46.22
18:42:58.312500,46.24
18:42:58.328125,45.74
18:42:58.343750,44.51
18:42:58.359375,42.59
18:42:58.375000,40.27
18:42:58.390625,37.91
18:42:58.406250,35.86
18:42:58.421875,34.28
18:42:58.437500,33.16
18:42:58.453125,32.31
18:42:58.468750,31.49
18:42:58.484375,30.51
18:42:58.500000,29.36
18:42:58.515625,28.16
18:42:58.531250,27.09
18:42:58.546875,26.26
18:42:58.562500,25.65
18:42:58.578125,25.08
18:42:58.593750,24.33
18:42:58.609375,23.27
18:42:58.625000,21.87
18:42:58.640625,20.25
18:42:58.656250,18.59
18:42:58.671875,16.99
18:42:58.687500,15.44
18:42:58.703125,13.80
18:42:58.718750,11.91
18:42:58.734375,9.65
18:42:58.750000,7.03
18:42:58.765625,4.12
18:42:58.781250,1.11
18:42:58.796875,-1.90
18:42:58.812500,-4.84
18:42:58.828125,-7.78
18:42:58.843750,-10.81
18:42:58.859375,-14.04
18:42:58.875000,-17.53
18:42:58.890625,-21.28
18:42:58.906250,-25.22
18:42:58.921875,-29.25
18:42:58.937500,-33.27
18:42:58.953125,-37.13
18:42:58.968750,-40.73
18:42:58.984375,-44.08
18:42:59,-47.36
18:42:59.015625,-50.95
18:42:59.031250,-55.36
18:42:59.046875,-61.02
18:42:59.062500,-67.99
18:42:59.078125,-75.73
18:42:59.093750,-83.01
18:42:59.109375,-88.12
18:42:59.125000,-89.32
18:42:59.140625,-85.48
18:42:59.156250,-76.52
18:42:59.171875,-63.54
18:42:59.187500,-48.47
18:42:59.203125,-33.46
18:42:59.218750,-20.21
18:42:59.234375,-9.55
18:42:59.250000,-1.40
18:42:59.265625,4.86
18:42:59.281250,9.96
18:42:59.296875,14.34
18:42:59.312500,18.11
18:42:59.328125,21.13
18:42:59.343750,23.31
18:42:59.359375,24.74
18:42:59.375000,25.74
18:42:59.390625,26.73
18:42:59.406250,28.06
18:42:59.421875,29.88
18:42:59.437500,32.14
18:42:59.453125,34.63
18:42:59.468750,37.13
18:42:59.484375,39.49
18:42:59.500000,41.68
18:42:59.515625,43.70
18:42:59.531250,45.59
18:42:59.546875,47.28
18:42:59.562500,48.59
18:42:59.578125,49.26
18:42:59.593750,49.08
18:42:59.609375,47.89
18:42:59.625000,45.77
18:42:59.640625,42.98
18:42:59.656250,39.89
18:42:59.671875,36.83
18:42:59.687500,34.02
18:42:59.703125,31.48
18:42:59.718750,29.11
18:42:59.734375,26.80
18:42:59.750000,24.50
18:42:59.765625,22.20
18:42:59.781250,19.94
18:42:59.796875,17.68
18:42:59.812500,15.38
18:42:59.828125,13.03
18:42:59.843750,10.69
18:42:59.859375,8.50
18:42:59.875000,6.61
18:42:59.890625,5.05
18:42:59.906250,3.71
18:42:59.921875,2.31
18:42:59.937500,0.59
18:42:59.953125,-1.62
18:42:59.968750,-4.30
18:42:59.984375,-7.21
18:43:00,-10.05
18:43:00.015625,-12.57
18:43:00.031250,-14.64
18:43:00.046875,-16.42
18:43:00.062500,-18.24
18:43:00.078125,-20.48
18:43:00.093750,-23.35
18:43:00.109375,-26.83
18:43:00.125000,-30.59
18:43:00.140625,-34.16
18:43:00.156250,-37.15
18:43:00.171875,-39.49
18:43:00.187500,-41.45
18:43:00.203125,-43.56
18:43:00.218750,-46.41
18:43:00.234375,-50.39
18:43:00.250000,-55.59
18:43:00.265625,-61.75
18:43:00.281250,-68.25
18:43:00.296875,-74.10
18:43:00.312500,-78.05
18:43:00.328125,-78.78
18:43:00.343750,-75.28
18:43:00.359375,-67.21
18:43:00.375000,-55.18
18:43:00.390625,-40.64
18:43:00.406250,-25.47
18:43:00.421875,-11.45
18:43:00.437500,0.31
18:43:00.453125,9.53
18:43:00.468750,16.63
18:43:00.484375,22.32
18:43:00.500000,27.22
18:43:00.515625,31.58
18:43:00.531250,35.35
18:43:00.546875,38.34
18:43:00.562500,40.36
18:43:00.578125,41.36
18:43:00.593750,41.41
18:43:00.609375,40.64
18:43:00.625000,39.13
18:43:00.640625,36.88
18:43:00.656250,33.83
18:43:00.671875,29.99
18:43:00.687500,25.50
18:43:00.703125,20.72
18:43:00.718750,16.11
18:43:00.734375,12.13
18:43:00.750000,9.06
18:43:00.765625,6.87
18:43:00.781250,5.32
18:43:00.796875,4.11
18:43:00.812500,3.01
18:43:00.828125,2.09
18:43:00.843750,1.56
18:43:00.859375,1.74
18:43:00.875000,2.83
18:43:00.890625,4.81
18:43:00.906250,7.54
18:43:00.921875,10.78
18:43:00.937500,14.43
18:43:00.953125,18.47
18:43:00.968750,23.01
18:43:00.984375,28.14
18:43:01,33.86
18:43:01.015625,40.10
18:43:01.031250,46.71
18:43:01.046875,53.50
18:43:01.062500,60.27
18:43:01.078125,66.71
18:43:01.093750,72.45
18:43:01.109375,77.07
18:43:01.125000,80.17
18:43:01.140625,81.45
18:43:01.156250,80.75
18:43:01.171875,77.95
18:43:01.187500,72.95
18:43:01.203125,65.60
18:43:01.218750,55.83
18:43:01.234375,43.75
18:43:01.250000,29.73
18:43:01.265625,14.44
18:43:01.281250,-1.25
18:43:01.296875,-16.50
18:43:01.312500,-30.66
18:43:01.328125,-43.36
18:43:01.343750,-54.56
18:43:01.359375,-64.44
18:43:01.375000,-73.36
18:43:01.390625,-81.75
18:43:01.406250,-89.99
18:43:01.421875,-98.28
18:43:01.437500,-106.44
18:43:01.453125,-113.74
18:43:01.468750,-118.98
18:43:01.484375,-120.72
18:43:01.500000,-117.72
18:43:01.515625,-109.55
18:43:01.531250,-96.80
18:43:01.546875,-81.13
18:43:01.562500,-64.73
18:43:01.578125,-49.69
18:43:01.593750,-37.34
18:43:01.609375,-28.09
18:43:01.625000,-21.53
18:43:01.640625,-16.87
18:43:01.656250,-13.36
18:43:01.671875,-10.62
18:43:01.687500,-8.49
18:43:01.703125,-7.00
18:43:01.718750,-6.08
18:43:01.734375,-5.54
18:43:01.750000,-5.08
18:43:01.765625,-4.37
18:43:01.781250,-3.24
18:43:01.796875,-1.68
18:43:01.812500,0.19
18:43:01.828125,2.22
18:43:01.843750,4.39
18:43:01.859375,6.80
18:43:01.875000,9.66
18:43:01.890625,13.08
18:43:01.906250,16.94
18:43:01.921875,20.81
18:43:01.937500,24.09
18:43:01.953125,26.27
18:43:01.968750,27.12
18:43:01.984375,26.84
18:43:02,25.90
18:43:02.015625,24.85
18:43:02.031250,23.99
18:43:02.046875,23.29
18:43:02.062500,22.47
18:43:02.078125,21.20
18:43:02.093750,19.31
18:43:02.109375,16.90
18:43:02.125000,14.31
18:43:02.140625,11.90
18:43:02.156250,9.94
18:43:02.171875,8.42
18:43:02.187500,7.09
18:43:02.203125,5.58
18:43:02.218750,3.57
18:43:02.234375,0.94
18:43:02.250000,-2.18
18:43:02.265625,-5.48
18:43:02.281250,-8.62
18:43:02.296875,-11.40
18:43:02.312500,-13.88
18:43:02.328125,-16.26
18:43:02.343750,-18.78
18:43:02.359375,-21.52
18:43:02.375000,-24.34
18:43:02.390625,-26.94
18:43:02.406250,-29.02
18:43:02.421875,-30.48
18:43:02.437500,-31.55
18:43:02.453125,-32.66
18:43:02.468750,-34.33
18:43:02.484375,-36.97
18:43:02.500000,-40.82
18:43:02.515625,-45.89
18:43:02.531250,-51.90
18:43:02.546875,-58.31
18:43:02.562500,-64.15
18:43:02.578125,-68.11
18:43:02.593750,-68.85
18:43:02.609375,-65.37
18:43:02.625000,-57.45
18:43:02.640625,-45.85
18:43:02.656250,-32.08
18:43:02.671875,-17.97
18:43:02.687500,-5.10
18:43:02.703125,5.60
18:43:02.718750,13.86
18:43:02.734375,19.88
18:43:02.750000,24.06
18:43:02.765625,26.72
18:43:02.781250,28.10
18:43:02.796875,28.41
18:43:02.812500,27.92
18:43:02.828125,27.00
18:43:02.843750,26.10
18:43:02.859375,25.64
18:43:02.875000,25.94
18:43:02.890625,27.09
18:43:02.906250,28.95
18:43:02.921875,31.19
18:43:02.937500,33.40
18:43:02.953125,35.25
18:43:02.968750,36.58
18:43:02.984375,37.44
18:43:03,38.00
18:43:03.015625,38.35
18:43:03.031250,38.41
18:43:03.046875,37.90
18:43:03.062500,36.56
18:43:03.078125,34.29
18:43:03.093750,31.33
18:43:03.109375,28.25
18:43:03.125000,25.72
18:43:03.140625,24.20
18:43:03.156250,23.79
18:43:03.171875,24.19
18:43:03.187500,24.84
18:43:03.203125,25.20
18:43:03.218750,24.91
18:43:03.234375,23.91
18:43:03.250000,22.33
18:43:03.265625,20.32
18:43:03.281250,18.05
18:43:03.296875,15.59
18:43:03.312500,12.95
18:43:03.328125,10.19
18:43:03.343750,7.39
18:43:03.359375,4.65
18:43:03.375000,2.06
18:43:03.390625,-0.42
18:43:03.406250,-2.95
18:43:03.421875,-5.71
18:43:03.437500,-8.87
18:43:03.453125,-12.42
18:43:03.468750,-16.19
18:43:03.484375,-19.96
18:43:03.500000,-23.55
18:43:03.515625,-26.95
18:43:03.531250,-30.32
18:43:03.546875,-34.01
18:43:03.562500,-38.31
18:43:03.578125,-43.39
18:43:03.593750,-49.14
18:43:03.609375,-55.14
18:43:03.625000,-60.56
18:43:03.640625,-64.32
18:43:03.656250,-65.24
18:43:03.671875,-62.32
18:43:03.687500,-55.14
18:43:03.703125,-44.08
18:43:03.718750,-30.33
18:43:03.734375,-15.67
18:43:03.750000,-1.95
18:43:03.765625,9.40
18:43:03.781250,17.69
18:43:03.796875,23.00
18:43:03.812500,26.00
18:43:03.828125,27.54
18:43:03.843750,28.32
18:43:03.859375,28.69
18:43:03.875000,28.72
18:43:03.890625,28.27
18:43:03.906250,27.26
18:43:03.921875,25.74
18:43:03.937500,23.88
18:43:03.953125,21.92
18:43:03.968750,20.04
18:43:03.984375,18.27
18:43:04,16.53
18:43:04.015625,14.69
18:43:04.031250,12.70
18:43:04.046875,10.53
18:43:04.062500,8.23
18:43:04.078125,5.84
18:43:04.093750,3.31
18:43:04.109375,0.55
18:43:04.125000,-2.55
18:43:04.140625,-6.14
18:43:04.156250,-10.28
18:43:04.171875,-15.01
18:43:04.187500,-20.27
18:43:04.203125,-25.91
18:43:04.218750,-31.67
18:43:04.234375,-37.19
18:43:04.250000,-42.13
18:43:04.265625,-46.27
18:43:04.281250,-49.61
18:43:04.296875,-52.35
18:43:04.312500,-54.78
18:43:04.328125,-57.07
18:43:04.343750,-59.21
18:43:04.359375,-60.96
18:43:04.375000,-61.95
18:43:04.390625,-61.92
18:43:04.406250,-60.89
18:43:04.421875,-59.22
18:43:04.437500,-57.68
18:43:04.453125,-57.22
18:43:04.468750,-58.68
18:43:04.484375,-62.44
18:43:04.500000,-68.16
18:43:04.515625,-74.70
18:43:04.531250,-80.41
18:43:04.546875,-83.64
18:43:04.562500,-83.42
18:43:04.578125,-79.80
18:43:04.593750,-74.06
18:43:04.609375,-68.30
18:43:04.625000,-64.85
18:43:04.640625,-65.47
18:43:04.656250,-70.65
18:43:04.671875,-79.18
18:43:04.687500,-88.11
18:43:04.703125,-93.18
18:43:04.718750,-89.88
18:43:04.734375,-74.74
18:43:04.750000,-46.57
18:43:04.765625,-6.98
18:43:04.781250,40.03
18:43:04.796875,89.29
18:43:04.812500,136.07
18:43:04.828125,177.26
18:43:04.843750,211.69
18:43:04.859375,239.65
18:43:04.875000,261.96
18:43:04.890625,279.20
18:43:04.906250,291.51
18:43:04.921875,298.88
18:43:04.937500,301.53
18:43:04.953125,300.18
18:43:04.968750,295.85
18:43:04.984375,289.45
18:43:05,281.31
18:43:05.015625,271.08
18:43:05.031250,257.88
18:43:05.046875,240.71
18:43:05.062500,218.89
18:43:05.078125,192.37
18:43:05.093750,161.89
18:43:05.109375,128.79
18:43:05.125000,94.82
18:43:05.140625,61.69
18:43:05.156250,30.87
18:43:05.171875,3.40
18:43:05.187500,-20.02
18:43:05.203125,-38.95
18:43:05.218750,-53.15
18:43:05.234375,-62.55
18:43:05.250000,-67.46
18:43:05.265625,-68.64
18:43:05.281250,-67.27
18:43:05.296875,-64.68
18:43:05.312500,-62.09
18:43:05.328125,-60.27
18:43:05.343750,-59.45
18:43:05.359375,-59.43
18:43:05.375000,-59.76
18:43:05.390625,-60.02
18:43:05.406250,-59.96
18:43:05.421875,-59.48
18:43:05.437500,-58.68
18:43:05.453125,-57.67
18:43:05.468750,-56.63
18:43:05.484375,-55.75
18:43:05.500000,-55.26
18:43:05.515625,-55.38
18:43:05.531250,-56.29
18:43:05.546875,-57.96
18:43:05.562500,-60.20
18:43:05.578125,-62.62
18:43:05.593750,-64.85
18:43:05.609375,-66.71
18:43:05.625000,-68.35
18:43:05.640625,-70.26
18:43:05.656250,-73.16
18:43:05.671875,-77.73
18:43:05.687500,-84.39
18:43:05.703125,-93.05
18:43:05.718750,-102.98
18:43:05.734375,-112.75
18:43:05.750000,-120.42
18:43:05.765625,-123.92
18:43:05.781250,-121.66
18:43:05.796875,-113.07
18:43:05.812500,-98.89
18:43:05.828125,-80.99
18:43:05.843750,-61.81
18:43:05.859375,-43.55
18:43:05.875000,-27.64
18:43:05.890625,-14.50
18:43:05.906250,-3.87
18:43:05.921875,4.75
18:43:05.937500,11.59
18:43:05.953125,16.53
18:43:05.968750,19.24
18:43:05.984375,19.50
18:43:06,17.51
18:43:06.015625,13.99
18:43:06.031250,10.05
18:43:06.046875,6.93
18:43:06.062500,5.71
18:43:06.078125,7.05
18:43:06.093750,11.03
18:43:06.109375,17.16
18:43:06.125000,24.54
18:43:06.140625,32.09
18:43:06.156250,38.81
18:43:06.171875,43.86
18:43:06.187500,46.72
18:43:06.203125,47.06
18:43:06.218750,44.73
18:43:06.234375,39.84
18:43:06.250000,32.78
18:43:06.265625,24.36
18:43:06.281250,15.72
18:43:06.296875,8.09
18:43:06.312500,2.42
18:43:06.328125,-0.91
18:43:06.343750,-2.18
18:43:06.359375,-2.19
18:43:06.375000,-1.84
18:43:06.390625,-1.79
18:43:06.406250,-2.19
18:43:06.421875,-2.82
18:43:06.437500,-3.21
18:43:06.453125,-2.95
18:43:06.468750,-1.83
18:43:06.484375,0.23
18:43:06.500000,3.16
18:43:06.515625,6.86
18:43:06.531250,11.18
18:43:06.546875,15.90
18:43:06.562500,20.70
18:43:06.578125,25.11
18:43:06.593750,28.61
18:43:06.609375,30.69
18:43:06.625000,30.84
18:43:06.640625,28.62
18:43:06.656250,23.70
18:43:06.671875,15.88
18:43:06.687500,5.29
18:43:06.703125,-7.45
18:43:06.718750,-21.13
18:43:06.734375,-34.09
18:43:06.750000,-44.48
18:43:06.765625,-50.85
18:43:06.781250,-52.59
18:43:06.796875,-50.19
18:43:06.812500,-45.15
18:43:06.828125,-39.40
18:43:06.843750,-34.64
18:43:06.859375,-31.81
18:43:06.875000,-30.95
18:43:06.890625,-31.43
18:43:06.906250,-32.55
18:43:06.921875,-33.90
18:43:06.937500,-35.53
18:43:06.953125,-37.67
18:43:06.968750,-40.42
18:43:06.984375,-43.41
18:43:07,-45.85
18:43:07.015625,-46.82
18:43:07.031250,-45.62
18:43:07.046875,-42.05
18:43:07.062500,-36.39
18:43:07.078125,-29.23
18:43:07.093750,-21.22
18:43:07.109375,-12.99
18:43:07.125000,-5.11
18:43:07.140625,1.82
18:43:07.156250,7.13
18:43:07.171875,10.23
18:43:07.187500,10.78
18:43:07.203125,8.88
18:43:07.218750,5.11
18:43:07.234375,0.44
18:43:07.250000,-4.04
18:43:07.265625,-7.39
18:43:07.281250,-8.96
18:43:07.296875,-8.59
18:43:07.312500,-6.55
18:43:07.328125,-3.43
18:43:07.343750,0.03
18:43:07.359375,3.13
18:43:07.375000,5.49
18:43:07.390625,7.10
18:43:07.406250,8.30
18:43:07.421875,9.60
18:43:07.437500,11.48
18:43:07.453125,14.15
18:43:07.468750,17.58
18:43:07.484375,21.53
18:43:07.500000,25.76
18:43:07.515625,30.16
18:43:07.531250,34.78
18:43:07.546875,39.72
18:43:07.562500,44.98
18:43:07.578125,50.21
18:43:07.593750,54.70
18:43:07.609375,57.35
18:43:07.625000,56.92
18:43:07.640625,52.38
18:43:07.656250,43.23
18:43:07.671875,29.90
18:43:07.687500,13.78
18:43:07.703125,-2.86
18:43:07.718750,-17.40
18:43:07.734375,-27.49
18:43:07.750000,-31.63
18:43:07.765625,-29.51
18:43:07.781250,-22.06
18:43:07.796875,-11.15
18:43:07.812500,0.96
18:43:07.828125,12.11
18:43:07.843750,20.74
18:43:07.859375,26.20
18:43:07.875000,28.82
18:43:07.890625,29.59
18:43:07.906250,29.80
18:43:07.921875,30.47
18:43:07.937500,32.00
18:43:07.953125,34.10
18:43:07.968750,36.09
18:43:07.984375,37.30
18:43:08,37.40
18:43:08.015625,36.53
18:43:08.031250,35.15
18:43:08.046875,33.76
18:43:08.062500,32.63
18:43:08.078125,31.84
18:43:08.093750,31.36
18:43:08.109375,31.26
18:43:08.125000,31.76
18:43:08.140625,33.16
18:43:08.156250,35.68
18:43:08.171875,39.31
18:43:08.187500,43.80
18:43:08.203125,48.70
18:43:08.218750,53.57
18:43:08.234375,58.10
18:43:08.250000,62.19
18:43:08.265625,65.86
18:43:08.281250,69.11
18:43:08.296875,71.74
18:43:08.312500,73.42
18:43:08.328125,73.84
18:43:08.343750,72.94
18:43:08.359375,71.10
18:43:08.375000,69.00
18:43:08.390625,67.35
18:43:08.406250,66.58
18:43:08.421875,66.65
18:43:08.437500,67.13
18:43:08.453125,67.45
18:43:08.468750,67.14
18:43:08.484375,65.95
18:43:08.500000,63.72
18:43:08.515625,60.31
18:43:08.531250,55.52
18:43:08.546875,49.18
18:43:08.562500,41.33
18:43:08.578125,32.33
18:43:08.593750,22.75
18:43:08.609375,13.29
18:43:08.625000,4.47
18:43:08.640625,-3.33
18:43:08.656250,-9.82
18:43:08.671875,-14.81
18:43:08.687500,-18.15
18:43:08.703125,-19.84
18:43:08.718750,-20.16
18:43:08.734375,-19.66
18:43:08.750000,-19.08
18:43:08.765625,-19.09
18:43:08.781250,-20.15
18:43:08.796875,-22.42
18:43:08.812500,-25.79
18:43:08.828125,-30.05
18:43:08.843750,-35.02
18:43:08.859375,-40.55
18:43:08.875000,-46.46
18:43:08.890625,-52.44
18:43:08.906250,-57.86
18:43:08.921875,-61.83
18:43:08.937500,-63.30
18:43:08.953125,-61.39
18:43:08.968750,-55.66
18:43:08.984375,-46.44
18:43:09,-34.79
18:43:09.015625,-22.29
18:43:09.031250,-10.51
18:43:09.046875,-0.62
18:43:09.062500,6.92
18:43:09.078125,12.26
18:43:09.093750,15.86
18:43:09.109375,18.09
18:43:09.125000,19.02
18:43:09.140625,18.44
18:43:09.156250,16.09
18:43:09.171875,11.92
18:43:09.187500,6.23
18:43:09.203125,-0.44
18:43:09.218750,-7.52
18:43:09.234375,-14.64
18:43:09.250000,-21.68
18:43:09.265625,-28.61
18:43:09.281250,-35.36
18:43:09.296875,-41.65
18:43:09.312500,-47.11
18:43:09.328125,-51.42
18:43:09.343750,-54.43
18:43:09.359375,-56.31
18:43:09.375000,-57.42
18:43:09.390625,-58.18
18:43:09.406250,-58.92
18:43:09.421875,-59.81
18:43:09.437500,-60.80
18:43:09.453125,-61.67
18:43:09.468750,-62.11
18:43:09.484375,-61.76
18:43:09.500000,-60.35
18:43:09.515625,-57.75
18:43:09.531250,-54.10
18:43:09.546875,-49.79
18:43:09.562500,-45.37
18:43:09.578125,-41.45
18:43:09.593750,-38.51
18:43:09.609375,-36.78
18:43:09.625000,-36.14
18:43:09.640625,-36.23
18:43:09.656250,-36.48
18:43:09.671875,-36.43
18:43:09.687500,-35.84
18:43:09.703125,-34.82
18:43:09.718750,-33.69
18:43:09.734375,-32.85
18:43:09.750000,-32.45
18:43:09.765625,-32.35
18:43:09.781250,-32.11
18:43:09.796875,-31.24
18:43:09.812500,-29.41
18:43:09.828125,-26.68
18:43:09.843750,-23.49
18:43:09.859375,-20.49
18:43:09.875000,-18.36
18:43:09.890625,-17.56
18:43:09.906250,-18.21
18:43:09.921875,-20.10
18:43:09.937500,-22.86
18:43:09.953125,-26.12
18:43:09.968750,-29.68
18:43:09.984375,-33.61
18:43:10,-38.19
18:43:10.015625,-43.76
18:43:10.031250,-50.55
18:43:10.046875,-58.41
18:43:10.062500,-66.66
18:43:10.078125,-74.00
18:43:10.093750,-78.70
18:43:10.109375,-78.99
18:43:10.125000,-73.64
18:43:10.140625,-62.41
18:43:10.156250,-46.28
18:43:10.171875,-27.21
18:43:10.187500,-7.58
18:43:10.203125,10.50
18:43:10.218750,25.68
18:43:10.234375,37.54
18:43:10.250000,46.40
18:43:10.265625,52.92
18:43:10.281250,57.73
18:43:10.296875,61.20
18:43:10.312500,63.49
18:43:10.328125,64.65
18:43:10.343750,64.83
18:43:10.359375,64.24
18:43:10.375000,63.26
18:43:10.390625,62.21
18:43:10.406250,61.29
18:43:10.421875,60.56
18:43:10.437500,59.88
18:43:10.453125,59.10
18:43:10.468750,58.14
18:43:10.484375,57.02
18:43:10.500000,55.85
18:43:10.515625,54.72
18:43:10.531250,53.61
18:43:10.546875,52.31
18:43:10.562500,50.51
18:43:10.578125,47.90
18:43:10.593750,44.35
18:43:10.609375,40.00
18:43:10.625000,35.26
18:43:10.640625,30.66
18:43:10.656250,26.70
18:43:10.671875,23.64
18:43:10.687500,21.40
18:43:10.703125,19.70
18:43:10.718750,18.19
18:43:10.734375,16.64
18:43:10.750000,15.02
18:43:10.765625,13.49
18:43:10.781250,12.20
18:43:10.796875,11.19
18:43:10.812500,10.32
18:43:10.828125,9.33
18:43:10.843750,7.93
18:43:10.859375,6.00
18:43:10.875000,3.63
18:43:10.890625,1.10
18:43:10.906250,-1.23
18:43:10.921875,-3.10
18:43:10.937500,-4.50
18:43:10.953125,-5.71
18:43:10.968750,-7.20
18:43:10.984375,-9.43
18:43:11,-12.65
18:43:11.015625,-16.74
18:43:11.031250,-21.33
18:43:11.046875,-25.87
18:43:11.062500,-29.93
18:43:11.078125,-33.34
18:43:11.093750,-36.28
18:43:11.109375,-39.23
18:43:11.125000,-42.86
18:43:11.140625,-47.84
18:43:11.156250,-54.55
18:43:11.171875,-62.80
18:43:11.187500,-71.63
18:43:11.203125,-79.31
18:43:11.218750,-83.73
18:43:11.234375,-83.01
18:43:11.250000,-76.23
18:43:11.265625,-63.83
18:43:11.281250,-47.66
18:43:11.296875,-30.35
18:43:11.312500,-14.56
18:43:11.328125,-2.22
18:43:11.343750,5.85
18:43:11.359375,9.87
18:43:11.375000,10.71
18:43:11.390625,9.51
18:43:11.406250,7.29
18:43:11.421875,4.89
18:43:11.437500,3.01
18:43:11.453125,2.21
18:43:11.468750,2.93
18:43:11.484375,5.45
18:43:11.500000,9.80
18:43:11.515625,15.77
18:43:11.531250,22.91
18:43:11.546875,30.67
18:43:11.562500,38.49
18:43:11.578125,45.91
18:43:11.593750,52.62
18:43:11.609375,58.42
18:43:11.625000,63.18
18:43:11.640625,66.76
18:43:11.656250,69.02
18:43:11.671875,69.75
18:43:11.687500,68.83
18:43:11.703125,66.26
18:43:11.718750,62.23
18:43:11.734375,57.07
18:43:11.750000,51.20
18:43:11.765625,45.03
18:43:11.781250,38.88
18:43:11.796875,32.99
18:43:11.812500,27.52
18:43:11.828125,22.55
18:43:11.843750,18.00
18:43:11.859375,13.75
18:43:11.875000,9.61
18:43:11.890625,5.43
18:43:11.906250,1.20
18:43:11.921875,-2.90
18:43:11.937500,-6.62
18:43:11.953125,-9.68
18:43:11.968750,-11.95
18:43:11.984375,-13.59
18:43:12,-14.97
18:43:12.015625,-16.60
18:43:12.031250,-18.89
18:43:12.046875,-22.02
18:43:12.062500,-25.88
18:43:12.078125,-30.08
18:43:12.093750,-34.12
18:43:12.109375,-37.53
18:43:12.125000,-40.03
18:43:12.140625,-41.65
18:43:12.156250,-42.72
18:43:12.171875,-43.90
18:43:12.187500,-46.07
18:43:12.203125,-50.06
18:43:12.218750,-56.25
18:43:12.234375,-64.21
18:43:12.250000,-72.53
18:43:12.265625,-78.98
18:43:12.281250,-81.22
18:43:12.296875,-77.57
18:43:12.312500,-67.76
18:43:12.328125,-53.09
18:43:12.343750,-36.00
18:43:12.359375,-19.22
18:43:12.375000,-4.88
18:43:12.390625,6.02
18:43:12.406250,13.69
18:43:12.421875,19.12
18:43:12.437500,23.50
18:43:12.453125,27.79
18:43:12.468750,32.48
18:43:12.484375,37.65
18:43:12.500000,43.08
18:43:12.515625,48.44
18:43:12.531250,53.38
18:43:12.546875,57.59
18:43:12.562500,60.77
18:43:12.578125,62.72
18:43:12.593750,63.35
18:43:12.609375,62.80
18:43:12.625000,61.39
18:43:12.640625,59.63
18:43:12.656250,58.02
18:43:12.671875,56.84
18:43:12.687500,56.03
18:43:12.703125,55.16
18:43:12.718750,53.52
18:43:12.734375,50.47
18:43:12.750000,45.66
18:43:12.765625,39.21
18:43:12.781250,31.64
18:43:12.796875,23.71
18:43:12.812500,16.10
18:43:12.828125,9.24
18:43:12.843750,3.22
18:43:12.859375,-2.05
18:43:12.875000,-6.70
18:43:12.890625,-10.71
18:43:12.906250,-13.93
18:43:12.921875,-16.12
18:43:12.937500,-17.16
18:43:12.953125,-17.11
18:43:12.968750,-16.36
18:43:12.984375,-15.45
18:43:13,-15.05
18:43:13.015625,-15.64
18:43:13.031250,-17.42
18:43:13.046875,-20.25
18:43:13.062500,-23.77
18:43:13.078125,-27.54
18:43:13.093750,-31.31
18:43:13.109375,-35.06
18:43:13.125000,-39.05
18:43:13.140625,-43.61
18:43:13.156250,-48.98
18:43:13.171875,-55.15
18:43:13.187500,-61.82
18:43:13.203125,-68.54
18:43:13.218750,-74.85
18:43:13.234375,-80.47
18:43:13.250000,-85.47
18:43:13.265625,-90.26
18:43:13.281250,-95.61
18:43:13.296875,-102.43
18:43:13.312500,-111.45
18:43:13.328125,-122.76
18:43:13.343750,-135.39
18:43:13.359375,-147.22
18:43:13.375000,-155.38
18:43:13.390625,-157.11
18:43:13.406250,-150.81
18:43:13.421875,-136.86
18:43:13.437500,-117.70
18:43:13.453125,-97.19
18:43:13.468750,-79.39
18:43:13.484375,-67.30
18:43:13.500000,-62.03
18:43:13.515625,-62.69
18:43:13.531250,-66.73
18:43:13.546875,-70.59
18:43:13.562500,-70.50
18:43:13.578125,-63.21
18:43:13.593750,-46.77
18:43:13.609375,-20.98
18:43:13.625000,12.47
18:43:13.640625,50.46
18:43:13.656250,89.31
18:43:13.671875,125.79
18:43:13.687500,157.73
18:43:13.703125,184.19
18:43:13.718750,205.07
18:43:13.734375,220.67
18:43:13.750000,231.37
18:43:13.765625,237.71
18:43:13.781250,240.52
18:43:13.796875,241.02
18:43:13.812500,240.57
18:43:13.828125,240.27
18:43:13.843750,240.43
18:43:13.859375,240.41
18:43:13.875000,238.74
18:43:13.890625,233.45
18:43:13.906250,222.66
18:43:13.921875,205.10
18:43:13.937500,180.46
18:43:13.953125,149.54
18:43:13.968750,114.04
18:43:13.984375,76.17
18:43:14,38.17
18:43:14.015625,1.91
18:43:14.031250,-31.32
18:43:14.046875,-60.70
18:43:14.062500,-85.72
18:43:14.078125,-105.93
18:43:14.093750,-120.97
18:43:14.109375,-130.71
18:43:14.125000,-135.48
18:43:14.140625,-136.22
18:43:14.156250,-134.33
18:43:14.171875,-131.33
18:43:14.187500,-128.47
18:43:14.203125,-126.33
18:43:14.218750,-124.83
18:43:14.234375,-123.39
18:43:14.250000,-121.37
18:43:14.265625,-118.33
18:43:14.281250,-114.30
18:43:14.296875,-109.71
18:43:14.312500,-105.19
18:43:14.328125,-101.42
18:43:14.343750,-98.99
18:43:14.359375,-98.21
18:43:14.375000,-99.09
18:43:14.390625,-101.14
18:43:14.406250,-103.22
18:43:14.421875,-103.66
18:43:14.437500,-100.56
18:43:14.453125,-92.34
18:43:14.468750,-78.38
18:43:14.484375,-59.33
18:43:14.500000,-37.04
18:43:14.515625,-14.00
18:43:14.531250,7.37
18:43:14.546875,25.39
18:43:14.562500,39.41
18:43:14.578125,49.67
18:43:14.593750,56.97
18:43:14.609375,62.19
18:43:14.625000,65.98
18:43:14.640625,68.63
18:43:14.656250,70.16
18:43:14.671875,70.49
18:43:14.687500,69.60
18:43:14.703125,67.66
18:43:14.718750,65.07
18:43:14.734375,62.38
18:43:14.750000,60.27
18:43:14.765625,59.32
18:43:14.781250,59.96
18:43:14.796875,62.27
18:43:14.812500,65.97
18:43:14.828125,70.47
18:43:14.843750,74.97
18:43:14.859375,78.65
18:43:14.875000,80.86
18:43:14.890625,81.23
18:43:14.906250,79.67
18:43:14.921875,76.35
18:43:14.937500,71.64
18:43:14.953125,66.00
18:43:14.968750,59.87
18:43:14.984375,53.65
18:43:15,47.55
18:43:15.015625,41.59
18:43:15.031250,35.64
18:43:15.046875,29.55
18:43:15.062500,23.34
18:43:15.078125,17.15
18:43:15.093750,11.25
18:43:15.109375,5.80
18:43:15.125000,0.77
18:43:15.140625,-4.12
18:43:15.156250,-9.20
18:43:15.171875,-14.66
18:43:15.187500,-20.37
18:43:15.203125,-25.98
18:43:15.218750,-31.05
18:43:15.234375,-35.37
18:43:15.250000,-39.09
18:43:15.265625,-42.60
18:43:15.281250,-46.32
18:43:15.296875,-50.41
18:43:15.312500,-54.66
18:43:15.328125,-58.55
18:43:15.343750,-61.52
18:43:15.359375,-63.15
18:43:15.375000,-63.28
18:43:15.390625,-62.07
18:43:15.406250,-59.91
18:43:15.421875,-57.44
18:43:15.437500,-55.43
18:43:15.453125,-54.58
18:43:15.468750,-55.18
18:43:15.484375,-56.79
18:43:15.500000,-58.06
18:43:15.515625,-56.98
18:43:15.531250,-51.56
18:43:15.546875,-40.65
18:43:15.562500,-24.46
18:43:15.578125,-4.63
18:43:15.593750,16.29
18:43:15.609375,35.70
18:43:15.625000,51.71
18:43:15.640625,63.53
18:43:15.656250,71.31
18:43:15.671875,75.68
18:43:15.687500,77.21
18:43:15.703125,76.07
18:43:15.718750,72.15
18:43:15.734375,65.27
18:43:15.750000,55.67
18:43:15.765625,44.19
18:43:15.781250,32.14
18:43:15.796875,21.01
18:43:15.812500,11.92
18:43:15.828125,5.38
18:43:15.843750,1.23
18:43:15.859375,-1.05
18:43:15.875000,-2.03
18:43:15.890625,-2.00
18:43:15.906250,-1.11
18:43:15.921875,0.54
18:43:15.937500,2.59
18:43:15.953125,4.45
18:43:15.968750,5.40
18:43:15.984375,4.98
18:43:16,3.08
18:43:16.015625,0.08
18:43:16.031250,-3.42
18:43:16.046875,-6.77
18:43:16.062500,-9.51
18:43:16.078125,-11.44
18:43:16.093750,-12.53
18:43:16.109375,-12.95
18:43:16.125000,-12.89
18:43:16.140625,-12.59
18:43:16.156250,-12.26
18:43:16.171875,-12.01
18:43:16.187500,-11.84
18:43:16.203125,-11.65
18:43:16.218750,-11.28
18:43:16.234375,-10.62
18:43:16.250000,-9.68
18:43:16.265625,-8.57
18:43:16.281250,-7.51
18:43:16.296875,-6.78
18:43:16.312500,-6.62
18:43:16.328125,-7.18
18:43:16.343750,-8.47
18:43:16.359375,-10.34
18:43:16.375000,-12.51
18:43:16.390625,-14.67
18:43:16.406250,-16.64
18:43:16.421875,-18.43
18:43:16.437500,-20.21
18:43:16.453125,-22.29
18:43:16.468750,-24.91
18:43:16.484375,-28.17
18:43:16.500000,-31.90
18:43:16.515625,-35.79
18:43:16.531250,-39.48
18:43:16.546875,-42.72
18:43:16.562500,-45.50
18:43:16.578125,-48.06
18:43:16.593750,-50.88
18:43:16.609375,-54.52
18:43:16.625000,-59.53
18:43:16.640625,-66.14
18:43:16.656250,-74.05
18:43:16.671875,-82.21
18:43:16.687500,-88.85
18:43:16.703125,-91.85
18:43:16.718750,-89.28
18:43:16.734375,-80.16
18:43:16.750000,-64.92
18:43:16.765625,-45.39
18:43:16.781250,-24.27
18:43:16.796875,-4.32
18:43:16.812500,12.42
18:43:16.828125,25.05
18:43:16.843750,33.78
18:43:16.859375,39.50
18:43:16.875000,43.31
18:43:16.890625,46.08
18:43:16.906250,48.34
18:43:16.921875,50.30
18:43:16.937500,52.02
18:43:16.953125,53.47
18:43:16.968750,54.67
18:43:16.984375,55.68
18:43:17,56.60
18:43:17.015625,57.50
18:43:17.031250,58.45
18:43:17.046875,59.42
18:43:17.062500,60.40
18:43:17.078125,61.36
18:43:17.093750,62.29
18:43:17.109375,63.13
18:43:17.125000,63.76
18:43:17.140625,63.93
18:43:17.156250,63.30
18:43:17.171875,61.58
18:43:17.187500,58.59
18:43:17.203125,54.46
18:43:17.218750,49.57
18:43:17.234375,44.45
18:43:17.250000,39.67
18:43:17.265625,35.55
18:43:17.281250,32.13
18:43:17.296875,29.22
18:43:17.312500,26.52
18:43:17.328125,23.82
18:43:17.343750,21.12
18:43:17.359375,18.59
18:43:17.375000,16.46
18:43:17.390625,14.88
18:43:17.406250,13.80
18:43:17.421875,12.98
18:43:17.437500,12.11
18:43:17.453125,10.95
18:43:17.468750,9.43
18:43:17.484375,7.65
18:43:17.500000,5.79
18:43:17.515625,3.98
18:43:17.531250,2.26
18:43:17.546875,0.49
18:43:17.562500,-1.48
18:43:17.578125,-3.84
18:43:17.593750,-6.61
18:43:17.609375,-9.69
18:43:17.625000,-12.83
18:43:17.640625,-15.78
18:43:17.656250,-18.37
18:43:17.671875,-20.66
18:43:17.687500,-22.91
18:43:17.703125,-25.48
18:43:17.718750,-28.71
18:43:17.734375,-32.66
18:43:17.750000,-37.13
18:43:17.765625,-41.66
18:43:17.781250,-45.75
18:43:17.796875,-49.08
18:43:17.812500,-51.59
18:43:17.828125,-53.54
18:43:17.843750,-55.44
18:43:17.859375,-57.94
18:43:17.875000,-61.71
18:43:17.890625,-67.17
18:43:17.906250,-74.26
18:43:17.921875,-82.13
18:43:17.937500,-89.12
18:43:17.953125,-92.96
18:43:17.968750,-91.49
18:43:17.984375,-83.46
18:43:18,-69.08
18:43:18.015625,-50.13
18:43:18.031250,-29.43
18:43:18.046875,-9.91
18:43:18.062500,6.29
18:43:18.078125,18.27
18:43:18.093750,26.35
18:43:18.109375,31.58
18:43:18.125000,35.14
18:43:18.140625,37.91
18:43:18.156250,40.24
18:43:18.171875,42.14
18:43:18.187500,43.48
18:43:18.203125,44.20
18:43:18.218750,44.40
18:43:18.234375,44.31
18:43:18.250000,44.20
18:43:18.265625,44.26
18:43:18.281250,44.57
18:43:18.296875,45.07
18:43:18.312500,45.67
18:43:18.328125,46.33
18:43:18.343750,47.06
18:43:18.359375,47.88
18:43:18.375000,48.70
18:43:18.390625,49.25
18:43:18.406250,49.10
18:43:18.421875,47.79
18:43:18.437500,45.10
18:43:18.453125,41.18
18:43:18.468750,36.55
18:43:18.484375,31.93
18:43:18.500000,27.96
18:43:18.515625,24.95
18:43:18.531250,22.77
18:43:18.546875,21.00
18:43:18.562500,19.14
18:43:18.578125,16.85
18:43:18.593750,14.11
18:43:18.609375,11.16
18:43:18.625000,8.35
18:43:18.640625,5.96
18:43:18.656250,4.08
18:43:18.671875,2.64
18:43:18.687500,1.46
18:43:18.703125,0.39
18:43:18.718750,-0.63
18:43:18.734375,-1.57
18:43:18.750000,-2.42
18:43:18.765625,-3.18
18:43:18.781250,-4.02
18:43:18.796875,-5.15
18:43:18.812500,-6.81
18:43:18.828125,-9.08
18:43:18.843750,-11.88
18:43:18.859375,-14.92
18:43:18.875000,-17.82
18:43:18.890625,-20.28
18:43:18.906250,-22.22
18:43:18.921875,-23.90
18:43:18.937500,-25.74
18:43:18.953125,-28.21
18:43:18.968750,-31.59
18:43:18.984375,-35.79
18:43:19,-40.43
18:43:19.015625,-44.97
18:43:19.031250,-48.94
18:43:19.046875,-52.13
18:43:19.062500,-54.66
18:43:19.078125,-56.96
18:43:19.093750,-59.66
18:43:19.109375,-63.42
18:43:19.125000,-68.64
18:43:19.140625,-75.16
18:43:19.156250,-82.09
18:43:19.171875,-87.75
18:43:19.187500,-90.02
18:43:19.203125,-87.06
18:43:19.218750,-77.98
18:43:19.234375,-63.32
18:43:19.250000,-44.99
18:43:19.265625,-25.66
18:43:19.281250,-7.94
18:43:19.296875,6.40
18:43:19.312500,16.72
18:43:19.328125,23.42
18:43:19.343750,27.47
18:43:19.359375,29.94
18:43:19.375000,31.65
18:43:19.390625,33.06
18:43:19.406250,34.34
18:43:19.421875,35.45
18:43:19.437500,36.33
18:43:19.453125,36.99
18:43:19.468750,37.52
18:43:19.484375,38.08
18:43:19.500000,38.86
18:43:19.515625,39.99
18:43:19.531250,41.47
18:43:19.546875,43.24
18:43:19.562500,45.15
18:43:19.578125,47.02
18:43:19.593750,48.69
18:43:19.609375,49.97
18:43:19.625000,50.66
18:43:19.640625,50.59
18:43:19.656250,49.56
18:43:19.671875,47.51
18:43:19.687500,44.50
18:43:19.703125,40.79
18:43:19.718750,36.77
18:43:19.734375,32.89
18:43:19.750000,29.50
18:43:19.765625,26.75
18:43:19.781250,24.52
18:43:19.796875,22.51
18:43:19.812500,20.41
18:43:19.828125,18.09
18:43:19.843750,15.59
18:43:19.859375,13.21
18:43:19.875000,11.27
18:43:19.890625,9.99
18:43:19.906250,9.38
18:43:19.921875,9.19
18:43:19.937500,9.03
18:43:19.953125,8.50
18:43:19.968750,7.34
18:43:19.984375,5.49
18:43:20,3.10
18:43:20.015625,0.43
18:43:20.031250,-2.25
18:43:20.046875,-4.74
18:43:20.062500,-6.99
18:43:20.078125,-9.06
18:43:20.093750,-11.12
18:43:20.109375,-13.38
18:43:20.125000,-16.01
18:43:20.140625,-19.12
18:43:20.156250,-22.73
18:43:20.171875,-26.68
18:43:20.187500,-30.69
18:43:20.203125,-34.48
18:43:20.218750,-37.83
18:43:20.234375,-40.73
18:43:20.250000,-43.43
18:43:20.265625,-46.41
18:43:20.281250,-50.23
18:43:20.296875,-55.40
18:43:20.312500,-62.10
18:43:20.328125,-69.89
18:43:20.343750,-77.64
18:43:20.359375,-83.55
18:43:20.375000,-85.62
18:43:20.390625,-82.26
