17:38:07,-0.00
17:38:07.015625,-0.00
17:38:07.031250,-0.00
17:38:07.046875,-0.00
17:38:07.062500,-0.00
17:38:07.078125,-0.00
17:38:07.093750,-0.00
17:38:07.109375,-0.00
17:38:07.125000,-0.00
17:38:07.140625,-0.00
17:38:07.156250,0.00
17:38:07.171875,0.01
17:38:07.187500,0.01
17:38:07.203125,-0.00
17:38:07.218750,-0.03
17:38:07.234375,-0.05
17:38:07.250000,-0.05
17:38:07.265625,0.00
17:38:07.281250,0.13
17:38:07.296875,0.36
17:38:07.312500,0.66
17:38:07.328125,1.01
17:38:07.343750,1.37
17:38:07.359375,1.72
17:38:07.375000,2.06
17:38:07.390625,2.40
17:38:07.406250,2.79
17:38:07.421875,3.24
17:38:07.437500,3.80
17:38:07.453125,4.42
17:38:07.468750,5.06
17:38:07.484375,5.66
17:38:07.500000,6.20
17:38:07.515625,6.68
17:38:07.531250,7.15
17:38:07.546875,7.68
17:38:07.562500,8.31
17:38:07.578125,9.14
17:38:07.593750,10.09
17:38:07.609375,11.04
17:38:07.625000,11.88
17:38:07.640625,12.56
17:38:07.656250,13.14
17:38:07.671875,13.76
17:38:07.687500,14.65
17:38:07.703125,15.96
17:38:07.718750,17.91
17:38:07.734375,20.32
17:38:07.750000,22.90
17:38:07.765625,25.38
17:38:07.781250,27.58
17:38:07.796875,29.57
17:38:07.812500,31.68
17:38:07.828125,34.32
17:38:07.843750,37.81
17:38:07.859375,42.54
17:38:07.875000,48.15
17:38:07.890625,54.10
17:38:07.906250,59.83
17:38:07.921875,64.97
17:38:07.937500,69.58
17:38:07.953125,74.14
17:38:07.968750,79.34
17:38:07.984375,85.71
17:38:08,93.76
17:38:08.015625,103.00
17:38:08.031250,112.62
17:38:08.046875,121.73
17:38:08.062500,129.77
17:38:08.078125,136.75
17:38:08.093750,143.30
17:38:08.109375,150.75
17:38:08.125000,157.77
17:38:08.140625,166.64
17:38:08.156250,177.95
17:38:08.171875,191.79
17:38:08.187500,206.97
17:38:08.203125,220.57
17:38:08.218750,228.25
17:38:08.234375,225.36
17:38:08.250000,208.53
17:38:08.265625,176.87
17:38:08.281250,132.76
17:38:08.296875,80.05
17:38:08.312500,23.07
17:38:08.328125,-34.94
17:38:08.343750,-92.44
17:38:08.359375,-149.16
17:38:08.375000,-205.23
17:38:08.390625,-260.37
17:38:08.406250,-313.74
17:38:08.421875,-363.87
17:38:08.437500,-409.83
17:38:08.453125,-450.91
17:38:08.468750,-486.50
17:38:08.484375,-515.74
17:38:08.500000,-537.23
17:38:08.515625,-549.22
17:38:08.531250,-549.96
17:38:08.546875,-538.37
17:38:08.562500,-514.20
17:38:08.578125,-478.67
17:38:08.593750,-433.88
17:38:08.609375,-382.45
17:38:08.625000,-327.02
17:38:08.640625,-269.85
17:38:08.656250,-212.64
17:38:08.671875,-156.66
17:38:08.687500,-102.94
17:38:08.703125,-52.35
17:38:08.718750,-5.87
17:38:08.734375,35.61
17:38:08.750000,71.42
17:38:08.765625,101.29
17:38:08.781250,125.36
17:38:08.796875,144.14
17:38:08.812500,158.37
17:38:08.828125,168.77
17:38:08.843750,175.95
17:38:08.859375,180.31
17:38:08.875000,182.12
17:38:08.890625,181.60
17:38:08.906250,179.00
17:38:08.921875,174.68
17:38:08.937500,169.04
17:38:08.953125,162.51
17:38:08.968750,155.45
17:38:08.984375,148.10
17:38:09,140.58
17:38:09.015625,132.95
17:38:09.031250,125.21
17:38:09.046875,117.40
17:38:09.062500,109.57
17:38:09.078125,101.85
17:38:09.093750,94.35
17:38:09.109375,87.14
17:38:09.125000,80.27
17:38:09.140625,73.70
17:38:09.156250,67.36
17:38:09.171875,61.18
17:38:09.187500,55.13
17:38:09.203125,49.26
17:38:09.218750,43.64
17:38:09.234375,38.42
17:38:09.250000,33.68
17:38:09.265625,29.41
17:38:09.281250,25.53
17:38:09.296875,21.87
17:38:09.312500,18.26
17:38:09.328125,14.63
17:38:09.343750,11.00
17:38:09.359375,7.52
17:38:09.375000,4.42
17:38:09.390625,1.82
17:38:09.406250,-0.23
17:38:09.421875,-1.88
17:38:09.437500,-3.39
17:38:09.453125,-5.01
17:38:09.468750,-6.89
17:38:09.484375,-9.01
17:38:09.500000,-11.16
17:38:09.515625,-13.11
17:38:09.531250,-14.65
17:38:09.546875,-15.73
17:38:09.562500,-16.42
17:38:09.578125,-16.88
17:38:09.593750,-17.32
17:38:09.609375,-18.07
17:38:09.625000,-19.49
17:38:09.640625,-21.95
17:38:09.656250,-25.41
17:38:09.671875,-29.10
17:38:09.687500,-31.51
17:38:09.703125,-30.83
17:38:09.718750,-25.75
17:38:09.734375,-16.09
17:38:09.750000,-2.95
17:38:09.765625,11.65
17:38:09.781250,25.58
17:38:09.796875,37.11
17:38:09.812500,45.28
17:38:09.828125,49.72
17:38:09.843750,50.44
17:38:09.859375,47.74
17:38:09.875000,42.29
17:38:09.890625,35.19
17:38:09.906250,27.88
17:38:09.921875,21.73
17:38:09.937500,17.64
17:38:09.953125,15.80
17:38:09.968750,15.72
17:38:09.984375,16.57
17:38:10,17.53
17:38:10.015625,17.94
17:38:10.031250,17.41
17:38:10.046875,15.83
17:38:10.062500,13.37
17:38:10.078125,10.43
17:38:10.093750,7.52
17:38:10.109375,5.04
17:38:10.125000,3.28
17:38:10.140625,2.26
17:38:10.156250,1.81
17:38:10.171875,1.72
17:38:10.187500,1.81
17:38:10.203125,1.95
17:38:10.218750,2.09
17:38:10.234375,2.16
17:38:10.250000,2.14
17:38:10.265625,1.98
17:38:10.281250,1.69
17:38:10.296875,1.24
17:38:10.312500,0.70
17:38:10.328125,0.18
17:38:10.343750,-0.17
17:38:10.359375,-0.14
17:38:10.375000,0.41
17:38:10.390625,1.51
17:38:10.406250,3.08
17:38:10.421875,4.88
17:38:10.437500,6.56
17:38:10.453125,7.89
17:38:10.468750,8.80
17:38:10.484375,9.40
17:38:10.500000,9.98
17:38:10.515625,10.77
17:38:10.531250,11.88
17:38:10.546875,13.23
17:38:10.562500,14.57
17:38:10.578125,15.67
17:38:10.593750,16.35
17:38:10.609375,16.51
17:38:10.625000,16.10
17:38:10.640625,15.07
17:38:10.656250,13.41
17:38:10.671875,11.18
17:38:10.687500,8.57
17:38:10.703125,5.93
17:38:10.718750,3.44
17:38:10.734375,1.24
17:38:10.750000,-0.71
17:38:10.765625,-2.58
17:38:10.781250,-4.57
17:38:10.796875,-6.83
17:38:10.812500,-9.34
17:38:10.828125,-11.96
17:38:10.843750,-14.47
17:38:10.859375,-16.58
17:38:10.875000,-18.07
17:38:10.890625,-18.75
17:38:10.906250,-18.60
17:38:10.921875,-17.71
17:38:10.937500,-16.35
17:38:10.953125,-14.80
17:38:10.968750,-13.32
17:38:10.984375,-12.10
17:38:11,-11.22
17:38:11.015625,-10.67
17:38:11.031250,-10.40
17:38:11.046875,-10.32
17:38:11.062500,-10.33
17:38:11.078125,-10.26
17:38:11.093750,-10.00
17:38:11.109375,-9.43
17:38:11.125000,-8.57
17:38:11.140625,-7.56
17:38:11.156250,-6.56
17:38:11.171875,-5.78
17:38:11.187500,-5.35
17:38:11.203125,-5.28
17:38:11.218750,-5.46
17:38:11.234375,-5.73
17:38:11.250000,-5.86
17:38:11.265625,-5.66
17:38:11.281250,-5.03
17:38:11.296875,-3.90
17:38:11.312500,-2.35
17:38:11.328125,-0.56
17:38:11.343750,1.24
17:38:11.359375,2.78
17:38:11.375000,3.87
17:38:11.390625,4.45
17:38:11.406250,4.56
17:38:11.421875,4.37
17:38:11.437500,4.08
17:38:11.453125,3.79
17:38:11.468750,3.50
17:38:11.484375,3.13
17:38:11.500000,2.58
17:38:11.515625,1.83
17:38:11.531250,0.99
17:38:11.546875,0.24
17:38:11.562500,-0.25
17:38:11.578125,-0.39
17:38:11.593750,-0.19
17:38:11.609375,0.24
17:38:11.625000,0.78
17:38:11.640625,1.35
17:38:11.656250,1.92
17:38:11.671875,2.52
17:38:11.687500,3.17
17:38:11.703125,3.78
17:38:11.718750,4.24
17:38:11.734375,4.43
17:38:11.750000,4.20
17:38:11.765625,3.54
17:38:11.781250,2.51
17:38:11.796875,1.29
17:38:11.812500,0.16
17:38:11.828125,-0.63
17:38:11.843750,-0.92
17:38:11.859375,-0.72
17:38:11.875000,-0.20
17:38:11.890625,0.32
17:38:11.906250,0.56
17:38:11.921875,0.30
17:38:11.937500,-0.53
17:38:11.953125,-1.80
17:38:11.968750,-3.29
17:38:11.984375,-4.74
17:38:12,-5.90
17:38:12.015625,-6.64
17:38:12.031250,-6.91
17:38:12.046875,-6.76
17:38:12.062500,-6.29
17:38:12.078125,-5.71
17:38:12.093750,-5.26
17:38:12.109375,-5.23
17:38:12.125000,-5.84
17:38:12.140625,-7.16
17:38:12.156250,-9.08
17:38:12.171875,-11.26
17:38:12.187500,-13.30
17:38:12.203125,-14.84
17:38:12.218750,-15.71
17:38:12.234375,-15.93
17:38:12.250000,-15.60
17:38:12.265625,-14.83
17:38:12.281250,-13.61
17:38:12.296875,-11.89
17:38:12.312500,-9.59
17:38:12.328125,-6.74
17:38:12.343750,-3.45
17:38:12.359375,0.07
17:38:12.375000,3.58
17:38:12.390625,6.85
17:38:12.406250,9.64
17:38:12.421875,11.75
17:38:12.437500,13.05
17:38:12.453125,13.47
17:38:12.468750,13.07
17:38:12.484375,12.03
17:38:12.500000,10.64
17:38:12.515625,9.23
17:38:12.531250,8.13
17:38:12.546875,7.60
17:38:12.562500,7.84
17:38:12.578125,8.86
17:38:12.593750,10.48
17:38:12.609375,12.42
17:38:12.625000,14.25
17:38:12.640625,15.62
17:38:12.656250,16.32
17:38:12.671875,16.38
17:38:12.687500,15.98
17:38:12.703125,15.38
17:38:12.718750,14.76
17:38:12.734375,14.19
17:38:12.750000,13.64
17:38:12.765625,13.01
17:38:12.781250,12.23
17:38:12.796875,11.29
17:38:12.812500,10.20
17:38:12.828125,8.99
17:38:12.843750,7.65
17:38:12.859375,6.16
17:38:12.875000,4.53
17:38:12.890625,2.89
17:38:12.906250,1.44
17:38:12.921875,0.44
17:38:12.937500,0.07
17:38:12.953125,0.33
17:38:12.968750,1.02
17:38:12.984375,1.79
17:38:13,2.27
17:38:13.015625,2.19
17:38:13.031250,1.47
17:38:13.046875,0.23
17:38:13.062500,-1.34
17:38:13.078125,-3.05
17:38:13.093750,-4.79
17:38:13.109375,-6.51
17:38:13.125000,-8.17
17:38:13.140625,-9.73
17:38:13.156250,-11.05
17:38:13.171875,-11.96
17:38:13.187500,-12.24
17:38:13.203125,-11.75
17:38:13.218750,-10.45
17:38:13.234375,-8.48
17:38:13.250000,-6.04
17:38:13.265625,-3.45
17:38:13.281250,-0.93
17:38:13.296875,1.38
17:38:13.312500,3.47
17:38:13.328125,5.40
17:38:13.343750,7.17
17:38:13.359375,8.66
17:38:13.375000,9.66
17:38:13.390625,9.90
17:38:13.406250,9.28
17:38:13.421875,7.95
17:38:13.437500,6.33
17:38:13.453125,4.94
17:38:13.468750,4.28
17:38:13.484375,4.56
17:38:13.500000,5.65
17:38:13.515625,7.17
17:38:13.531250,8.58
17:38:13.546875,9.40
17:38:13.562500,9.38
17:38:13.578125,8.55
17:38:13.593750,7.18
17:38:13.609375,5.66
17:38:13.625000,4.34
17:38:13.640625,3.46
17:38:13.656250,3.05
17:38:13.671875,3.03
17:38:13.687500,3.24
17:38:13.703125,3.46
17:38:13.718750,3.48
17:38:13.734375,3.08
17:38:13.750000,2.09
17:38:13.765625,0.51
17:38:13.781250,-1.51
17:38:13.796875,-3.64
17:38:13.812500,-5.50
17:38:13.828125,-6.82
17:38:13.843750,-7.57
17:38:13.859375,-7.90
17:38:13.875000,-8.05
17:38:13.890625,-8.21
17:38:13.906250,-8.43
17:38:13.921875,-8.66
17:38:13.937500,-8.88
17:38:13.953125,-9.17
17:38:13.968750,-9.67
17:38:13.984375,-10.53
17:38:14,-11.78
17:38:14.015625,-13.31
17:38:14.031250,-14.96
17:38:14.046875,-16.61
17:38:14.062500,-18.21
17:38:14.078125,-19.71
17:38:14.093750,-21.03
17:38:14.109375,-21.90
17:38:14.125000,-21.96
17:38:14.140625,-20.83
17:38:14.156250,-18.33
17:38:14.171875,-14.57
17:38:14.187500,-9.99
17:38:14.203125,-5.23
17:38:14.218750,-0.90
17:38:14.234375,2.55
17:38:14.250000,4.88
17:38:14.265625,6.13
17:38:14.281250,6.46
17:38:14.296875,6.13
17:38:14.312500,5.41
17:38:14.328125,4.59
17:38:14.343750,3.94
17:38:14.359375,3.71
17:38:14.375000,4.03
17:38:14.390625,4.96
17:38:14.406250,6.36
17:38:14.421875,8.01
17:38:14.437500,9.60
17:38:14.453125,10.85
17:38:14.468750,11.54
17:38:14.484375,11.58
17:38:14.500000,10.97
17:38:14.515625,9.86
17:38:14.531250,8.45
17:38:14.546875,6.95
17:38:14.562500,5.54
17:38:14.578125,4.34
17:38:14.593750,3.36
17:38:14.609375,2.63
17:38:14.625000,2.09
17:38:14.640625,1.71
17:38:14.656250,1.46
17:38:14.671875,1.25
17:38:14.687500,1.04
17:38:14.703125,0.74
17:38:14.718750,0.33
17:38:14.734375,-0.22
17:38:14.750000,-0.92
17:38:14.765625,-1.82
17:38:14.781250,-2.95
17:38:14.796875,-4.36
17:38:14.812500,-6.01
17:38:14.828125,-7.79
17:38:14.843750,-9.55
17:38:14.859375,-11.12
17:38:14.875000,-12.40
17:38:14.890625,-13.36
17:38:14.906250,-14.09
17:38:14.921875,-14.74
17:38:14.937500,-15.51
17:38:14.953125,-16.61
17:38:14.968750,-18.15
17:38:14.984375,-20.10
17:38:15,-22.20
17:38:15.015625,-24.01
17:38:15.031250,-25.03
17:38:15.046875,-24.85
17:38:15.062500,-23.36
17:38:15.078125,-20.74
17:38:15.093750,-17.44
17:38:15.109375,-13.91
17:38:15.125000,-10.54
17:38:15.140625,-7.47
17:38:15.156250,-4.69
17:38:15.171875,-2.14
17:38:15.187500,0.21
17:38:15.203125,2.23
17:38:15.218750,3.73
17:38:15.234375,4.54
17:38:15.250000,4.64
17:38:15.265625,4.14
17:38:15.281250,3.34
17:38:15.296875,2.55
17:38:15.312500,2.01
17:38:15.328125,1.82
17:38:15.343750,1.95
17:38:15.359375,2.27
17:38:15.375000,2.71
17:38:15.390625,3.16
17:38:15.406250,3.53
17:38:15.421875,3.65
17:38:15.437500,3.39
17:38:15.453125,2.66
17:38:15.468750,1.55
17:38:15.484375,0.33
17:38:15.500000,-0.67
17:38:15.515625,-1.23
17:38:15.531250,-1.31
17:38:15.546875,-1.09
17:38:15.562500,-0.88
17:38:15.578125,-0.93
17:38:15.593750,-1.36
17:38:15.609375,-2.18
17:38:15.625000,-3.27
17:38:15.640625,-4.51
17:38:15.656250,-5.77
17:38:15.671875,-6.89
17:38:15.687500,-7.72
17:38:15.703125,-8.11
17:38:15.718750,-8.06
17:38:15.734375,-7.71
17:38:15.750000,-7.40
17:38:15.765625,-7.53
17:38:15.781250,-8.40
17:38:15.796875,-10.11
17:38:15.812500,-12.48
17:38:15.828125,-15.17
17:38:15.843750,-17.72
17:38:15.859375,-19.85
17:38:15.875000,-21.51
17:38:15.890625,-22.90
17:38:15.906250,-24.35
17:38:15.921875,-26.15
17:38:15.937500,-28.34
17:38:15.953125,-30.69
17:38:15.968750,-32.69
17:38:15.984375,-33.80
17:38:16,-33.56
17:38:16.015625,-31.74
17:38:16.031250,-28.33
17:38:16.046875,-23.52
17:38:16.062500,-17.64
17:38:16.078125,-11.03
17:38:16.093750,-4.05
17:38:16.109375,2.94
17:38:16.125000,9.54
17:38:16.140625,15.37
17:38:16.156250,20.05
17:38:16.171875,23.38
17:38:16.187500,25.33
17:38:16.203125,26.13
17:38:16.218750,26.16
17:38:16.234375,25.89
17:38:16.250000,25.71
17:38:16.265625,25.81
17:38:16.281250,26.17
17:38:16.296875,26.60
17:38:16.312500,26.84
17:38:16.328125,26.75
17:38:16.343750,26.35
17:38:16.359375,25.82
17:38:16.375000,25.38
17:38:16.390625,25.15
17:38:16.406250,25.07
17:38:16.421875,24.91
17:38:16.437500,24.38
17:38:16.453125,23.28
17:38:16.468750,21.66
17:38:16.484375,19.78
17:38:16.500000,18.01
17:38:16.515625,16.67
17:38:16.531250,15.85
17:38:16.546875,15.41
17:38:16.562500,15.05
17:38:16.578125,14.51
17:38:16.593750,13.64
17:38:16.609375,12.43
17:38:16.625000,10.96
17:38:16.640625,9.33
17:38:16.656250,7.58
17:38:16.671875,5.69
17:38:16.687500,3.64
17:38:16.703125,1.72
17:38:16.718750,0.22
17:38:16.734375,-0.69
17:38:16.750000,-1.02
17:38:16.765625,-1.00
17:38:16.781250,-0.86
17:38:16.796875,-0.87
17:38:16.812500,-1.27
17:38:16.828125,-2.22
17:38:16.843750,-3.57
17:38:16.859375,-5.14
17:38:16.875000,-6.75
17:38:16.890625,-8.31
17:38:16.906250,-9.70
17:38:16.921875,-10.75
17:38:16.937500,-11.46
17:38:16.953125,-12.04
17:38:16.968750,-12.96
17:38:16.984375,-14.28
17:38:17,-15.97
17:38:17.015625,-17.95
17:38:17.031250,-20.06
17:38:17.046875,-21.88
17:38:17.062500,-22.87
17:38:17.078125,-22.71
17:38:17.093750,-21.67
17:38:17.109375,-20.62
17:38:17.125000,-19.47
17:38:17.140625,-18.27
17:38:17.156250,-17.40
17:38:17.171875,-17.19
17:38:17.187500,-17.25
17:38:17.203125,-16.30
17:38:17.218750,-13.46
17:38:17.234375,-9.47
17:38:17.250000,-7.14
17:38:17.265625,-8.35
17:38:17.281250,-16.14
17:38:17.296875,-34.93
17:38:17.312500,-69.06
17:38:17.328125,-119.61
17:38:17.343750,-182.14
17:38:17.359375,-247.14
17:38:17.375000,-302.40
17:38:17.390625,-336.47
17:38:17.406250,-338.08
17:38:17.421875,-303.58
17:38:17.437500,-239.29
17:38:17.453125,-158.99
17:38:17.468750,-76.89
17:38:17.484375,-1.84
17:38:17.500000,63.80
17:38:17.515625,122.28
17:38:17.531250,177.67
17:38:17.546875,239.11
17:38:17.562500,313.08
17:38:17.578125,399.66
17:38:17.593750,492.29
17:38:17.609375,581.38
17:38:17.625000,657.62
17:38:17.640625,713.10
17:38:17.656250,742.42
17:38:17.671875,710.97
17:38:17.687500,604.46
17:38:17.703125,441.22
17:38:17.718750,264.15
17:38:17.734375,111.17
17:38:17.750000,-2.56
17:38:17.765625,-80.12
17:38:17.781250,-131.31
17:38:17.796875,-165.06
17:38:17.812500,-187.21
17:38:17.828125,-196.11
17:38:17.843750,-190.88
17:38:17.859375,-175.36
17:38:17.875000,-157.59
17:38:17.890625,-144.75
17:38:17.906250,-139.63
17:38:17.921875,-141.11
17:38:17.937500,-146.07
17:38:17.953125,-151.70
17:38:17.968750,-152.27
17:38:17.984375,-144.43
17:38:18,-129.44
17:38:18.015625,-112.28
17:38:18.031250,-97.97
17:38:18.046875,-88.76
17:38:18.062500,-84.45
17:38:18.078125,-83.30
17:38:18.093750,-83.52
17:38:18.109375,-81.22
17:38:18.125000,-73.85
17:38:18.140625,-61.85
17:38:18.156250,-48.32
17:38:18.171875,-36.86
17:38:18.187500,-29.75
17:38:18.203125,-28.00
17:38:18.218750,-31.15
17:38:18.234375,-38.15
17:38:18.250000,-46.52
17:38:18.265625,-53.45
17:38:18.281250,-57.81
17:38:18.296875,-60.03
17:38:18.312500,-61.37
17:38:18.328125,-63.00
17:38:18.343750,-66.07
17:38:18.359375,-71.06
17:38:18.375000,-78.59
17:38:18.390625,-88.67
17:38:18.406250,-100.90
17:38:18.421875,-113.91
17:38:18.437500,-124.76
17:38:18.453125,-128.79
17:38:18.468750,-119.23
17:38:18.484375,-95.05
17:38:18.500000,-59.08
17:38:18.515625,-18.43
17:38:18.531250,18.12
17:38:18.546875,43.75
17:38:18.562500,56.21
17:38:18.578125,58.08
17:38:18.593750,55.22
17:38:18.609375,53.20
17:38:18.625000,54.23
17:38:18.640625,57.85
17:38:18.656250,61.16
17:38:18.671875,61.73
17:38:18.687500,59.12
17:38:18.703125,54.75
17:38:18.718750,50.66
17:38:18.734375,49.40
17:38:18.750000,52.95
17:38:18.765625,61.71
17:38:18.781250,74.86
17:38:18.796875,89.74
17:38:18.812500,101.92
17:38:18.828125,105.94
17:38:18.843750,96.69
17:38:18.859375,70.91
17:38:18.875000,29.91
17:38:18.890625,-20.65
17:38:18.906250,-72.72
17:38:18.921875,-117.55
17:38:18.937500,-148.05
17:38:18.953125,-160.26
17:38:18.968750,-153.77
17:38:18.984375,-128.70
17:38:19,-93.18
17:38:19.015625,-55.78
17:38:19.031250,-22.72
17:38:19.046875,2.40
17:38:19.062500,18.38
17:38:19.078125,25.87
17:38:19.093750,26.53
17:38:19.109375,22.86
17:38:19.125000,17.31
17:38:19.140625,12.15
17:38:19.156250,10.99
17:38:19.171875,16.68
17:38:19.187500,30.10
17:38:19.203125,49.58
17:38:19.218750,72.36
17:38:19.234375,95.55
17:38:19.250000,116.55
17:38:19.265625,131.77
17:38:19.281250,136.84
17:38:19.296875,125.67
17:38:19.312500,99.93
17:38:19.328125,67.33
17:38:19.343750,38.58
17:38:19.359375,24.94
17:38:19.375000,30.68
17:38:19.390625,54.07
17:38:19.406250,87.53
17:38:19.421875,121.60
17:38:19.437500,149.83
17:38:19.453125,171.90
17:38:19.468750,191.55
17:38:19.484375,211.15
17:38:19.500000,229.53
17:38:19.515625,241.56
17:38:19.531250,240.67
17:38:19.546875,222.60
17:38:19.562500,188.59
17:38:19.578125,145.06
17:38:19.593750,99.05
17:38:19.609375,63.44
17:38:19.625000,43.57
17:38:19.640625,35.30
17:38:19.656250,31.51
17:38:19.671875,26.07
17:38:19.687500,15.31
17:38:19.703125,2.74
17:38:19.718750,-7.97
17:38:19.734375,-14.02
17:38:19.750000,-15.56
17:38:19.765625,-16.87
17:38:19.781250,-22.56
17:38:19.796875,-34.28
17:38:19.812500,-48.77
17:38:19.828125,-59.10
17:38:19.843750,-58.00
17:38:19.859375,-42.62
17:38:19.875000,-15.59
17:38:19.890625,16.29
17:38:19.906250,44.53
17:38:19.921875,63.86
17:38:19.937500,73.94
17:38:19.953125,78.31
17:38:19.968750,81.36
17:38:19.984375,85.60
17:38:20,90.17
17:38:20.015625,92.72
17:38:20.031250,91.62
17:38:20.046875,86.75
17:38:20.062500,80.06
17:38:20.078125,73.53
17:38:20.093750,68.64
17:38:20.109375,65.77
17:38:20.125000,64.17
17:38:20.140625,62.12
17:38:20.156250,58.24
17:38:20.171875,52.29
17:38:20.187500,44.84
17:38:20.203125,37.08
17:38:20.218750,27.59
17:38:20.234375,15.59
17:38:20.250000,1.63
17:38:20.265625,-12.77
17:38:20.281250,-26.59
17:38:20.296875,-39.49
17:38:20.312500,-51.32
17:38:20.328125,-62.12
17:38:20.343750,-72.14
17:38:20.359375,-87.24
17:38:20.375000,-111.01
17:38:20.390625,-142.77
17:38:20.406250,-178.68
17:38:20.421875,-215.04
17:38:20.437500,-249.76
17:38:20.453125,-281.98
17:38:20.468750,-311.58
17:38:20.484375,-338.89
17:38:20.500000,-372.94
17:38:20.515625,-418.71
17:38:20.531250,-474.33
17:38:20.546875,-533.69
17:38:20.562500,-592.08
17:38:20.578125,-648.10
17:38:20.593750,-701.57
17:38:20.609375,-751.06
17:38:20.625000,-792.72
17:38:20.640625,-832.02
17:38:20.656250,-869.49
17:38:20.671875,-899.08
17:38:20.687500,-912.60
17:38:20.703125,-906.61
17:38:20.718750,-883.55
17:38:20.734375,-848.35
17:38:20.750000,-805.23
17:38:20.765625,-690.47
17:38:20.781250,-487.35
17:38:20.796875,-231.90
17:38:20.812500,13.76
17:38:20.828125,207.06
17:38:20.843750,338.32
17:38:20.859375,417.60
17:38:20.875000,460.42
17:38:20.890625,480.44
17:38:20.906250,487.96
17:38:20.921875,478.89
17:38:20.937500,452.04
17:38:20.953125,413.67
17:38:20.968750,375.20
17:38:20.984375,344.46
17:38:21,323.61
17:38:21.015625,311.03
17:38:21.031250,304.05
17:38:21.046875,301.32
17:38:21.062500,294.13
17:38:21.078125,278.62
17:38:21.093750,257.99
17:38:21.109375,239.23
17:38:21.125000,227.26
17:38:21.140625,223.25
17:38:21.156250,226.68
17:38:21.171875,232.82
17:38:21.187500,240.37
17:38:21.203125,244.61
17:38:21.218750,244.66
17:38:21.234375,244.47
17:38:21.250000,250.64
17:38:21.265625,267.91
17:38:21.281250,296.59
17:38:21.296875,332.11
17:38:21.312500,365.88
17:38:21.328125,388.17
17:38:21.343750,387.98
17:38:21.359375,360.40
17:38:21.375000,309.37
17:38:21.390625,245.94
17:38:21.406250,182.94
17:38:21.421875,129.90
17:38:21.437500,90.47
17:38:21.453125,62.74
17:38:21.468750,42.63
17:38:21.484375,25.56
17:38:21.500000,9.85
17:38:21.515625,-3.18
17:38:21.531250,-11.36
17:38:21.546875,-14.23
17:38:21.562500,-13.89
17:38:21.578125,-13.78
17:38:21.593750,-16.72
17:38:21.609375,-23.16
17:38:21.625000,-31.50
17:38:21.640625,-39.08
17:38:21.656250,-43.80
17:38:21.671875,-45.10
17:38:21.687500,-44.12
17:38:21.703125,-42.89
17:38:21.718750,-43.15
17:38:21.734375,-45.55
17:38:21.750000,-49.22
17:38:21.765625,-52.51
17:38:21.781250,-53.81
17:38:21.796875,-52.27
17:38:21.812500,-48.09
17:38:21.828125,-42.24
17:38:21.843750,-36.00
17:38:21.859375,-30.31
17:38:21.875000,-25.53
17:38:21.890625,-21.36
17:38:21.906250,-17.14
17:38:21.921875,-12.31
17:38:21.937500,-6.71
17:38:21.953125,-0.80
17:38:21.968750,4.52
17:38:21.984375,8.19
17:38:22,9.46
17:38:22.015625,8.18
17:38:22.031250,4.94
17:38:22.046875,0.80
17:38:22.062500,-3.04
17:38:22.078125,-5.80
17:38:22.093750,-7.23
17:38:22.109375,-7.69
17:38:22.125000,-7.75
17:38:22.140625,-7.95
17:38:22.156250,-8.58
17:38:22.171875,-9.68
17:38:22.187500,-11.19
17:38:22.203125,-13.04
17:38:22.218750,-15.23
17:38:22.234375,-17.67
17:38:22.250000,-20.11
17:38:22.265625,-22.14
17:38:22.281250,-23.32
17:38:22.296875,-23.31
17:38:22.312500,-22.01
17:38:22.328125,-19.55
17:38:22.343750,-16.27
17:38:22.359375,-12.58
17:38:22.375000,-8.92
17:38:22.390625,-5.65
17:38:22.406250,-3.02
17:38:22.421875,-1.09
17:38:22.437500,0.29
17:38:22.453125,1.45
17:38:22.468750,2.73
17:38:22.484375,4.40
17:38:22.500000,6.49
17:38:22.515625,8.96
17:38:22.531250,11.81
17:38:22.546875,15.17
17:38:22.562500,19.31
17:38:22.578125,24.43
17:38:22.593750,30.41
17:38:22.609375,36.72
17:38:22.625000,42.46
17:38:22.640625,46.73
17:38:22.656250,48.90
17:38:22.671875,48.84
17:38:22.687500,46.93
17:38:22.703125,43.77
17:38:22.718750,39.89
17:38:22.734375,35.61
17:38:22.750000,30.95
17:38:22.765625,25.77
17:38:22.781250,20.00
17:38:22.796875,13.67
17:38:22.812500,7.00
17:38:22.828125,0.29
17:38:22.843750,-6.17
17:38:22.859375,-12.21
17:38:22.875000,-17.82
17:38:22.890625,-23.06
17:38:22.906250,-28.06
17:38:22.921875,-32.82
17:38:22.937500,-37.24
17:38:22.953125,-41.06
17:38:22.968750,-43.94
17:38:22.984375,-45.66
17:38:23,-46.15
17:38:23.015625,-45.53
17:38:23.031250,-44.04
17:38:23.046875,-41.87
17:38:23.062500,-39.09
17:38:23.078125,-35.57
17:38:23.093750,-31.13
17:38:23.109375,-25.69
17:38:23.125000,-19.35
17:38:23.140625,-12.40
17:38:23.156250,-5.24
17:38:23.171875,1.71
17:38:23.187500,8.14
17:38:23.203125,13.82
17:38:23.218750,18.56
17:38:23.234375,22.19
17:38:23.250000,24.54
17:38:23.265625,25.49
17:38:23.281250,25.05
17:38:23.296875,23.42
17:38:23.312500,20.93
17:38:23.328125,18.05
17:38:23.343750,15.25
17:38:23.359375,12.89
17:38:23.375000,11.20
17:38:23.390625,10.19
17:38:23.406250,9.73
17:38:23.421875,9.55
17:38:23.437500,9.40
17:38:23.453125,9.10
17:38:23.468750,8.63
17:38:23.484375,8.09
17:38:23.500000,7.65
17:38:23.515625,7.45
17:38:23.531250,7.55
17:38:23.546875,7.87
17:38:23.562500,8.24
17:38:23.578125,8.44
17:38:23.593750,8.35
17:38:23.609375,7.97
17:38:23.625000,7.46
17:38:23.640625,7.05
17:38:23.656250,6.94
17:38:23.671875,7.18
17:38:23.687500,7.61
17:38:23.703125,7.88
17:38:23.718750,7.58
17:38:23.734375,6.41
17:38:23.750000,4.27
17:38:23.765625,1.29
17:38:23.781250,-2.24
17:38:23.796875,-5.95
17:38:23.812500,-9.44
17:38:23.828125,-12.29
17:38:23.843750,-14.11
17:38:23.859375,-14.58
17:38:23.875000,-13.57
17:38:23.890625,-11.22
17:38:23.906250,-7.95
17:38:23.921875,-4.32
17:38:23.937500,-0.84
17:38:23.953125,2.15
17:38:23.968750,4.57
17:38:23.984375,6.50
17:38:24,8.04
17:38:24.015625,9.16
17:38:24.031250,9.76
17:38:24.046875,9.66
17:38:24.062500,8.77
17:38:24.078125,7.16
17:38:24.093750,5.11
17:38:24.109375,3.02
17:38:24.125000,1.32
17:38:24.140625,0.30
17:38:24.156250,0.06
17:38:24.171875,0.40
17:38:24.187500,1.01
17:38:24.203125,1.56
17:38:24.218750,1.84
17:38:24.234375,1.82
17:38:24.250000,1.62
17:38:24.265625,1.40
17:38:24.281250,1.23
17:38:24.296875,1.05
17:38:24.312500,0.72
17:38:24.328125,0.07
17:38:24.343750,-0.96
17:38:24.359375,-2.34
17:38:24.375000,-3.91
17:38:24.390625,-5.47
17:38:24.406250,-6.83
17:38:24.421875,-7.90
17:38:24.437500,-8.67
17:38:24.453125,-9.29
17:38:24.468750,-9.96
17:38:24.484375,-10.93
17:38:24.500000,-12.36
17:38:24.515625,-14.30
17:38:24.531250,-16.66
17:38:24.546875,-19.20
17:38:24.562500,-21.56
17:38:24.578125,-23.31
17:38:24.593750,-24.01
17:38:24.609375,-23.33
17:38:24.625000,-21.16
17:38:24.640625,-17.67
17:38:24.656250,-13.31
17:38:24.671875,-8.64
17:38:24.687500,-4.08
17:38:24.703125,0.27
17:38:24.718750,4.64
17:38:24.734375,9.37
17:38:24.750000,14.60
17:38:24.765625,20.02
17:38:24.781250,24.90
17:38:24.796875,28.44
17:38:24.812500,30.16
17:38:24.828125,30.25
17:38:24.843750,29.56
17:38:24.859375,29.28
17:38:24.875000,30.37
17:38:24.890625,33.20
17:38:24.906250,37.36
17:38:24.921875,41.93
17:38:24.937500,45.80
17:38:24.953125,48.15
17:38:24.968750,48.62
17:38:24.984375,47.27
17:38:25,44.43
17:38:25.015625,40.42
17:38:25.031250,35.41
17:38:25.046875,29.42
17:38:25.062500,22.50
17:38:25.078125,14.91
17:38:25.093750,7.14
17:38:25.109375,-0.12
17:38:25.125000,-6.30
17:38:25.140625,-11.21
17:38:25.156250,-15.18
17:38:25.171875,-18.91
17:38:25.187500,-23.07
17:38:25.203125,-27.92
17:38:25.218750,-33.14
17:38:25.234375,-38.08
17:38:25.250000,-42.18
17:38:25.265625,-45.32
17:38:25.281250,-47.85
17:38:25.296875,-50.25
17:38:25.312500,-52.66
17:38:25.328125,-54.76
17:38:25.343750,-55.79
17:38:25.359375,-55.10
17:38:25.375000,-52.47
17:38:25.390625,-48.21
17:38:25.406250,-42.98
17:38:25.421875,-37.38
17:38:25.437500,-31.73
17:38:25.453125,-26.04
17:38:25.468750,-20.21
17:38:25.484375,-14.26
17:38:25.500000,-8.35
17:38:25.515625,-2.72
17:38:25.531250,2.45
17:38:25.546875,7.10
17:38:25.562500,11.26
17:38:25.578125,14.94
17:38:25.593750,18.13
17:38:25.609375,20.82
17:38:25.625000,23.03
17:38:25.640625,24.84
17:38:25.656250,26.36
17:38:25.671875,27.64
17:38:25.687500,28.71
17:38:25.703125,29.58
17:38:25.718750,30.25
17:38:25.734375,30.67
17:38:25.750000,30.83
17:38:25.765625,30.65
17:38:25.781250,30.04
17:38:25.796875,28.98
17:38:25.812500,27.55
17:38:25.828125,25.91
17:38:25.843750,24.23
17:38:25.859375,22.69
17:38:25.875000,21.33
17:38:25.890625,20.10
17:38:25.906250,18.87
17:38:25.921875,17.49
17:38:25.937500,15.84
17:38:25.953125,13.83
17:38:25.968750,11.46
17:38:25.984375,8.78
17:38:26,5.92
17:38:26.015625,3.03
17:38:26.031250,0.23
17:38:26.046875,-2.43
17:38:26.062500,-4.99
17:38:26.078125,-7.51
17:38:26.093750,-9.98
17:38:26.109375,-12.22
17:38:26.125000,-13.90
17:38:26.140625,-14.61
17:38:26.156250,-14.09
17:38:26.171875,-12.29
17:38:26.187500,-9.47
17:38:26.203125,-6.07
17:38:26.218750,-2.57
17:38:26.234375,0.64
17:38:26.250000,3.38
17:38:26.265625,5.59
17:38:26.281250,7.33
17:38:26.296875,8.62
17:38:26.312500,9.50
17:38:26.328125,9.98
17:38:26.343750,10.07
17:38:26.359375,9.86
17:38:26.375000,9.43
17:38:26.390625,8.88
17:38:26.406250,8.29
17:38:26.421875,7.73
17:38:26.437500,7.27
17:38:26.453125,6.96
17:38:26.468750,6.85
17:38:26.484375,6.97
17:38:26.500000,7.28
17:38:26.515625,7.68
17:38:26.531250,8.04
17:38:26.546875,8.20
17:38:26.562500,8.01
17:38:26.578125,7.36
17:38:26.593750,6.23
17:38:26.609375,4.73
17:38:26.625000,3.05
17:38:26.640625,1.45
17:38:26.656250,0.09
17:38:26.671875,-0.97
17:38:26.687500,-1.86
17:38:26.703125,-2.78
17:38:26.718750,-3.89
17:38:26.734375,-5.27
17:38:26.750000,-6.80
17:38:26.765625,-8.32
17:38:26.781250,-9.68
17:38:26.796875,-10.84
17:38:26.812500,-11.88
17:38:26.828125,-12.95
17:38:26.843750,-14.18
17:38:26.859375,-15.64
17:38:26.875000,-17.22
17:38:26.890625,-18.72
17:38:26.906250,-19.83
17:38:26.921875,-20.18
17:38:26.937500,-19.50
17:38:26.953125,-17.64
17:38:26.968750,-14.69
17:38:26.984375,-10.93
17:38:27,-6.75
17:38:27.015625,-2.57
17:38:27.031250,1.33
17:38:27.046875,4.79
17:38:27.062500,7.78
17:38:27.078125,10.28
17:38:27.093750,12.22
17:38:27.109375,13.47
17:38:27.125000,13.91
17:38:27.140625,13.55
17:38:27.156250,12.56
17:38:27.171875,11.26
17:38:27.187500,10.07
17:38:27.203125,9.32
17:38:27.218750,9.16
17:38:27.234375,9.52
17:38:27.250000,10.16
17:38:27.265625,10.79
17:38:27.281250,11.20
17:38:27.296875,11.30
17:38:27.312500,11.10
17:38:27.328125,10.62
17:38:27.343750,9.84
17:38:27.359375,8.73
17:38:27.375000,7.26
17:38:27.390625,5.50
17:38:27.406250,3.65
17:38:27.421875,1.94
17:38:27.437500,0.55
17:38:27.453125,-0.52
17:38:27.468750,-1.40
17:38:27.484375,-2.32
17:38:27.500000,-3.44
17:38:27.515625,-4.81
17:38:27.531250,-6.29
17:38:27.546875,-7.65
17:38:27.562500,-8.73
17:38:27.578125,-9.45
17:38:27.593750,-9.91
17:38:27.609375,-10.27
17:38:27.625000,-10.71
17:38:27.640625,-11.33
17:38:27.656250,-12.15
17:38:27.671875,-13.14
17:38:27.687500,-14.23
17:38:27.703125,-15.32
17:38:27.718750,-16.28
17:38:27.734375,-16.93
17:38:27.750000,-17.02
17:38:27.765625,-16.32
17:38:27.781250,-14.69
17:38:27.796875,-12.19
17:38:27.812500,-9.07
17:38:27.828125,-5.71
17:38:27.843750,-2.53
17:38:27.859375,0.17
17:38:27.875000,2.27
17:38:27.890625,3.73
17:38:27.906250,4.67
17:38:27.921875,5.17
17:38:27.937500,5.31
17:38:27.953125,5.16
17:38:27.968750,4.85
17:38:27.984375,4.50
17:38:28,4.27
17:38:28.015625,4.24
17:38:28.031250,4.42
17:38:28.046875,4.75
17:38:28.062500,5.13
17:38:28.078125,5.53
17:38:28.093750,5.94
17:38:28.109375,6.35
17:38:28.125000,6.73
17:38:28.140625,6.99
17:38:28.156250,6.97
17:38:28.171875,6.55
17:38:28.187500,5.69
17:38:28.203125,4.41
17:38:28.218750,2.85
17:38:28.234375,1.21
17:38:28.250000,-0.32
17:38:28.265625,-1.56
17:38:28.281250,-2.37
17:38:28.296875,-2.69
17:38:28.312500,-2.55
17:38:28.328125,-2.06
17:38:28.343750,-1.36
17:38:28.359375,-0.59
17:38:28.375000,0.15
17:38:28.390625,0.81
17:38:28.406250,1.42
17:38:28.421875,1.96
17:38:28.437500,2.39
17:38:28.453125,2.58
17:38:28.468750,2.33
17:38:28.484375,1.49
17:38:28.500000,-0.06
17:38:28.515625,-2.24
17:38:28.531250,-4.81
17:38:28.546875,-7.41
17:38:28.562500,-9.59
17:38:28.578125,-10.97
17:38:28.593750,-11.31
17:38:28.609375,-10.50
17:38:28.625000,-8.52
17:38:28.640625,-5.43
17:38:28.656250,-1.34
17:38:28.671875,3.55
17:38:28.687500,8.89
17:38:28.703125,14.23
17:38:28.718750,19.01
17:38:28.734375,22.73
17:38:28.750000,24.98
17:38:28.765625,25.47
17:38:28.781250,24.08
17:38:28.796875,20.80
17:38:28.812500,15.79
17:38:28.828125,9.31
17:38:28.843750,1.84
17:38:28.859375,-6.06
17:38:28.875000,-13.79
17:38:28.890625,-20.83
17:38:28.906250,-26.84
17:38:28.921875,-31.71
17:38:28.937500,-35.55
17:38:28.953125,-38.61
17:38:28.968750,-41.15
17:38:28.984375,-43.33
17:38:29,-45.13
17:38:29.015625,-46.36
17:38:29.031250,-46.70
17:38:29.046875,-45.91
17:38:29.062500,-43.92
17:38:29.078125,-40.86
17:38:29.093750,-36.94
17:38:29.109375,-32.38
17:38:29.125000,-27.28
17:38:29.140625,-21.62
17:38:29.156250,-15.38
17:38:29.171875,-8.51
17:38:29.187500,-1.08
17:38:29.203125,6.80
17:38:29.218750,14.87
17:38:29.234375,22.80
17:38:29.250000,30.16
17:38:29.265625,36.47
17:38:29.281250,41.31
17:38:29.296875,44.45
17:38:29.312500,45.85
17:38:29.328125,45.67
17:38:29.343750,44.16
17:38:29.359375,41.58
17:38:29.375000,38.11
17:38:29.390625,33.90
17:38:29.406250,29.07
17:38:29.421875,23.79
17:38:29.437500,18.28
17:38:29.453125,12.74
17:38:29.468750,7.44
17:38:29.484375,2.69
17:38:29.500000,-1.22
17:38:29.515625,-4.02
17:38:29.531250,-5.62
17:38:29.546875,-6.08
17:38:29.562500,-5.63
17:38:29.578125,-4.57
17:38:29.593750,-3.21
17:38:29.609375,-1.78
17:38:29.625000,-0.42
17:38:29.640625,0.75
17:38:29.656250,1.66
17:38:29.671875,2.21
17:38:29.687500,2.31
17:38:29.703125,1.83
17:38:29.718750,0.71
17:38:29.734375,-1.08
17:38:29.750000,-3.40
17:38:29.765625,-6.00
17:38:29.781250,-8.45
17:38:29.796875,-10.33
17:38:29.812500,-11.29
17:38:29.828125,-11.18
17:38:29.843750,-10.17
17:38:29.859375,-8.59
17:38:29.875000,-6.88
17:38:29.890625,-5.36
17:38:29.906250,-4.14
17:38:29.921875,-3.13
17:38:29.937500,-2.08
17:38:29.953125,-0.77
17:38:29.968750,0.86
17:38:29.984375,2.64
17:38:30,4.23
17:38:30.015625,5.24
17:38:30.031250,5.35
17:38:30.046875,4.47
17:38:30.062500,2.75
17:38:30.078125,0.52
17:38:30.093750,-1.79
17:38:30.109375,-3.77
17:38:30.125000,-5.13
17:38:30.140625,-5.78
17:38:30.156250,-5.77
17:38:30.171875,-5.37
17:38:30.187500,-4.93
17:38:30.203125,-4.81
17:38:30.218750,-5.31
17:38:30.234375,-6.54
17:38:30.250000,-8.47
17:38:30.265625,-10.93
17:38:30.281250,-13.76
17:38:30.296875,-16.85
17:38:30.312500,-20.25
17:38:30.328125,-24.03
17:38:30.343750,-28.31
17:38:30.359375,-33.00
17:38:30.375000,-37.80
17:38:30.390625,-42.16
17:38:30.406250,-45.39
17:38:30.421875,-46.78
17:38:30.437500,-45.84
17:38:30.453125,-42.39
17:38:30.468750,-36.68
17:38:30.484375,-29.31
17:38:30.500000,-21.07
17:38:30.515625,-12.68
17:38:30.531250,-4.65
17:38:30.546875,2.91
17:38:30.562500,10.17
17:38:30.578125,17.40
17:38:30.593750,24.76
17:38:30.609375,32.08
17:38:30.625000,38.96
17:38:30.640625,44.77
17:38:30.656250,48.97
17:38:30.671875,51.24
17:38:30.687500,51.55
17:38:30.703125,50.12
17:38:30.718750,47.31
17:38:30.734375,43.59
17:38:30.750000,39.40
17:38:30.765625,35.19
17:38:30.781250,31.26
17:38:30.796875,27.82
17:38:30.812500,24.90
17:38:30.828125,22.36
17:38:30.843750,19.94
17:38:30.859375,17.36
17:38:30.875000,14.38
17:38:30.890625,10.87
17:38:30.906250,6.85
17:38:30.921875,2.44
17:38:30.937500,-2.11
17:38:30.953125,-6.53
17:38:30.968750,-10.56
17:38:30.984375,-14.01
17:38:31,-16.81
17:38:31.015625,-18.95
17:38:31.031250,-20.46
17:38:31.046875,-21.28
17:38:31.062500,-21.35
17:38:31.078125,-20.57
17:38:31.093750,-18.98
17:38:31.109375,-16.78
17:38:31.125000,-14.30
17:38:31.140625,-11.97
17:38:31.156250,-10.11
17:38:31.171875,-8.87
17:38:31.187500,-8.20
17:38:31.203125,-7.93
17:38:31.218750,-7.85
17:38:31.234375,-7.87
17:38:31.250000,-8.08
17:38:31.265625,-8.70
17:38:31.281250,-9.96
17:38:31.296875,-11.98
17:38:31.312500,-14.61
17:38:31.328125,-17.46
17:38:31.343750,-19.92
17:38:31.359375,-21.41
17:38:31.375000,-21.52
17:38:31.390625,-20.18
17:38:31.406250,-17.67
17:38:31.421875,-14.49
17:38:31.437500,-11.15
17:38:31.453125,-8.00
17:38:31.468750,-5.18
17:38:31.484375,-2.62
17:38:31.500000,-0.18
17:38:31.515625,2.19
17:38:31.531250,4.42
17:38:31.546875,6.33
17:38:31.562500,7.77
17:38:31.578125,8.70
17:38:31.593750,9.24
17:38:31.609375,9.62
17:38:31.625000,10.02
17:38:31.640625,10.56
17:38:31.656250,11.18
17:38:31.671875,11.75
17:38:31.687500,12.12
17:38:31.703125,12.21
17:38:31.718750,12.02
17:38:31.734375,11.59
17:38:31.750000,11.02
17:38:31.765625,10.37
17:38:31.781250,9.67
17:38:31.796875,8.95
17:38:31.812500,8.23
17:38:31.828125,7.52
17:38:31.843750,6.87
17:38:31.859375,6.35
17:38:31.875000,5.99
17:38:31.890625,5.81
17:38:31.906250,5.72
17:38:31.921875,5.60
17:38:31.937500,5.34
17:38:31.953125,4.87
17:38:31.968750,4.29
17:38:31.984375,3.69
17:38:32,3.16
17:38:32.015625,2.61
17:38:32.031250,1.85
17:38:32.046875,0.63
17:38:32.062500,-1.14
17:38:32.078125,-3.32
17:38:32.093750,-5.55
17:38:32.109375,-7.44
17:38:32.125000,-8.71
17:38:32.140625,-9.36
17:38:32.156250,-9.60
17:38:32.171875,-9.74
17:38:32.187500,-10.05
17:38:32.203125,-10.68
17:38:32.218750,-11.66
17:38:32.234375,-12.98
17:38:32.250000,-14.55
17:38:32.265625,-16.20
17:38:32.281250,-17.65
17:38:32.296875,-18.51
17:38:32.312500,-18.46
17:38:32.328125,-17.31
17:38:32.343750,-15.25
17:38:32.359375,-12.69
17:38:32.375000,-10.17
17:38:32.390625,-8.08
17:38:32.406250,-6.55
17:38:32.421875,-5.43
17:38:32.437500,-4.36
17:38:32.453125,-3.06
17:38:32.468750,-1.43
17:38:32.484375,0.40
17:38:32.500000,2.11
17:38:32.515625,3.37
17:38:32.531250,3.96
17:38:32.546875,3.88
17:38:32.562500,3.35
17:38:32.578125,2.66
17:38:32.593750,2.11
17:38:32.609375,1.91
17:38:32.625000,2.09
17:38:32.640625,2.57
17:38:32.656250,3.24
17:38:32.671875,3.99
17:38:32.687500,4.76
17:38:32.703125,5.50
17:38:32.718750,6.14
17:38:32.734375,6.59
17:38:32.750000,6.74
17:38:32.765625,6.54
17:38:32.781250,5.98
17:38:32.796875,5.17
17:38:32.812500,4.25
17:38:32.828125,3.38
17:38:32.843750,2.62
17:38:32.859375,1.94
17:38:32.875000,1.19
17:38:32.890625,0.25
17:38:32.906250,-0.97
17:38:32.921875,-2.41
17:38:32.937500,-3.86
17:38:32.953125,-5.05
17:38:32.968750,-5.77
17:38:32.984375,-5.96
17:38:33,-5.81
17:38:33.015625,-5.62
17:38:33.031250,-5.75
17:38:33.046875,-6.37
17:38:33.062500,-7.44
17:38:33.078125,-8.74
17:38:33.093750,-9.99
17:38:33.109375,-11.02
17:38:33.125000,-11.83
17:38:33.140625,-12.59
17:38:33.156250,-13.54
17:38:33.171875,-14.84
17:38:33.187500,-16.46
17:38:33.203125,-18.18
17:38:33.218750,-19.65
17:38:33.234375,-20.48
17:38:33.250000,-20.37
17:38:33.265625,-19.17
17:38:33.281250,-16.88
17:38:33.296875,-13.68
17:38:33.312500,-9.85
17:38:33.328125,-5.76
17:38:33.343750,-1.73
17:38:33.359375,1.96
17:38:33.375000,5.15
17:38:33.390625,7.75
17:38:33.406250,9.74
17:38:33.421875,11.10
17:38:33.437500,11.84
17:38:33.453125,12.06
17:38:33.468750,11.89
17:38:33.484375,11.60
17:38:33.500000,11.42
17:38:33.515625,11.57
17:38:33.531250,12.11
17:38:33.546875,13.02
17:38:33.562500,14.15
17:38:33.578125,15.35
17:38:33.593750,16.44
17:38:33.609375,17.29
17:38:33.625000,17.80
17:38:33.640625,17.94
17:38:33.656250,17.76
17:38:33.671875,17.35
17:38:33.687500,16.85
17:38:33.703125,16.36
17:38:33.718750,15.89
17:38:33.734375,15.38
17:38:33.750000,14.77
17:38:33.765625,14.05
17:38:33.781250,13.33
17:38:33.796875,12.75
17:38:33.812500,12.45
17:38:33.828125,12.43
17:38:33.843750,12.59
17:38:33.859375,12.73
17:38:33.875000,12.70
17:38:33.890625,12.43
17:38:33.906250,12.05
17:38:33.921875,11.73
17:38:33.937500,11.60
17:38:33.953125,11.72
17:38:33.968750,11.99
17:38:33.984375,12.23
17:38:34,12.27
17:38:34.015625,12.00
17:38:34.031250,11.38
17:38:34.046875,10.42
17:38:34.062500,9.18
17:38:34.078125,7.67
17:38:34.093750,5.94
17:38:34.109375,3.98
17:38:34.125000,1.84
17:38:34.140625,-0.37
17:38:34.156250,-2.45
17:38:34.171875,-4.11
17:38:34.187500,-5.05
17:38:34.203125,-5.02
17:38:34.218750,-3.99
17:38:34.234375,-2.15
17:38:34.250000,0.11
17:38:34.265625,2.37
17:38:34.281250,4.30
17:38:34.296875,5.75
17:38:34.312500,6.75
17:38:34.328125,7.39
17:38:34.343750,7.76
17:38:34.359375,7.89
17:38:34.375000,7.78
17:38:34.390625,7.43
17:38:34.406250,6.91
17:38:34.421875,6.33
17:38:34.437500,5.79
17:38:34.453125,5.38
17:38:34.468750,5.10
17:38:34.484375,4.93
17:38:34.500000,4.84
17:38:34.515625,4.83
17:38:34.531250,4.88
17:38:34.546875,4.99
17:38:34.562500,5.11
17:38:34.578125,5.19
17:38:34.593750,5.13
17:38:34.609375,4.84
17:38:34.625000,4.22
17:38:34.640625,3.23
17:38:34.656250,1.92
17:38:34.671875,0.40
17:38:34.687500,-1.13
17:38:34.703125,-2.43
17:38:34.718750,-3.33
17:38:34.734375,-3.76
17:38:34.750000,-3.78
17:38:34.765625,-3.56
17:38:34.781250,-3.37
17:38:34.796875,-3.40
17:38:34.812500,-3.81
17:38:34.828125,-4.60
17:38:34.843750,-5.64
17:38:34.859375,-6.72
17:38:34.875000,-7.62
17:38:34.890625,-8.21
17:38:34.906250,-8.54
17:38:34.921875,-8.77
17:38:34.937500,-9.11
17:38:34.953125,-9.64
17:38:34.968750,-10.33
17:38:34.984375,-11.04
17:38:35,-11.61
17:38:35.015625,-12.03
17:38:35.031250,-12.38
17:38:35.046875,-12.86
17:38:35.062500,-13.66
17:38:35.078125,-14.84
17:38:35.093750,-16.35
17:38:35.109375,-18.06
17:38:35.125000,-19.79
17:38:35.140625,-21.31
17:38:35.156250,-22.32
17:38:35.171875,-22.53
17:38:35.187500,-21.67
17:38:35.203125,-19.63
17:38:35.218750,-16.52
17:38:35.234375,-12.71
17:38:35.250000,-8.72
17:38:35.265625,-4.97
17:38:35.281250,-1.71
17:38:35.296875,1.04
17:38:35.312500,3.40
17:38:35.328125,5.53
17:38:35.343750,7.43
17:38:35.359375,8.97
17:38:35.375000,9.97
17:38:35.390625,10.35
17:38:35.406250,10.16
17:38:35.421875,9.59
17:38:35.437500,8.88
17:38:35.453125,8.22
17:38:35.468750,7.68
17:38:35.484375,7.27
17:38:35.500000,7.05
17:38:35.515625,7.07
17:38:35.531250,7.51
17:38:35.546875,8.46
17:38:35.562500,9.91
17:38:35.578125,11.65
17:38:35.593750,13.34
17:38:35.609375,14.57
17:38:35.625000,15.08
17:38:35.640625,14.79
17:38:35.656250,13.81
17:38:35.671875,12.39
17:38:35.687500,10.79
17:38:35.703125,9.18
17:38:35.718750,7.60
17:38:35.734375,6.05
17:38:35.750000,4.45
17:38:35.765625,2.79
17:38:35.781250,1.15
17:38:35.796875,-0.34
17:38:35.812500,-1.54
17:38:35.828125,-2.35
17:38:35.843750,-2.83
17:38:35.859375,-3.10
17:38:35.875000,-3.34
17:38:35.890625,-3.71
17:38:35.906250,-4.27
17:38:35.921875,-5.02
17:38:35.937500,-5.94
17:38:35.953125,-7.02
17:38:35.968750,-8.28
17:38:35.984375,-9.76
17:38:36,-11.39
17:38:36.015625,-13.06
17:38:36.031250,-14.60
17:38:36.046875,-15.82
17:38:36.062500,-16.56
17:38:36.078125,-16.72
17:38:36.093750,-16.25
17:38:36.109375,-15.14
17:38:36.125000,-13.42
17:38:36.140625,-11.27
17:38:36.156250,-8.97
17:38:36.171875,-6.82
17:38:36.187500,-5.06
17:38:36.203125,-3.74
17:38:36.218750,-2.73
17:38:36.234375,-1.81
17:38:36.250000,-0.82
17:38:36.265625,0.24
17:38:36.281250,1.20
17:38:36.296875,1.89
17:38:36.312500,2.22
17:38:36.328125,2.31
17:38:36.343750,2.40
17:38:36.359375,2.76
17:38:36.375000,3.55
17:38:36.390625,4.75
17:38:36.406250,6.18
17:38:36.421875,7.61
17:38:36.437500,8.84
17:38:36.453125,9.74
17:38:36.468750,10.31
17:38:36.484375,10.58
17:38:36.500000,10.60
17:38:36.515625,10.38
17:38:36.531250,9.88
17:38:36.546875,9.02
17:38:36.562500,7.71
17:38:36.578125,5.98
17:38:36.593750,3.99
17:38:36.609375,2.01
17:38:36.625000,0.32
17:38:36.640625,-0.89
17:38:36.656250,-1.61
17:38:36.671875,-1.98
17:38:36.687500,-2.17
17:38:36.703125,-2.29
17:38:36.718750,-2.33
17:38:36.734375,-2.20
17:38:36.750000,-1.88
17:38:36.765625,-1.47
17:38:36.781250,-1.22
17:38:36.796875,-1.38
17:38:36.812500,-2.11
17:38:36.828125,-3.41
17:38:36.843750,-5.14
17:38:36.859375,-7.10
17:38:36.875000,-9.14
17:38:36.890625,-11.20
17:38:36.906250,-13.28
17:38:36.921875,-15.41
17:38:36.937500,-17.58
17:38:36.953125,-19.73
17:38:36.968750,-21.80
17:38:36.984375,-23.63
17:38:37,-25.03
17:38:37.015625,-25.75
17:38:37.031250,-25.56
17:38:37.046875,-24.29
17:38:37.062500,-21.98
17:38:37.078125,-18.85
17:38:37.093750,-15.23
17:38:37.109375,-11.50
17:38:37.125000,-7.96
17:38:37.140625,-4.80
17:38:37.156250,-2.12
17:38:37.171875,0.00
17:38:37.187500,1.54
17:38:37.203125,2.48
17:38:37.218750,2.90
17:38:37.234375,2.95
17:38:37.250000,2.83
17:38:37.265625,2.74
17:38:37.281250,2.83
17:38:37.296875,3.19
17:38:37.312500,3.83
17:38:37.328125,4.63
17:38:37.343750,5.45
17:38:37.359375,6.12
17:38:37.375000,6.53
17:38:37.390625,6.75
17:38:37.406250,6.96
17:38:37.421875,7.35
17:38:37.437500,7.99
17:38:37.453125,8.73
17:38:37.468750,9.27
17:38:37.484375,9.29
17:38:37.500000,8.66
17:38:37.515625,7.54
17:38:37.531250,6.29
17:38:37.546875,5.31
17:38:37.562500,4.79
17:38:37.578125,4.67
17:38:37.593750,4.69
17:38:37.609375,4.58
17:38:37.625000,4.20
17:38:37.640625,3.63
17:38:37.656250,3.02
17:38:37.671875,2.56
17:38:37.687500,2.27
17:38:37.703125,2.06
17:38:37.718750,1.76
17:38:37.734375,1.18
17:38:37.750000,0.27
17:38:37.765625,-0.92
17:38:37.781250,-2.29
17:38:37.796875,-3.75
17:38:37.812500,-5.22
17:38:37.828125,-6.70
17:38:37.843750,-8.14
17:38:37.859375,-9.51
17:38:37.875000,-10.73
17:38:37.890625,-11.73
17:38:37.906250,-12.55
17:38:37.921875,-13.24
17:38:37.937500,-13.97
17:38:37.953125,-14.85
17:38:37.968750,-15.84
17:38:37.984375,-16.76
17:38:38,-17.24
17:38:38.015625,-16.95
17:38:38.031250,-15.67
17:38:38.046875,-13.47
17:38:38.062500,-10.66
17:38:38.078125,-7.69
17:38:38.093750,-4.93
17:38:38.109375,-2.60
17:38:38.125000,-0.68
17:38:38.140625,0.94
17:38:38.156250,2.38
17:38:38.171875,3.65
17:38:38.187500,4.71
17:38:38.203125,5.49
17:38:38.218750,5.94
17:38:38.234375,6.13
17:38:38.250000,6.15
17:38:38.265625,6.15
17:38:38.281250,6.21
17:38:38.296875,6.41
17:38:38.312500,6.78
17:38:38.328125,7.30
17:38:38.343750,7.88
17:38:38.359375,8.46
17:38:38.375000,8.95
17:38:38.390625,9.32
17:38:38.406250,9.60
17:38:38.421875,9.80
17:38:38.437500,9.94
17:38:38.453125,9.99
17:38:38.468750,9.88
17:38:38.484375,9.56
17:38:38.500000,9.04
17:38:38.515625,8.42
17:38:38.531250,7.84
17:38:38.546875,7.43
17:38:38.562500,7.23
17:38:38.578125,7.14
17:38:38.593750,7.04
17:38:38.609375,6.80
17:38:38.625000,6.43
17:38:38.640625,5.98
17:38:38.656250,5.62
17:38:38.671875,5.42
17:38:38.687500,5.34
17:38:38.703125,5.26
17:38:38.718750,4.98
17:38:38.734375,4.36
17:38:38.750000,3.36
17:38:38.765625,2.11
17:38:38.781250,0.76
17:38:38.796875,-0.56
17:38:38.812500,-1.81
17:38:38.828125,-3.08
17:38:38.843750,-4.49
17:38:38.859375,-6.14
17:38:38.875000,-8.02
17:38:38.890625,-10.00
17:38:38.906250,-11.78
17:38:38.921875,-13.04
17:38:38.937500,-13.49
17:38:38.953125,-12.96
17:38:38.968750,-11.44
17:38:38.984375,-9.11
17:38:39,-6.27
17:38:39.015625,-3.24
17:38:39.031250,-0.31
17:38:39.046875,2.30
17:38:39.062500,4.46
17:38:39.078125,6.13
17:38:39.093750,7.28
17:38:39.109375,7.88
17:38:39.125000,7.93
17:38:39.140625,7.46
17:38:39.156250,6.64
17:38:39.171875,5.73
17:38:39.187500,4.97
17:38:39.203125,4.59
17:38:39.218750,4.63
17:38:39.234375,5.01
17:38:39.250000,5.53
17:38:39.265625,6.01
17:38:39.281250,6.34
17:38:39.296875,6.54
17:38:39.312500,6.66
17:38:39.328125,6.75
17:38:39.343750,6.81
17:38:39.359375,6.81
17:38:39.375000,6.70
17:38:39.390625,6.49
17:38:39.406250,6.21
17:38:39.421875,5.91
17:38:39.437500,5.58
17:38:39.453125,5.19
17:38:39.468750,4.68
17:38:39.484375,3.96
17:38:39.500000,2.98
17:38:39.515625,1.73
17:38:39.531250,0.26
17:38:39.546875,-1.31
17:38:39.562500,-2.84
17:38:39.578125,-4.21
17:38:39.593750,-5.36
17:38:39.609375,-6.31
17:38:39.625000,-7.14
17:38:39.640625,-7.91
17:38:39.656250,-8.63
17:38:39.671875,-9.24
17:38:39.687500,-9.68
17:38:39.703125,-9.95
17:38:39.718750,-10.17
17:38:39.734375,-10.51
17:38:39.750000,-11.13
17:38:39.765625,-12.04
17:38:39.781250,-13.17
17:38:39.796875,-14.36
17:38:39.812500,-15.43
17:38:39.828125,-16.20
17:38:39.843750,-16.45
17:38:39.859375,-15.94
17:38:39.875000,-14.46
17:38:39.890625,-11.89
17:38:39.906250,-8.34
17:38:39.921875,-4.18
17:38:39.937500,0.03
17:38:39.953125,3.72
17:38:39.968750,6.48
17:38:39.984375,8.18
17:38:40,8.97
17:38:40.015625,9.17
17:38:40.031250,9.11
17:38:40.046875,8.99
17:38:40.062500,8.85
17:38:40.078125,8.66
17:38:40.093750,8.40
17:38:40.109375,8.13
17:38:40.125000,7.99
17:38:40.140625,8.11
17:38:40.156250,8.52
17:38:40.171875,9.08
17:38:40.187500,9.57
17:38:40.203125,9.81
17:38:40.218750,9.69
17:38:40.234375,9.26
17:38:40.250000,8.55
17:38:40.265625,7.63
17:38:40.281250,6.50
17:38:40.296875,5.16
17:38:40.312500,3.70
17:38:40.328125,2.26
17:38:40.343750,1.03
17:38:40.359375,0.14
17:38:40.375000,-0.43
17:38:40.390625,-0.80
17:38:40.406250,-1.19
17:38:40.421875,-1.75
17:38:40.437500,-2.51
17:38:40.453125,-3.37
17:38:40.468750,-4.09
17:38:40.484375,-4.48
17:38:40.500000,-4.43
17:38:40.515625,-4.05
17:38:40.531250,-3.60
17:38:40.546875,-3.38
17:38:40.562500,-3.66
17:38:40.578125,-4.48
17:38:40.593750,-5.65
17:38:40.609375,-6.82
17:38:40.625000,-7.61
17:38:40.640625,-7.72
17:38:40.656250,-7.14
17:38:40.671875,-6.19
17:38:40.687500,-5.44
17:38:40.703125,-5.75
17:38:40.718750,-7.65
17:38:40.734375,-11.02
17:38:40.750000,-14.88
17:38:40.765625,-17.83
17:38:40.781250,-18.57
17:38:40.796875,-16.52
17:38:40.812500,-12.07
17:38:40.828125,-6.49
17:38:40.843750,-1.58
17:38:40.859375,1.28
17:38:40.875000,1.89
17:38:40.890625,1.29
17:38:40.906250,1.29
17:38:40.921875,3.47
17:38:40.937500,8.46
17:38:40.953125,15.55
17:38:40.968750,23.00
17:38:40.984375,28.26
17:38:41,29.54
17:38:41.015625,26.82
17:38:41.031250,22.10
17:38:41.046875,18.48
17:38:41.062500,18.76
17:38:41.078125,24.32
17:38:41.093750,34.62
17:38:41.109375,47.46
17:38:41.125000,58.27
17:38:41.140625,62.97
17:38:41.156250,59.89
17:38:41.171875,50.74
17:38:41.187500,39.99
17:38:41.203125,33.72
17:38:41.218750,38.66
17:38:41.234375,60.70
17:38:41.250000,102.65
17:38:41.265625,159.21
17:38:41.281250,219.74
17:38:41.296875,271.78
17:38:41.312500,305.45
17:38:41.328125,315.89
17:38:41.343750,303.97
17:38:41.359375,275.51
17:38:41.375000,238.71
17:38:41.390625,200.28
17:38:41.406250,158.36
17:38:41.421875,108.00
17:38:41.437500,46.47
17:38:41.453125,-23.04
17:38:41.468750,-93.08
17:38:41.484375,-156.13
17:38:41.500000,-207.54
17:38:41.515625,-246.82
17:38:41.531250,-277.52
17:38:41.546875,-311.31
17:38:41.562500,-358.21
17:38:41.578125,-420.93
17:38:41.593750,-493.62
17:38:41.609375,-566.69
17:38:41.625000,-632.29
17:38:41.640625,-685.70
17:38:41.656250,-723.14
17:38:41.671875,-703.59
17:38:41.687500,-599.72
17:38:41.703125,-416.98
17:38:41.718750,-196.89
17:38:41.734375,10.09
17:38:41.750000,169.48
17:38:41.765625,268.17
17:38:41.781250,309.90
17:38:41.796875,310.27
17:38:41.812500,289.62
17:38:41.828125,260.39
17:38:41.843750,228.92
17:38:41.859375,198.17
17:38:41.875000,170.99
17:38:41.890625,149.97
17:38:41.906250,136.51
17:38:41.921875,129.87
17:38:41.937500,129.71
17:38:41.953125,134.12
17:38:41.968750,135.19
17:38:41.984375,125.20
17:38:42,101.43
17:38:42.015625,67.77
17:38:42.031250,31.44
17:38:42.046875,2.25
17:38:42.062500,-16.33
17:38:42.078125,-24.76
17:38:42.093750,-26.75
17:38:42.109375,-30.09
17:38:42.125000,-40.55
17:38:42.140625,-57.59
17:38:42.156250,-73.50
17:38:42.171875,-77.76
17:38:42.187500,-62.71
17:38:42.203125,-28.04
17:38:42.218750,19.72
17:38:42.234375,69.45
17:38:42.250000,108.97
17:38:42.265625,130.76
17:38:42.281250,134.79
17:38:42.296875,127.41
17:38:42.312500,116.67
17:38:42.328125,108.59
17:38:42.343750,105.33
17:38:42.359375,106.93
17:38:42.375000,112.26
17:38:42.390625,119.08
17:38:42.406250,124.20
17:38:42.421875,123.51
17:38:42.437500,113.08
17:38:42.453125,90.50
17:38:42.468750,56.93
17:38:42.484375,17.21
17:38:42.500000,-21.01
17:38:42.515625,-50.60
17:38:42.531250,-67.64
17:38:42.546875,-72.47
17:38:42.562500,-69.81
17:38:42.578125,-62.99
17:38:42.593750,-54.79
17:38:42.609375,-46.38
17:38:42.625000,-37.91
17:38:42.640625,-29.19
17:38:42.656250,-20.73
17:38:42.671875,-13.32
17:38:42.687500,-7.54
17:38:42.703125,-3.19
17:38:42.718750,0.75
17:38:42.734375,5.19
17:38:42.750000,10.86
17:38:42.765625,17.73
17:38:42.781250,25.17
17:38:42.796875,31.86
17:38:42.812500,36.70
17:38:42.828125,39.14
17:38:42.843750,39.46
17:38:42.859375,38.78
17:38:42.875000,38.33
17:38:42.890625,39.25
17:38:42.906250,42.15
17:38:42.921875,46.93
17:38:42.937500,52.25
17:38:42.953125,56.58
17:38:42.968750,58.65
17:38:42.984375,57.86
17:38:43,54.64
17:38:43.015625,50.05
17:38:43.031250,45.53
17:38:43.046875,42.33
17:38:43.062500,41.00
17:38:43.078125,40.34
17:38:43.093750,38.50
17:38:43.109375,33.42
17:38:43.125000,23.48
17:38:43.140625,8.01
17:38:43.156250,-12.81
17:38:43.171875,-38.42
17:38:43.187500,-68.83
17:38:43.203125,-100.14
17:38:43.218750,-131.61
17:38:43.234375,-163.73
17:38:43.250000,-197.70
17:38:43.265625,-235.24
17:38:43.281250,-278.26
17:38:43.296875,-328.22
17:38:43.312500,-384.83
17:38:43.328125,-444.66
17:38:43.343750,-500.66
17:38:43.359375,-544.11
17:38:43.375000,-566.41
17:38:43.390625,-562.39
17:38:43.406250,-532.63
17:38:43.421875,-483.47
17:38:43.437500,-424.50
17:38:43.453125,-364.76
17:38:43.468750,-309.77
17:38:43.484375,-260.63
17:38:43.500000,-216.06
17:38:43.515625,-174.02
17:38:43.531250,-133.28
17:38:43.546875,-94.05
17:38:43.562500,-57.49
17:38:43.578125,-24.40
17:38:43.593750,5.52
17:38:43.609375,33.67
17:38:43.625000,62.02
17:38:43.640625,92.35
17:38:43.656250,126.71
17:38:43.671875,167.95
17:38:43.687500,217.96
17:38:43.703125,275.56
17:38:43.718750,335.39
17:38:43.734375,388.61
17:38:43.750000,425.42
17:38:43.765625,438.00
17:38:43.781250,422.39
17:38:43.796875,379.55
17:38:43.812500,316.98
17:38:43.828125,244.93
17:38:43.843750,173.85
17:38:43.859375,112.68
17:38:43.875000,68.26
17:38:43.890625,44.85
17:38:43.906250,43.17
17:38:43.921875,59.27
17:38:43.937500,85.29
17:38:43.953125,115.46
17:38:43.968750,145.04
17:38:43.984375,170.91
17:38:44,191.29
17:38:44.015625,205.92
17:38:44.031250,216.09
17:38:44.046875,224.19
17:38:44.062500,232.44
17:38:44.078125,242.38
17:38:44.093750,259.73
17:38:44.109375,289.20
17:38:44.125000,332.54
17:38:44.140625,387.80
17:38:44.156250,451.22
17:38:44.171875,519.62
17:38:44.187500,591.63
17:38:44.203125,667.23
17:38:44.218750,716.22
17:38:44.234375,716.81
17:38:44.250000,663.18
17:38:44.265625,569.42
17:38:44.281250,456.98
17:38:44.296875,340.37
17:38:44.312500,224.81
17:38:44.328125,111.94
17:38:44.343750,5.25
17:38:44.359375,-88.93
17:38:44.375000,-159.16
17:38:44.390625,-198.52
17:38:44.406250,-207.97
17:38:44.421875,-196.32
17:38:44.437500,-175.70
17:38:44.453125,-155.49
17:38:44.468750,-139.89
17:38:44.484375,-129.65
17:38:44.500000,-124.27
17:38:44.515625,-119.75
17:38:44.531250,-113.67
17:38:44.546875,-105.31
17:38:44.562500,-95.87
17:38:44.578125,-87.23
17:38:44.593750,-80.54
17:38:44.609375,-76.30
17:38:44.625000,-75.70
17:38:44.640625,-81.40
17:38:44.656250,-89.84
17:38:44.671875,-99.44
17:38:44.687500,-109.30
17:38:44.703125,-119.41
17:38:44.718750,-130.03
17:38:44.734375,-141.10
17:38:44.750000,-152.45
17:38:44.765625,-164.31
17:38:44.781250,-177.44
17:38:44.796875,-191.71
17:38:44.812500,-207.70
17:38:44.828125,-225.94
17:38:44.843750,-246.86
17:38:44.859375,-270.09
17:38:44.875000,-293.73
17:38:44.890625,-314.62
17:38:44.906250,-329.36
17:38:44.921875,-335.57
17:38:44.937500,-332.48
17:38:44.953125,-322.06
17:38:44.968750,-307.65
17:38:44.984375,-292.65
17:38:45,-279.10
17:38:45.015625,-266.92
17:38:45.031250,-254.46
17:38:45.046875,-239.79
17:38:45.062500,-221.93
17:38:45.078125,-201.46
17:38:45.093750,-180.70
17:38:45.109375,-162.40
17:38:45.125000,-148.80
17:38:45.140625,-141.04
17:38:45.156250,-139.08
17:38:45.171875,-142.20
17:38:45.187500,-149.47
17:38:45.203125,-159.96
17:38:45.218750,-172.55
17:38:45.234375,-185.52
17:38:45.250000,-196.00
17:38:45.265625,-200.22
17:38:45.281250,-194.50
17:38:45.296875,-176.66
17:38:45.312500,-147.10
17:38:45.328125,-108.91
17:38:45.343750,-66.94
17:38:45.359375,-26.22
17:38:45.375000,9.40
17:38:45.390625,38.02
17:38:45.406250,59.31
17:38:45.421875,73.74
17:38:45.437500,81.84
17:38:45.453125,84.04
17:38:45.468750,80.92
17:38:45.484375,73.75
17:38:45.500000,64.73
17:38:45.515625,56.60
17:38:45.531250,51.96
17:38:45.546875,52.26
17:38:45.562500,57.36
17:38:45.578125,65.60
17:38:45.593750,74.52
17:38:45.609375,81.87
17:38:45.625000,86.38
17:38:45.640625,88.00
17:38:45.656250,87.58
17:38:45.671875,86.15
17:38:45.687500,84.25
17:38:45.703125,81.67
17:38:45.718750,77.77
17:38:45.734375,71.99
17:38:45.750000,64.35
17:38:45.765625,55.65
17:38:45.781250,47.06
17:38:45.796875,39.66
17:38:45.812500,33.90
17:38:45.828125,29.55
17:38:45.843750,26.01
17:38:45.859375,22.70
17:38:45.875000,19.49
17:38:45.890625,16.68
17:38:45.906250,14.75
17:38:45.921875,14.01
17:38:45.937500,14.27
17:38:45.953125,14.82
17:38:45.968750,14.60
17:38:45.984375,12.44
17:38:46,7.48
17:38:46.015625,-0.58
17:38:46.031250,-11.26
17:38:46.046875,-23.14
17:38:46.062500,-33.91
17:38:46.078125,-40.75
17:38:46.093750,-40.95
17:38:46.109375,-32.70
17:38:46.125000,-15.76
17:38:46.140625,8.17
17:38:46.156250,35.78
17:38:46.171875,62.98
17:38:46.187500,85.99
17:38:46.203125,102.39
17:38:46.218750,111.56
17:38:46.234375,114.42
17:38:46.250000,112.65
17:38:46.265625,107.81
17:38:46.281250,100.82
17:38:46.296875,92.07
17:38:46.312500,81.94
17:38:46.328125,71.42
17:38:46.343750,62.18
17:38:46.359375,56.14
17:38:46.375000,54.66
17:38:46.390625,57.73
17:38:46.406250,63.71
17:38:46.421875,69.85
17:38:46.437500,73.28
17:38:46.453125,72.07
17:38:46.468750,65.83
17:38:46.484375,55.70
17:38:46.500000,43.63
17:38:46.515625,31.60
17:38:46.531250,20.98
17:38:46.546875,12.31
17:38:46.562500,5.55
17:38:46.578125,0.37
17:38:46.593750,-3.69
17:38:46.609375,-7.10
17:38:46.625000,-10.52
17:38:46.640625,-14.58
17:38:46.656250,-19.76
17:38:46.671875,-25.90
17:38:46.687500,-32.10
17:38:46.703125,-36.93
17:38:46.718750,-38.91
17:38:46.734375,-37.21
17:38:46.750000,-32.09
17:38:46.765625,-24.89
17:38:46.781250,-17.59
17:38:46.796875,-12.21
17:38:46.812500,-10.20
17:38:46.828125,-12.21
17:38:46.843750,-18.01
17:38:46.859375,-26.70
17:38:46.875000,-36.88
17:38:46.890625,-46.84
17:38:46.906250,-54.68
17:38:46.921875,-58.61
17:38:46.937500,-57.28
17:38:46.953125,-50.28
17:38:46.968750,-38.44
17:38:46.984375,-23.79
17:38:47,-9.03
17:38:47.015625,3.36
17:38:47.031250,11.90
17:38:47.046875,16.47
17:38:47.062500,18.02
17:38:47.078125,17.86
17:38:47.093750,16.92
17:38:47.109375,15.34
17:38:47.125000,12.72
17:38:47.140625,8.68
17:38:47.156250,3.44
17:38:47.171875,-1.95
17:38:47.187500,-5.97
17:38:47.203125,-7.28
17:38:47.218750,-5.30
17:38:47.234375,-0.39
17:38:47.250000,6.40
17:38:47.265625,13.85
17:38:47.281250,20.95
17:38:47.296875,27.13
17:38:47.312500,32.06
17:38:47.328125,35.42
17:38:47.343750,36.74
17:38:47.359375,35.54
17:38:47.375000,31.66
17:38:47.390625,25.50
17:38:47.406250,18.26
17:38:47.421875,11.58
17:38:47.437500,7.16
17:38:47.453125,6.14
17:38:47.468750,8.70
17:38:47.484375,14.03
17:38:47.500000,20.51
17:38:47.515625,26.24
17:38:47.531250,29.53
17:38:47.546875,29.31
17:38:47.562500,25.45
17:38:47.578125,18.72
17:38:47.593750,10.55
17:38:47.609375,2.58
17:38:47.625000,-3.96
17:38:47.640625,-8.66
17:38:47.656250,-12.16
17:38:47.671875,-15.82
17:38:47.687500,-21.08
17:38:47.703125,-28.84
17:38:47.718750,-38.85
17:38:47.734375,-49.84
17:38:47.750000,-59.93
17:38:47.765625,-67.23
17:38:47.781250,-70.34
17:38:47.796875,-68.41
17:38:47.812500,-61.12
17:38:47.828125,-48.54
17:38:47.843750,-31.30
17:38:47.859375,-10.70
17:38:47.875000,11.26
17:38:47.890625,32.22
17:38:47.906250,50.09
17:38:47.921875,63.66
17:38:47.937500,72.83
17:38:47.953125,78.27
17:38:47.968750,80.77
17:38:47.984375,80.65
17:38:48,77.66
17:38:48.015625,71.42
17:38:48.031250,62.18
17:38:48.046875,51.19
17:38:48.062500,40.59
17:38:48.078125,32.56
17:38:48.093750,28.43
17:38:48.109375,28.08
17:38:48.125000,30.19
17:38:48.140625,32.93
17:38:48.156250,34.96
17:38:48.171875,35.98
17:38:48.187500,36.64
17:38:48.203125,37.86
17:38:48.218750,40.04
17:38:48.234375,42.61
17:38:48.250000,44.17
17:38:48.265625,43.15
17:38:48.281250,38.54
17:38:48.296875,30.30
17:38:48.312500,19.30
17:38:48.328125,6.82
17:38:48.343750,-5.93
17:38:48.359375,-18.17
17:38:48.375000,-29.40
17:38:48.390625,-39.12
17:38:48.406250,-46.57
17:38:48.421875,-50.67
17:38:48.437500,-50.37
17:38:48.453125,-45.18
17:38:48.468750,-35.53
17:38:48.484375,-22.91
17:38:48.500000,-9.43
17:38:48.515625,2.70
17:38:48.531250,11.85
17:38:48.546875,17.21
17:38:48.562500,18.75
17:38:48.578125,16.83
17:38:48.593750,11.85
17:38:48.609375,4.02
17:38:48.625000,-6.63
17:38:48.640625,-20.02
17:38:48.656250,-35.86
17:38:48.671875,-53.52
17:38:48.687500,-72.02
17:38:48.703125,-89.84
17:38:48.718750,-104.92
17:38:48.734375,-114.62
17:38:48.750000,-116.17
17:38:48.765625,-107.32
17:38:48.781250,-87.35
17:38:48.796875,-57.73
17:38:48.812500,-22.12
17:38:48.828125,14.47
17:38:48.843750,47.06
17:38:48.859375,72.12
17:38:48.875000,88.29
17:38:48.890625,96.18
17:38:48.906250,97.52
17:38:48.921875,94.16
17:38:48.937500,87.46
17:38:48.953125,78.28
17:38:48.968750,67.39
17:38:48.984375,55.79
17:38:49,44.67
17:38:49.015625,35.09
17:38:49.031250,27.58
17:38:49.046875,22.09
17:38:49.062500,18.28
17:38:49.078125,16.00
17:38:49.093750,15.59
17:38:49.109375,17.73
17:38:49.125000,22.88
17:38:49.140625,30.71
17:38:49.156250,39.78
17:38:49.171875,47.93
17:38:49.187500,52.94
17:38:49.203125,53.34
17:38:49.218750,48.92
17:38:49.234375,40.70
17:38:49.250000,30.52
17:38:49.265625,20.41
17:38:49.281250,12.02
17:38:49.296875,6.31
17:38:49.312500,3.56
17:38:49.328125,3.44
17:38:49.343750,5.27
17:38:49.359375,8.16
17:38:49.375000,11.18
17:38:49.390625,13.47
17:38:49.406250,14.41
17:38:49.421875,13.69
17:38:49.437500,11.34
17:38:49.453125,7.73
17:38:49.468750,3.41
17:38:49.484375,-1.08
17:38:49.500000,-5.24
17:38:49.515625,-8.77
17:38:49.531250,-11.51
17:38:49.546875,-13.45
17:38:49.562500,-14.76
17:38:49.578125,-15.78
17:38:49.593750,-17.06
17:38:49.609375,-19.14
17:38:49.625000,-22.33
17:38:49.640625,-26.39
17:38:49.656250,-30.38
17:38:49.671875,-32.87
17:38:49.687500,-32.36
17:38:49.703125,-28.01
17:38:49.718750,-20.05
17:38:49.734375,-9.96
17:38:49.750000,-0.00
17:38:49.765625,7.58
17:38:49.781250,11.48
17:38:49.796875,11.80
17:38:49.812500,10.08
17:38:49.828125,8.59
17:38:49.843750,9.35
17:38:49.859375,13.20
17:38:49.875000,19.43
17:38:49.890625,26.10
17:38:49.906250,30.92
17:38:49.921875,32.31
17:38:49.937500,30.07
17:38:49.953125,25.41
17:38:49.968750,20.27
17:38:49.984375,16.37
17:38:50,14.45
17:38:50.015625,13.99
17:38:50.031250,13.75
17:38:50.046875,12.58
17:38:50.062500,10.17
17:38:50.078125,7.29
17:38:50.093750,5.34
17:38:50.109375,5.49
17:38:50.125000,8.07
17:38:50.140625,12.35
17:38:50.156250,16.96
17:38:50.171875,20.67
17:38:50.187500,22.90
17:38:50.203125,23.89
17:38:50.218750,24.23
17:38:50.234375,24.41
17:38:50.250000,24.43
17:38:50.265625,23.85
17:38:50.281250,22.16
17:38:50.296875,19.07
17:38:50.312500,14.65
17:38:50.328125,9.19
17:38:50.343750,3.01
17:38:50.359375,-3.61
17:38:50.375000,-10.32
17:38:50.390625,-16.50
17:38:50.406250,-21.30
17:38:50.421875,-23.78
17:38:50.437500,-23.33
17:38:50.453125,-19.98
17:38:50.468750,-14.49
17:38:50.484375,-8.19
17:38:50.500000,-2.56
17:38:50.515625,1.13
17:38:50.531250,2.14
17:38:50.546875,0.28
17:38:50.562500,-4.11
17:38:50.578125,-10.28
17:38:50.593750,-17.22
17:38:50.609375,-23.74
17:38:50.625000,-28.56
17:38:50.640625,-30.49
17:38:50.656250,-28.76
17:38:50.671875,-23.25
17:38:50.687500,-14.63
17:38:50.703125,-4.29
17:38:50.718750,6.05
17:38:50.734375,14.87
17:38:50.750000,21.12
17:38:50.765625,24.51
17:38:50.781250,25.36
17:38:50.796875,24.33
17:38:50.812500,22.13
17:38:50.828125,19.30
17:38:50.843750,16.20
17:38:50.859375,13.05
17:38:50.875000,10.06
17:38:50.890625,7.53
17:38:50.906250,5.83
17:38:50.921875,5.23
17:38:50.937500,5.76
17:38:50.953125,7.10
17:38:50.968750,8.64
17:38:50.984375,9.68
17:38:51,9.77
17:38:51.015625,8.92
17:38:51.031250,7.53
17:38:51.046875,6.23
17:38:51.062500,5.51
17:38:51.078125,5.51
17:38:51.093750,5.92
17:38:51.109375,6.21
17:38:51.125000,5.92
17:38:51.140625,4.95
17:38:51.156250,3.54
17:38:51.171875,2.20
17:38:51.187500,1.38
17:38:51.203125,1.24
17:38:51.218750,1.56
17:38:51.234375,1.82
17:38:51.250000,1.44
17:38:51.265625,0.06
17:38:51.281250,-2.28
17:38:51.296875,-5.16
17:38:51.312500,-7.98
17:38:51.328125,-10.28
17:38:51.343750,-11.89
17:38:51.359375,-13.04
17:38:51.375000,-14.24
17:38:51.390625,-16.01
17:38:51.406250,-18.67
17:38:51.421875,-22.17
17:38:51.437500,-26.23
17:38:51.453125,-30.55
17:38:51.468750,-35.03
17:38:51.484375,-39.86
17:38:51.500000,-45.37
17:38:51.515625,-51.70
17:38:51.531250,-58.46
17:38:51.546875,-64.52
17:38:51.562500,-68.20
17:38:51.578125,-67.88
17:38:51.593750,-62.80
17:38:51.609375,-53.82
17:38:51.625000,-43.51
17:38:51.640625,-35.62
17:38:51.656250,-33.60
17:38:51.671875,-39.19
17:38:51.687500,-51.23
17:38:51.703125,-65.80
17:38:51.718750,-77.36
17:38:51.734375,-80.58
17:38:51.750000,-71.90
17:38:51.765625,-50.00
17:38:51.781250,-15.74
17:38:51.796875,27.94
17:38:51.812500,75.87
17:38:51.828125,120.78
17:38:51.843750,154.38
17:38:51.859375,169.70
17:38:51.875000,163.86
17:38:51.890625,139.65
17:38:51.906250,104.92
17:38:51.921875,69.35
17:38:51.937500,40.64
17:38:51.953125,21.87
17:38:51.968750,11.54
17:38:51.984375,5.97
17:38:52,2.29
17:38:52.015625,-0.03
17:38:52.031250,0.18
17:38:52.046875,3.85
17:38:52.062500,10.00
17:38:52.078125,15.77
17:38:52.093750,18.06
17:38:52.109375,15.47
17:38:52.125000,9.29
17:38:52.140625,2.75
17:38:52.156250,-0.52
17:38:52.171875,1.45
17:38:52.187500,8.17
17:38:52.203125,17.03
17:38:52.218750,24.73
17:38:52.234375,28.97
17:38:52.250000,29.23
17:38:52.265625,26.69
17:38:52.281250,23.37
17:38:52.296875,21.00
17:38:52.312500,20.31
17:38:52.328125,20.93
17:38:52.343750,21.82
17:38:52.359375,21.75
17:38:52.375000,19.87
17:38:52.390625,15.80
17:38:52.406250,9.72
17:38:52.421875,2.28
17:38:52.437500,-5.59
17:38:52.453125,-12.79
17:38:52.468750,-18.17
17:38:52.484375,-20.71
17:38:52.500000,-19.84
17:38:52.515625,-15.56
17:38:52.531250,-8.65
17:38:52.546875,-0.46
17:38:52.562500,7.48
17:38:52.578125,13.95
17:38:52.593750,18.46
17:38:52.609375,21.20
17:38:52.625000,22.79
17:38:52.640625,23.74
17:38:52.656250,24.21
17:38:52.671875,24.11
17:38:52.687500,23.72
17:38:52.703125,24.10
17:38:52.718750,26.92
17:38:52.734375,33.87
17:38:52.750000,46.01
17:38:52.765625,63.60
17:38:52.781250,86.40
17:38:52.796875,113.70
17:38:52.812500,144.01
17:38:52.828125,174.41
17:38:52.843750,200.16
17:38:52.859375,215.42
17:38:52.875000,215.01
17:38:52.890625,196.33
17:38:52.906250,160.59
17:38:52.921875,112.40
17:38:52.937500,58.22
17:38:52.953125,4.38
17:38:52.968750,-44.19
17:38:52.984375,-84.32
17:38:53,-114.30
17:38:53.015625,-133.49
17:38:53.031250,-142.33
17:38:53.046875,-142.43
17:38:53.062500,-136.28
17:38:53.078125,-126.64
17:38:53.093750,-115.77
17:38:53.109375,-105.07
17:38:53.125000,-95.26
17:38:53.140625,-86.77
17:38:53.156250,-79.86
17:38:53.171875,-74.59
17:38:53.187500,-70.60
17:38:53.203125,-67.15
17:38:53.218750,-63.42
17:38:53.234375,-59.02
17:38:53.250000,-54.21
17:38:53.265625,-49.70
17:38:53.281250,-46.29
17:38:53.296875,-44.38
17:38:53.312500,-43.88
17:38:53.328125,-44.28
17:38:53.343750,-45.03
17:38:53.359375,-45.70
17:38:53.375000,-45.92
17:38:53.390625,-45.25
17:38:53.406250,-42.99
17:38:53.421875,-38.34
17:38:53.437500,-30.74
17:38:53.453125,-20.34
17:38:53.468750,-8.19
17:38:53.484375,3.92
17:38:53.500000,14.02
17:38:53.515625,20.58
17:38:53.531250,23.04
17:38:53.546875,21.85
17:38:53.562500,18.17
17:38:53.578125,13.35
17:38:53.593750,8.50
17:38:53.609375,4.30
17:38:53.625000,1.04
17:38:53.640625,-1.23
17:38:53.656250,-2.51
17:38:53.671875,-2.79
17:38:53.687500,-2.11
17:38:53.703125,-0.62
17:38:53.718750,1.40
17:38:53.734375,3.56
17:38:53.750000,5.48
17:38:53.765625,6.91
17:38:53.781250,7.78
17:38:53.796875,8.17
17:38:53.812500,8.18
17:38:53.828125,7.89
17:38:53.843750,7.25
17:38:53.859375,6.16
17:38:53.875000,4.57
17:38:53.890625,2.58
17:38:53.906250,0.46
17:38:53.921875,-1.46
17:38:53.937500,-2.86
17:38:53.953125,-3.58
17:38:53.968750,-3.70
17:38:53.984375,-3.41
17:38:54,-3.00
17:38:54.015625,-2.72
17:38:54.031250,-2.70
17:38:54.046875,-2.97
17:38:54.062500,-3.48
17:38:54.078125,-4.14
17:38:54.093750,-4.80
17:38:54.109375,-5.35
17:38:54.125000,-5.68
17:38:54.140625,-5.79
17:38:54.156250,-5.85
17:38:54.171875,-6.17
17:38:54.187500,-7.10
17:38:54.203125,-8.86
17:38:54.218750,-11.47
17:38:54.234375,-14.63
17:38:54.250000,-17.83
17:38:54.265625,-20.43
17:38:54.281250,-21.76
17:38:54.296875,-21.23
17:38:54.312500,-18.41
17:38:54.328125,-13.19
17:38:54.343750,-5.89
17:38:54.359375,2.65
17:38:54.375000,11.24
17:38:54.390625,18.64
17:38:54.406250,23.88
17:38:54.421875,26.60
17:38:54.437500,27.01
17:38:54.453125,25.67
17:38:54.468750,23.19
17:38:54.484375,19.97
17:38:54.500000,16.19
17:38:54.515625,11.99
17:38:54.531250,7.62
17:38:54.546875,3.56
17:38:54.562500,0.43
17:38:54.578125,-1.24
17:38:54.593750,-1.24
17:38:54.609375,0.20
17:38:54.625000,2.57
17:38:54.640625,5.22
17:38:54.656250,7.64
17:38:54.671875,9.56
17:38:54.687500,10.89
17:38:54.703125,11.62
17:38:54.718750,11.69
17:38:54.734375,10.96
17:38:54.750000,9.30
17:38:54.765625,6.71
17:38:54.781250,3.47
17:38:54.796875,0.06
17:38:54.812500,-2.93
17:38:54.828125,-5.05
17:38:54.843750,-6.15
17:38:54.859375,-6.43
17:38:54.875000,-6.35
17:38:54.890625,-6.49
17:38:54.906250,-7.27
17:38:54.921875,-8.84
17:38:54.937500,-11.01
17:38:54.953125,-13.32
17:38:54.968750,-15.22
17:38:54.984375,-16.32
17:38:55,-16.49
17:38:55.015625,-16.00
17:38:55.031250,-15.33
17:38:55.046875,-15.05
17:38:55.062500,-15.59
17:38:55.078125,-17.10
17:38:55.093750,-19.40
17:38:55.109375,-22.05
17:38:55.125000,-24.38
17:38:55.140625,-25.67
17:38:55.156250,-25.21
17:38:55.171875,-22.46
17:38:55.187500,-17.21
17:38:55.203125,-9.74
17:38:55.218750,-0.87
17:38:55.234375,8.18
17:38:55.250000,16.04
17:38:55.265625,21.57
17:38:55.281250,24.18
17:38:55.296875,23.90
17:38:55.312500,21.28
17:38:55.328125,17.12
17:38:55.343750,12.20
17:38:55.359375,7.17
17:38:55.375000,2.54
17:38:55.390625,-1.21
17:38:55.406250,-3.68
17:38:55.421875,-4.59
17:38:55.437500,-3.94
17:38:55.453125,-2.08
17:38:55.468750,0.34
17:38:55.484375,2.63
17:38:55.500000,4.29
17:38:55.515625,5.17
17:38:55.531250,5.44
17:38:55.546875,5.43
17:38:55.562500,5.34
17:38:55.578125,5.19
17:38:55.593750,4.77
17:38:55.609375,3.86
17:38:55.625000,2.32
17:38:55.640625,0.25
17:38:55.656250,-2.07
17:38:55.671875,-4.28
17:38:55.687500,-6.10
17:38:55.703125,-7.37
17:38:55.718750,-8.17
17:38:55.734375,-8.71
17:38:55.750000,-9.23
17:38:55.765625,-9.94
17:38:55.781250,-10.88
17:38:55.796875,-11.93
17:38:55.812500,-12.85
17:38:55.828125,-13.40
17:38:55.843750,-13.46
17:38:55.859375,-13.16
17:38:55.875000,-12.85
17:38:55.890625,-12.98
17:38:55.906250,-13.96
17:38:55.921875,-16.03
17:38:55.937500,-19.14
17:38:55.953125,-22.95
17:38:55.968750,-26.79
17:38:55.984375,-29.74
17:38:56,-30.77
17:38:56.015625,-28.97
17:38:56.031250,-23.87
17:38:56.046875,-15.74
17:38:56.062500,-5.61
17:38:56.078125,4.91
17:38:56.093750,14.12
17:38:56.109375,20.68
17:38:56.125000,24.02
17:38:56.140625,24.31
17:38:56.156250,22.33
17:38:56.171875,19.00
17:38:56.187500,15.17
17:38:56.203125,11.37
17:38:56.218750,7.91
17:38:56.234375,4.91
17:38:56.250000,2.49
17:38:56.265625,0.81
17:38:56.281250,0.01
17:38:56.296875,0.13
17:38:56.312500,1.03
17:38:56.328125,2.43
17:38:56.343750,3.96
17:38:56.359375,5.34
17:38:56.375000,6.49
17:38:56.390625,7.49
17:38:56.406250,8.45
17:38:56.421875,9.37
17:38:56.437500,10.05
17:38:56.453125,10.09
17:38:56.468750,9.13
17:38:56.484375,6.98
17:38:56.500000,3.86
17:38:56.515625,0.30
17:38:56.531250,-2.92
17:38:56.546875,-5.12
17:38:56.562500,-5.95
17:38:56.578125,-5.55
17:38:56.593750,-4.54
17:38:56.609375,-3.78
17:38:56.625000,-4.03
17:38:56.640625,-5.63
17:38:56.656250,-8.33
17:38:56.671875,-11.43
17:38:56.687500,-14.10
17:38:56.703125,-15.72
17:38:56.718750,-16.18
17:38:56.734375,-15.83
17:38:56.750000,-15.35
17:38:56.765625,-15.43
17:38:56.781250,-16.57
17:38:56.796875,-18.93
17:38:56.812500,-22.30
17:38:56.828125,-26.16
17:38:56.843750,-29.74
17:38:56.859375,-32.14
17:38:56.875000,-32.47
17:38:56.890625,-30.10
17:38:56.906250,-24.89
17:38:56.921875,-17.28
17:38:56.937500,-8.28
17:38:56.953125,0.82
17:38:56.968750,8.76
17:38:56.984375,14.65
17:38:57,18.11
17:38:57.015625,19.16
17:38:57.031250,17.96
17:38:57.046875,14.67
17:38:57.062500,9.41
17:38:57.078125,2.58
17:38:57.093750,-4.80
17:38:57.109375,-10.87
17:38:57.125000,-13.26
17:38:57.140625,-9.85
17:38:57.156250,0.32
17:38:57.171875,16.25
17:38:57.187500,35.06
17:38:57.203125,52.68
17:38:57.218750,65.18
17:38:57.234375,69.97
17:38:57.250000,66.49
17:38:57.265625,56.10
17:38:57.281250,41.27
17:38:57.296875,24.46
17:38:57.312500,7.38
17:38:57.328125,-9.28
17:38:57.343750,-25.46
17:38:57.359375,-41.12
17:38:57.375000,-55.63
17:38:57.390625,-67.69
17:38:57.406250,-75.62
17:38:57.421875,-77.99
17:38:57.437500,-74.15
17:38:57.453125,-64.52
17:38:57.468750,-50.47
17:38:57.484375,-33.99
17:38:57.500000,-17.42
17:38:57.515625,-3.07
17:38:57.531250,7.10
17:38:57.546875,12.11
17:38:57.562500,12.49
17:38:57.578125,10.43
17:38:57.593750,9.20
17:38:57.609375,11.95
17:38:57.625000,20.29
17:38:57.640625,33.45
17:38:57.656250,48.62
17:38:57.671875,62.10
17:38:57.687500,70.85
17:38:57.703125,73.50
17:38:57.718750,70.44
17:38:57.734375,63.12
17:38:57.750000,53.16
17:38:57.765625,41.84
17:38:57.781250,30.12
17:38:57.796875,18.88
17:38:57.812500,9.15
17:38:57.828125,1.92
17:38:57.843750,-2.33
17:38:57.859375,-3.90
17:38:57.875000,-3.88
17:38:57.890625,-3.71
17:38:57.906250,-4.66
17:38:57.921875,-7.33
17:38:57.937500,-11.50
17:38:57.953125,-16.31
17:38:57.968750,-20.64
17:38:57.984375,-23.58
17:38:58,-24.67
17:38:58.015625,-23.97
17:38:58.031250,-21.97
17:38:58.046875,-19.29
17:38:58.062500,-16.41
17:38:58.078125,-13.62
17:38:58.093750,-10.95
17:38:58.109375,-8.38
17:38:58.125000,-5.92
17:38:58.140625,-3.73
17:38:58.156250,-1.99
17:38:58.171875,-0.88
17:38:58.187500,-0.46
17:38:58.203125,-0.61
17:38:58.218750,-1.17
17:38:58.234375,-1.95
17:38:58.250000,-2.81
17:38:58.265625,-3.63
17:38:58.281250,-4.26
17:38:58.296875,-4.56
17:38:58.312500,-4.41
17:38:58.328125,-3.79
17:38:58.343750,-2.83
17:38:58.359375,-1.78
17:38:58.375000,-0.89
17:38:58.390625,-0.30
17:38:58.406250,-0.11
17:38:58.421875,-0.36
17:38:58.437500,-1.12
17:38:58.453125,-2.48
17:38:58.468750,-4.47
17:38:58.484375,-6.96
17:38:58.500000,-9.72
17:38:58.515625,-12.39
17:38:58.531250,-14.71
17:38:58.546875,-16.59
17:38:58.562500,-18.11
17:38:58.578125,-19.45
17:38:58.593750,-20.82
17:38:58.609375,-22.37
17:38:58.625000,-24.15
17:38:58.640625,-26.11
17:38:58.656250,-27.97
17:38:58.671875,-29.18
17:38:58.687500,-28.94
17:38:58.703125,-26.40
17:38:58.718750,-21.01
17:38:58.734375,-12.87
17:38:58.750000,-2.88
17:38:58.765625,7.44
17:38:58.781250,16.39
17:38:58.796875,22.67
17:38:58.812500,25.78
17:38:58.828125,26.04
17:38:58.843750,24.32
17:38:58.859375,21.54
17:38:58.875000,18.34
17:38:58.890625,14.99
17:38:58.906250,11.58
17:38:58.921875,8.24
17:38:58.937500,5.33
17:38:58.953125,3.37
17:38:58.968750,2.80
17:38:58.984375,3.78
17:38:59,6.06
17:38:59.015625,9.07
17:38:59.031250,12.17
17:38:59.046875,14.86
17:38:59.062500,16.84
17:38:59.078125,18.01
17:38:59.093750,18.40
17:38:59.109375,18.05
17:38:59.125000,16.99
17:38:59.140625,15.25
17:38:59.156250,12.96
17:38:59.171875,10.27
17:38:59.187500,7.46
17:38:59.203125,4.84
17:38:59.218750,2.69
17:38:59.234375,1.15
17:38:59.250000,0.21
17:38:59.265625,-0.31
17:38:59.281250,-0.71
17:38:59.296875,-1.26
17:38:59.312500,-2.15
17:38:59.328125,-3.37
17:38:59.343750,-4.77
17:38:59.359375,-6.11
17:38:59.375000,-7.18
17:38:59.390625,-7.85
17:38:59.406250,-8.14
17:38:59.421875,-8.20
17:38:59.437500,-8.27
17:38:59.453125,-8.55
17:38:59.468750,-9.16
17:38:59.484375,-10.14
17:38:59.500000,-11.41
17:38:59.515625,-12.96
17:38:59.531250,-14.82
17:38:59.546875,-17.10
17:38:59.562500,-19.80
17:38:59.578125,-22.70
17:38:59.593750,-25.25
17:38:59.609375,-26.61
17:38:59.625000,-25.87
17:38:59.640625,-22.45
17:38:59.656250,-16.32
17:38:59.671875,-8.16
17:38:59.687500,0.79
17:38:59.703125,9.08
17:38:59.718750,15.48
17:38:59.734375,19.31
17:38:59.750000,20.55
17:38:59.765625,19.68
17:38:59.781250,17.39
17:38:59.796875,14.32
17:38:59.812500,10.88
17:38:59.828125,7.29
17:38:59.843750,3.75
17:38:59.859375,0.54
17:38:59.875000,-1.95
17:38:59.890625,-3.35
17:38:59.906250,-3.50
17:38:59.921875,-2.54
17:38:59.937500,-0.83
17:38:59.953125,1.23
17:38:59.968750,3.34
17:38:59.984375,5.38
17:39:00,7.31
17:39:00.015625,9.04
17:39:00.031250,10.33
17:39:00.046875,10.83
17:39:00.062500,10.25
17:39:00.078125,8.55
17:39:00.093750,6.09
17:39:00.109375,3.51
17:39:00.125000,1.50
17:39:00.140625,0.49
17:39:00.156250,0.51
17:39:00.171875,1.24
17:39:00.187500,2.13
17:39:00.203125,2.71
17:39:00.218750,2.79
17:39:00.234375,2.48
17:39:00.250000,2.06
17:39:00.265625,1.88
17:39:00.281250,2.20
17:39:00.296875,3.14
17:39:00.312500,4.70
17:39:00.328125,6.66
17:39:00.343750,8.84
17:39:00.359375,11.18
17:39:00.375000,13.89
17:39:00.390625,17.26
17:39:00.406250,21.48
17:39:00.421875,26.58
17:39:00.437500,32.38
17:39:00.453125,38.59
17:39:00.468750,44.65
17:39:00.484375,49.87
17:39:00.500000,53.66
17:39:00.515625,55.73
17:39:00.531250,56.39
17:39:00.546875,56.80
17:39:00.562500,58.97
17:39:00.578125,65.26
17:39:00.593750,77.35
17:39:00.609375,94.90
17:39:00.625000,115.54
17:39:00.640625,135.69
17:39:00.656250,151.97
17:39:00.671875,162.16
17:39:00.687500,165.40
17:39:00.703125,161.66
17:39:00.718750,151.06
17:39:00.734375,133.49
17:39:00.750000,108.46
17:39:00.765625,76.10
17:39:00.781250,38.03
17:39:00.796875,-2.69
17:39:00.812500,-42.62
17:39:00.828125,-79.18
17:39:00.843750,-111.32
17:39:00.859375,-139.26
17:39:00.875000,-160.83
17:39:00.890625,-173.40
17:39:00.906250,-175.97
17:39:00.921875,-169.90
17:39:00.937500,-157.79
17:39:00.953125,-142.15
17:39:00.968750,-124.83
17:39:00.984375,-107.13
17:39:01,-89.94
17:39:01.015625,-73.81
17:39:01.031250,-59.40
17:39:01.046875,-47.16
17:39:01.062500,-37.09
17:39:01.078125,-28.76
17:39:01.093750,-21.47
17:39:01.109375,-14.48
17:39:01.125000,-7.45
17:39:01.140625,-0.34
17:39:01.156250,6.65
17:39:01.171875,12.93
17:39:01.187500,18.00
17:39:01.203125,21.59
17:39:01.218750,23.55
17:39:01.234375,23.93
17:39:01.250000,23.09
17:39:01.265625,21.15
17:39:01.281250,17.99
17:39:01.296875,13.39
17:39:01.312500,7.12
17:39:01.328125,-0.44
17:39:01.343750,-8.54
17:39:01.359375,-16.39
17:39:01.375000,-22.82
17:39:01.390625,-26.83
17:39:01.406250,-28.01
17:39:01.421875,-26.77
17:39:01.437500,-24.20
17:39:01.453125,-21.58
17:39:01.468750,-19.60
17:39:01.484375,-18.65
17:39:01.500000,-19.22
17:39:01.515625,-21.58
17:39:01.531250,-26.08
17:39:01.546875,-33.66
17:39:01.562500,-45.98
17:39:01.578125,-65.39
17:39:01.593750,-94.91
17:39:01.609375,-132.91
17:39:01.625000,-172.22
17:39:01.640625,-207.13
17:39:01.656250,-233.60
17:39:01.671875,-249.14
17:39:01.687500,-251.25
17:39:01.703125,-236.86
17:39:01.718750,-204.12
17:39:01.734375,-154.94
17:39:01.750000,-95.79
17:39:01.765625,-36.79
17:39:01.781250,11.72
17:39:01.796875,43.68
17:39:01.812500,58.98
17:39:01.828125,62.08
17:39:01.843750,58.89
17:39:01.859375,53.71
17:39:01.875000,48.25
17:39:01.890625,42.58
17:39:01.906250,36.24
17:39:01.921875,29.18
17:39:01.937500,22.40
17:39:01.953125,17.16
17:39:01.968750,13.95
17:39:01.984375,12.16
17:39:02,10.38
17:39:02.015625,7.27
17:39:02.031250,2.49
17:39:02.046875,-3.34
17:39:02.062500,-9.06
17:39:02.078125,-13.16
17:39:02.093750,-14.46
17:39:02.109375,-12.67
17:39:02.125000,-8.54
17:39:02.140625,-3.62
17:39:02.156250,0.64
17:39:02.171875,3.29
17:39:02.187500,4.13
17:39:02.203125,3.63
17:39:02.218750,2.87
17:39:02.234375,2.90
17:39:02.250000,4.30
17:39:02.265625,6.88
17:39:02.281250,9.69
17:39:02.296875,11.83
17:39:02.312500,12.38
17:39:02.328125,11.02
17:39:02.343750,8.15
17:39:02.359375,5.01
17:39:02.375000,3.02
17:39:02.390625,3.30
17:39:02.406250,6.30
17:39:02.421875,11.45
17:39:02.437500,18.00
17:39:02.453125,24.77
17:39:02.468750,30.97
17:39:02.484375,36.78
17:39:02.500000,43.46
17:39:02.515625,52.87
17:39:02.531250,67.27
17:39:02.546875,89.57
17:39:02.562500,118.45
17:39:02.578125,153.48
17:39:02.593750,192.79
17:39:02.609375,232.81
17:39:02.625000,268.39
17:39:02.640625,293.98
17:39:02.656250,305.06
17:39:02.671875,300.19
17:39:02.687500,282.24
17:39:02.703125,257.09
17:39:02.718750,231.76
17:39:02.734375,210.82
17:39:02.750000,195.45
17:39:02.765625,183.76
17:39:02.781250,172.40
17:39:02.796875,157.85
17:39:02.812500,137.87
17:39:02.828125,112.40
17:39:02.843750,82.50
17:39:02.859375,49.85
17:39:02.875000,15.50
17:39:02.890625,-19.40
17:39:02.906250,-53.85
17:39:02.921875,-83.42
17:39:02.937500,-103.37
17:39:02.953125,-114.37
17:39:02.968750,-119.40
17:39:02.984375,-122.27
17:39:03,-124.63
17:39:03.015625,-129.32
17:39:03.031250,-139.10
17:39:03.046875,-155.76
17:39:03.062500,-179.25
17:39:03.078125,-207.74
17:39:03.093750,-237.52
17:39:03.109375,-263.30
17:39:03.125000,-280.27
17:39:03.140625,-285.80
17:39:03.156250,-280.71
17:39:03.171875,-268.08
17:39:03.187500,-251.86
17:39:03.203125,-235.21
17:39:03.218750,-220.12
17:39:03.234375,-207.35
17:39:03.250000,-196.54
17:39:03.265625,-187.28
17:39:03.281250,-179.49
17:39:03.296875,-173.41
17:39:03.312500,-168.60
17:39:03.328125,-163.77
17:39:03.343750,-157.09
17:39:03.359375,-147.08
17:39:03.375000,-133.09
17:39:03.390625,-115.03
17:39:03.406250,-93.29
17:39:03.421875,-68.80
17:39:03.437500,-42.93
17:39:03.453125,-17.32
17:39:03.468750,6.27
17:39:03.484375,26.21
17:39:03.500000,41.35
17:39:03.515625,51.57
17:39:03.531250,58.10
17:39:03.546875,63.28
17:39:03.562500,69.70
17:39:03.578125,79.13
17:39:03.593750,92.07
17:39:03.609375,107.59
17:39:03.625000,123.58
17:39:03.640625,137.56
17:39:03.656250,147.51
17:39:03.671875,152.48
17:39:03.687500,152.73
17:39:03.703125,149.22
17:39:03.718750,142.95
17:39:03.734375,134.77
17:39:03.750000,125.29
17:39:03.765625,114.92
17:39:03.781250,104.00
17:39:03.796875,92.87
17:39:03.812500,81.70
17:39:03.828125,70.62
17:39:03.843750,59.59
17:39:03.859375,48.30
17:39:03.875000,37.01
17:39:03.890625,26.63
17:39:03.906250,18.32
17:39:03.921875,13.03
17:39:03.937500,10.82
17:39:03.953125,10.74
17:39:03.968750,11.33
17:39:03.984375,10.75
17:39:04,6.84
17:39:04.015625,-1.24
17:39:04.031250,-12.63
17:39:04.046875,-25.84
17:39:04.062500,-39.34
17:39:04.078125,-52.11
17:39:04.093750,-63.66
17:39:04.109375,-72.83
17:39:04.125000,-78.15
17:39:04.140625,-79.28
17:39:04.156250,-75.28
17:39:04.171875,-65.17
17:39:04.187500,-49.94
17:39:04.203125,-32.85
17:39:04.218750,-18.44
17:39:04.234375,-10.73
17:39:04.250000,-10.23
17:39:04.265625,-14.78
17:39:04.281250,-22.82
17:39:04.296875,-31.25
17:39:04.312500,-36.89
17:39:04.328125,-39.00
17:39:04.343750,-38.76
17:39:04.359375,-37.69
17:39:04.375000,-36.19
17:39:04.390625,-31.69
17:39:04.406250,-21.51
17:39:04.421875,-7.27
17:39:04.437500,10.16
17:39:04.453125,30.69
17:39:04.468750,52.99
17:39:04.484375,75.02
17:39:04.500000,95.01
17:39:04.515625,101.55
17:39:04.531250,87.83
17:39:04.546875,70.53
17:39:04.562500,59.38
17:39:04.578125,54.95
17:39:04.593750,59.67
17:39:04.609375,73.96
17:39:04.625000,95.82
17:39:04.640625,121.90
17:39:04.656250,148.63
17:39:04.671875,174.11
17:39:04.687500,196.40
17:39:04.703125,211.13
17:39:04.718750,220.15
17:39:04.734375,230.22
17:39:04.750000,248.45
17:39:04.765625,278.51
17:39:04.781250,318.40
17:39:04.796875,360.35
17:39:04.812500,394.36
17:39:04.828125,410.89
17:39:04.843750,386.18
17:39:04.859375,312.74
17:39:04.875000,203.80
17:39:04.890625,86.45
17:39:04.906250,-14.60
17:39:04.921875,-88.93
17:39:04.937500,-139.66
17:39:04.953125,-174.30
17:39:04.968750,-198.38
17:39:04.984375,-214.73
17:39:05,-220.40
17:39:05.015625,-212.70
17:39:05.031250,-193.45
17:39:05.046875,-169.37
17:39:05.062500,-148.47
17:39:05.078125,-136.19
17:39:05.093750,-133.15
17:39:05.109375,-136.24
17:39:05.125000,-141.38
17:39:05.140625,-142.83
17:39:05.156250,-137.67
17:39:05.171875,-126.72
17:39:05.187500,-114.71
17:39:05.203125,-107.37
17:39:05.218750,-108.54
17:39:05.234375,-119.01
17:39:05.250000,-137.44
17:39:05.265625,-161.78
17:39:05.281250,-186.20
17:39:05.296875,-206.16
17:39:05.312500,-217.29
17:39:05.328125,-216.01
17:39:05.343750,-200.13
17:39:05.359375,-170.04
17:39:05.375000,-129.48
17:39:05.390625,-85.22
17:39:05.406250,-44.80
17:39:05.421875,-12.88
17:39:05.437500,9.46
17:39:05.453125,24.94
17:39:05.468750,36.78
17:39:05.484375,47.41
17:39:05.500000,58.10
17:39:05.515625,69.63
17:39:05.531250,82.81
17:39:05.546875,98.65
17:39:05.562500,117.84
17:39:05.578125,138.83
17:39:05.593750,157.95
17:39:05.609375,170.35
17:39:05.625000,172.62
17:39:05.640625,164.66
17:39:05.656250,150.28
17:39:05.671875,135.37
17:39:05.687500,125.50
17:39:05.703125,124.07
17:39:05.718750,131.48
17:39:05.734375,146.14
17:39:05.750000,165.50
17:39:05.765625,187.26
17:39:05.781250,207.70
17:39:05.796875,224.53
17:39:05.812500,236.51
17:39:05.828125,243.70
17:39:05.843750,247.19
17:39:05.859375,248.43
17:39:05.875000,248.32
17:39:05.890625,246.29
17:39:05.906250,240.54
17:39:05.921875,229.10
17:39:05.937500,211.28
17:39:05.953125,187.85
17:39:05.968750,160.91
17:39:05.984375,133.18
17:39:06,107.24
17:39:06.015625,85.11
17:39:06.031250,67.97
17:39:06.046875,55.99
17:39:06.062500,48.14
17:39:06.078125,42.47
17:39:06.093750,36.42
17:39:06.109375,27.71
17:39:06.125000,15.11
17:39:06.140625,-1.30
17:39:06.156250,-20.59
17:39:06.171875,-41.62
17:39:06.187500,-63.60
17:39:06.203125,-86.10
17:39:06.218750,-108.62
17:39:06.234375,-130.42
17:39:06.250000,-150.64
17:39:06.265625,-168.90
17:39:06.281250,-185.65
17:39:06.296875,-202.26
17:39:06.312500,-220.38
17:39:06.328125,-241.02
17:39:06.343750,-264.03
17:39:06.359375,-288.14
17:39:06.375000,-311.61
17:39:06.390625,-333.00
17:39:06.406250,-351.45
17:39:06.421875,-366.42
17:39:06.437500,-377.44
17:39:06.453125,-383.98
17:39:06.468750,-385.70
17:39:06.484375,-382.87
17:39:06.500000,-376.25
17:39:06.515625,-366.53
17:39:06.531250,-353.35
17:39:06.546875,-334.86
17:39:06.562500,-308.15
17:39:06.578125,-270.85
17:39:06.593750,-222.89
17:39:06.609375,-167.25
17:39:06.625000,-109.26
17:39:06.640625,-54.52
17:39:06.656250,-6.60
17:39:06.671875,33.99
17:39:06.687500,69.21
17:39:06.703125,101.55
17:39:06.718750,131.92
17:39:06.734375,158.69
17:39:06.750000,178.42
17:39:06.765625,187.67
17:39:06.781250,185.28
17:39:06.796875,173.20
17:39:06.812500,156.00
17:39:06.828125,138.66
17:39:06.843750,124.69
17:39:06.859375,115.16
17:39:06.875000,108.88
17:39:06.890625,103.67
17:39:06.906250,97.89
17:39:06.921875,91.43
17:39:06.937500,85.49
17:39:06.953125,81.34
17:39:06.968750,79.02
17:39:06.984375,77.29
17:39:07,74.48
17:39:07.015625,69.57
17:39:07.031250,62.85
17:39:07.046875,55.66
17:39:07.062500,49.56
17:39:07.078125,45.38
17:39:07.093750,42.63
17:39:07.109375,39.21
17:39:07.125000,33.19
17:39:07.140625,24.14
17:39:07.156250,13.38
17:39:07.171875,3.18
17:39:07.187500,-4.43
17:39:07.203125,-8.47
17:39:07.218750,-9.13
17:39:07.234375,-7.45
17:39:07.250000,-6.52
17:39:07.265625,-8.20
17:39:07.281250,-11.81
17:39:07.296875,-14.60
17:39:07.312500,-13.70
17:39:07.328125,-7.66
17:39:07.343750,3.17
17:39:07.359375,17.17
17:39:07.375000,31.95
17:39:07.390625,41.32
17:39:07.406250,41.30
17:39:07.421875,32.32
17:39:07.437500,18.54
17:39:07.453125,4.22
17:39:07.468750,-8.74
17:39:07.484375,-20.77
17:39:07.500000,-33.30
17:39:07.515625,-47.85
17:39:07.531250,-71.14
17:39:07.546875,-106.45
17:39:07.562500,-150.98
17:39:07.578125,-197.42
17:39:07.593750,-239.12
17:39:07.609375,-273.36
17:39:07.625000,-300.70
17:39:07.640625,-322.80
17:39:07.656250,-341.90
17:39:07.671875,-367.93
17:39:07.687500,-407.96
17:39:07.703125,-462.43
17:39:07.718750,-525.19
17:39:07.734375,-588.33
17:39:07.750000,-644.95
17:39:07.765625,-688.93
17:39:07.781250,-714.36
17:39:07.796875,-667.14
17:39:07.812500,-524.37
17:39:07.828125,-309.68
17:39:07.843750,-80.01
17:39:07.859375,116.37
17:39:07.875000,261.73
17:39:07.890625,361.32
17:39:07.906250,427.63
17:39:07.921875,470.42
17:39:07.937500,491.94
17:39:07.953125,483.77
17:39:07.968750,443.00
17:39:07.984375,377.18
17:39:08,303.42
17:39:08.015625,239.39
17:39:08.031250,195.79
17:39:08.046875,174.72
17:39:08.062500,179.88
17:39:08.078125,204.55
17:39:08.093750,233.06
17:39:08.109375,253.58
17:39:08.125000,263.01
17:39:08.140625,266.27
17:39:08.156250,269.52
17:39:08.171875,275.45
17:39:08.187500,283.15
17:39:08.203125,290.77
17:39:08.218750,294.27
17:39:08.234375,288.10
17:39:08.250000,270.42
17:39:08.265625,243.24
17:39:08.281250,211.91
17:39:08.296875,180.98
17:39:08.312500,152.08
17:39:08.328125,124.40
17:39:08.343750,101.17
17:39:08.359375,81.82
17:39:08.375000,64.41
17:39:08.390625,48.51
17:39:08.406250,34.93
17:39:08.421875,26.02
17:39:08.437500,23.53
17:39:08.453125,27.69
17:39:08.468750,32.82
17:39:08.484375,39.72
17:39:08.500000,47.54
17:39:08.515625,55.43
17:39:08.531250,63.56
17:39:08.546875,72.00
17:39:08.562500,81.57
17:39:08.578125,92.76
17:39:08.593750,105.35
17:39:08.609375,118.51
17:39:08.625000,131.88
17:39:08.640625,143.11
17:39:08.656250,149.75
17:39:08.671875,155.42
17:39:08.687500,160.66
17:39:08.703125,165.47
17:39:08.718750,169.56
17:39:08.734375,172.45
17:39:08.750000,173.71
17:39:08.765625,173.59
17:39:08.781250,171.42
17:39:08.796875,166.93
17:39:08.812500,160.31
17:39:08.828125,151.21
17:39:08.843750,139.87
17:39:08.859375,126.84
17:39:08.875000,112.78
17:39:08.890625,98.46
17:39:08.906250,84.96
17:39:08.921875,72.67
17:39:08.937500,61.88
17:39:08.953125,52.88
17:39:08.968750,45.23
17:39:08.984375,38.68
17:39:09,33.09
17:39:09.015625,28.31
17:39:09.031250,24.22
17:39:09.046875,20.80
17:39:09.062500,17.77
17:39:09.078125,14.81
17:39:09.093750,11.72
17:39:09.109375,8.02
17:39:09.125000,3.59
17:39:09.140625,-1.39
17:39:09.156250,-6.56
17:39:09.171875,-11.48
17:39:09.187500,-15.77
17:39:09.203125,-19.38
17:39:09.218750,-22.54
17:39:09.234375,-25.66
17:39:09.250000,-29.32
17:39:09.265625,-33.85
17:39:09.281250,-39.21
17:39:09.296875,-45.09
17:39:09.312500,-51.13
17:39:09.328125,-57.23
17:39:09.343750,-63.72
17:39:09.359375,-71.41
17:39:09.375000,-81.27
17:39:09.390625,-94.10
17:39:09.406250,-110.02
17:39:09.421875,-128.31
17:39:09.437500,-147.61
17:39:09.453125,-166.38
17:39:09.468750,-183.58
17:39:09.484375,-199.08
17:39:09.500000,-213.74
17:39:09.515625,-228.96
17:39:09.531250,-246.02
17:39:09.546875,-265.48
17:39:09.562500,-286.80
17:39:09.578125,-308.81
17:39:09.593750,-330.16
17:39:09.609375,-350.10
17:39:09.625000,-368.92
17:39:09.640625,-387.77
17:39:09.656250,-408.47
17:39:09.671875,-433.16
17:39:09.687500,-464.08
17:39:09.703125,-503.15
17:39:09.718750,-550.84
17:39:09.734375,-604.94
17:39:09.750000,-659.80
17:39:09.765625,-706.91
17:39:09.781250,-737.23
17:39:09.796875,-744.29
17:39:09.812500,-726.77
17:39:09.828125,-688.92
17:39:09.843750,-638.71
17:39:09.859375,-584.55
17:39:09.875000,-532.41
17:39:09.890625,-484.70
17:39:09.906250,-441.09
17:39:09.921875,-400.36
17:39:09.937500,-361.95
17:39:09.953125,-326.22
17:39:09.968750,-293.73
17:39:09.984375,-264.28
17:39:10,-236.58
17:39:10.015625,-208.86
17:39:10.031250,-179.79
17:39:10.046875,-149.27
17:39:10.062500,-118.33
17:39:10.078125,-88.78
17:39:10.093750,-62.15
17:39:10.109375,-39.02
17:39:10.125000,-18.89
17:39:10.140625,-0.48
17:39:10.156250,17.50
17:39:10.171875,35.75
17:39:10.187500,54.01
17:39:10.203125,71.19
17:39:10.218750,85.92
17:39:10.234375,97.21
17:39:10.250000,104.89
17:39:10.265625,109.65
17:39:10.281250,112.72
17:39:10.296875,115.40
17:39:10.312500,118.55
17:39:10.328125,122.47
17:39:10.343750,127.01
17:39:10.359375,131.87
17:39:10.375000,136.98
17:39:10.390625,142.63
17:39:10.406250,149.29
17:39:10.421875,157.43
17:39:10.437500,167.12
17:39:10.453125,178.06
17:39:10.468750,189.57
17:39:10.484375,201.00
17:39:10.500000,211.89
17:39:10.515625,222.23
17:39:10.531250,232.28
17:39:10.546875,242.46
17:39:10.562500,253.20
17:39:10.578125,264.79
17:39:10.593750,277.42
17:39:10.609375,290.93
17:39:10.625000,304.77
17:39:10.640625,317.85
17:39:10.656250,328.61
17:39:10.671875,335.47
17:39:10.687500,337.25
17:39:10.703125,333.63
17:39:10.718750,325.30
17:39:10.734375,313.70
17:39:10.750000,300.66
17:39:10.765625,287.81
17:39:10.781250,276.17
17:39:10.796875,265.90
17:39:10.812500,256.25
17:39:10.828125,245.82
17:39:10.843750,233.07
17:39:10.859375,216.87
17:39:10.875000,196.88
17:39:10.890625,173.62
17:39:10.906250,148.13
17:39:10.921875,121.54
17:39:10.937500,94.84
17:39:10.953125,68.81
17:39:10.968750,44.12
17:39:10.984375,21.26
17:39:11,0.25
17:39:11.015625,-19.66
17:39:11.031250,-39.87
17:39:11.046875,-61.82
17:39:11.062500,-85.77
17:39:11.078125,-110.08
17:39:11.093750,-131.24
17:39:11.109375,-145.10
17:39:11.125000,-148.56
17:39:11.140625,-141.00
17:39:11.156250,-124.38
17:39:11.171875,-102.21
17:39:11.187500,-77.83
17:39:11.203125,-52.96
17:39:11.218750,-27.13
17:39:11.234375,1.49
17:39:11.250000,34.49
17:39:11.265625,71.49
17:39:11.281250,109.22
17:39:11.296875,142.02
17:39:11.312500,163.54
17:39:11.328125,169.18
17:39:11.343750,158.17
17:39:11.359375,134.29
17:39:11.375000,104.99
17:39:11.390625,78.89
17:39:11.406250,62.92
17:39:11.421875,60.19
17:39:11.437500,69.56
17:39:11.453125,86.93
17:39:11.468750,107.30
17:39:11.484375,126.58
17:39:11.500000,142.22
17:39:11.515625,152.93
17:39:11.531250,157.84
17:39:11.546875,156.21
17:39:11.562500,147.68
17:39:11.578125,132.98
17:39:11.593750,114.25
17:39:11.609375,94.81
17:39:11.625000,77.98
17:39:11.640625,65.82
17:39:11.656250,58.44
17:39:11.671875,54.10
17:39:11.687500,50.22
17:39:11.703125,44.60
17:39:11.718750,36.35
17:39:11.734375,26.00
17:39:11.750000,15.15
17:39:11.765625,5.60
17:39:11.781250,-1.33
17:39:11.796875,-5.35
17:39:11.812500,-7.19
17:39:11.828125,-8.22
17:39:11.843750,-9.88
17:39:11.859375,-13.14
17:39:11.875000,-18.12
17:39:11.890625,-24.33
17:39:11.906250,-31.03
17:39:11.921875,-37.68
17:39:11.937500,-44.16
17:39:11.953125,-50.77
17:39:11.968750,-57.93
17:39:11.984375,-66.05
17:39:12,-75.49
17:39:12.015625,-86.52
17:39:12.031250,-99.14
17:39:12.046875,-112.64
17:39:12.062500,-125.27
17:39:12.078125,-134.16
17:39:12.093750,-136.07
17:39:12.109375,-128.36
17:39:12.125000,-109.86
17:39:12.140625,-81.12
17:39:12.156250,-43.93
17:39:12.171875,-0.76
17:39:12.187500,45.69
17:39:12.203125,92.35
17:39:12.218750,135.48
17:39:12.234375,170.72
17:39:12.250000,193.88
17:39:12.265625,202.22
17:39:12.281250,195.35
17:39:12.296875,175.51
17:39:12.312500,146.82
17:39:12.328125,114.15
17:39:12.343750,82.05
17:39:12.359375,54.31
17:39:12.375000,33.72
17:39:12.390625,21.97
17:39:12.406250,19.39
17:39:12.421875,24.75
17:39:12.437500,35.57
17:39:12.453125,48.93
17:39:12.468750,62.37
17:39:12.484375,74.39
17:39:12.500000,84.18
17:39:12.515625,90.90
17:39:12.531250,93.23
17:39:12.546875,89.55
17:39:12.562500,78.89
17:39:12.578125,61.81
17:39:12.593750,40.80
17:39:12.609375,19.59
17:39:12.625000,1.75
17:39:12.640625,-10.52
17:39:12.656250,-17.01
17:39:12.671875,-19.24
17:39:12.687500,-19.66
17:39:12.703125,-20.72
17:39:12.718750,-24.23
17:39:12.734375,-31.05
17:39:12.750000,-40.94
17:39:12.765625,-52.76
17:39:12.781250,-64.69
17:39:12.796875,-75.04
17:39:12.812500,-82.86
17:39:12.828125,-88.42
17:39:12.843750,-92.97
17:39:12.859375,-97.99
17:39:12.875000,-104.24
17:39:12.890625,-111.17
17:39:12.906250,-117.09
17:39:12.921875,-119.86
17:39:12.937500,-117.87
17:39:12.953125,-110.66
17:39:12.968750,-99.04
17:39:12.984375,-84.93
17:39:13,-70.92
17:39:13.015625,-59.84
17:39:13.031250,-54.14
17:39:13.046875,-55.23
17:39:13.062500,-62.28
17:39:13.078125,-72.22
17:39:13.093750,-80.34
17:39:13.109375,-81.53
17:39:13.125000,-71.82
17:39:13.140625,-49.55
17:39:13.156250,-15.77
17:39:13.171875,26.14
17:39:13.187500,71.37
17:39:13.203125,115.03
17:39:13.218750,152.64
17:39:13.234375,180.78
17:39:13.250000,197.43
17:39:13.265625,202.11
17:39:13.281250,195.77
17:39:13.296875,180.00
17:39:13.312500,156.30
17:39:13.328125,125.79
17:39:13.343750,90.39
17:39:13.359375,53.10
17:39:13.375000,18.57
17:39:13.390625,-7.03
17:39:13.406250,-17.40
17:39:13.421875,-8.31
17:39:13.437500,20.29
17:39:13.453125,63.39
17:39:13.468750,112.07
17:39:13.484375,158.00
17:39:13.500000,194.24
17:39:13.515625,216.56
17:39:13.531250,223.77
17:39:13.546875,217.45
17:39:13.562500,201.01
17:39:13.578125,178.44
17:39:13.593750,153.37
17:39:13.609375,128.86
17:39:13.625000,111.20
17:39:13.640625,105.16
17:39:13.656250,111.96
17:39:13.671875,128.67
17:39:13.687500,149.92
17:39:13.703125,170.42
17:39:13.718750,186.55
17:39:13.734375,196.86
17:39:13.750000,201.74
17:39:13.765625,208.66
17:39:13.781250,223.84
17:39:13.796875,248.90
17:39:13.812500,280.14
17:39:13.828125,311.24
17:39:13.843750,336.47
17:39:13.859375,352.16
17:39:13.875000,356.68
17:39:13.890625,350.38
17:39:13.906250,343.42
17:39:13.921875,345.82
17:39:13.937500,363.41
17:39:13.953125,395.90
17:39:13.968750,438.70
17:39:13.984375,485.83
17:39:14,531.65
17:39:14.015625,571.43
17:39:14.031250,553.89
17:39:14.046875,451.91
17:39:14.062500,271.98
17:39:14.078125,52.87
17:39:14.093750,-159.76
17:39:14.109375,-337.29
17:39:14.125000,-472.18
17:39:14.140625,-569.44
17:39:14.156250,-637.91
17:39:14.171875,-685.36
17:39:14.187500,-709.56
17:39:14.203125,-708.58
17:39:14.218750,-684.21
17:39:14.234375,-644.75
17:39:14.250000,-599.99
17:39:14.265625,-556.90
17:39:14.281250,-518.19
17:39:14.296875,-483.03
17:39:14.312500,-448.70
17:39:14.328125,-406.19
17:39:14.343750,-349.00
17:39:14.359375,-281.04
17:39:14.375000,-211.10
17:39:14.390625,-149.34
17:39:14.406250,-102.85
17:39:14.421875,-73.86
17:39:14.437500,-60.34
17:39:14.453125,-57.66
17:39:14.468750,-56.89
17:39:14.484375,-51.30
17:39:14.500000,-38.91
17:39:14.515625,-22.29
17:39:14.531250,-6.54
17:39:14.546875,4.00
17:39:14.562500,7.50
17:39:14.578125,5.01
17:39:14.593750,-0.56
17:39:14.609375,-4.08
17:39:14.625000,-2.06
17:39:14.640625,6.33
17:39:14.656250,19.86
17:39:14.671875,35.83
17:39:14.687500,50.97
17:39:14.703125,61.49
17:39:14.718750,63.06
17:39:14.734375,51.68
17:39:14.750000,26.31
17:39:14.765625,-9.84
17:39:14.781250,-48.92
17:39:14.796875,-80.21
17:39:14.812500,-94.64
17:39:14.828125,-89.06
17:39:14.843750,-68.05
17:39:14.859375,-42.05
17:39:14.875000,-22.35
17:39:14.890625,-15.52
17:39:14.906250,-21.93
17:39:14.921875,-36.65
17:39:14.937500,-52.66
17:39:14.953125,-64.63
17:39:14.968750,-70.70
17:39:14.984375,-71.61
17:39:15,-68.61
17:39:15.015625,-61.92
17:39:15.031250,-50.56
17:39:15.046875,-33.92
17:39:15.062500,-13.70
17:39:15.078125,5.92
17:39:15.093750,19.38
17:39:15.109375,22.29
17:39:15.125000,13.68
17:39:15.140625,-3.04
17:39:15.156250,-21.22
17:39:15.171875,-33.61
17:39:15.187500,-35.50
17:39:15.203125,-26.68
17:39:15.218750,-11.05
17:39:15.234375,5.28
17:39:15.250000,16.88
17:39:15.265625,21.37
17:39:15.281250,20.10
17:39:15.296875,17.05
17:39:15.312500,16.63
17:39:15.328125,21.46
17:39:15.343750,31.13
17:39:15.359375,42.90
17:39:15.375000,53.19
17:39:15.390625,59.27
17:39:15.406250,60.25
17:39:15.421875,57.00
17:39:15.437500,51.24
17:39:15.453125,44.26
17:39:15.468750,37.88
17:39:15.484375,32.56
17:39:15.500000,27.94
17:39:15.515625,23.20
17:39:15.531250,17.64
17:39:15.546875,11.01
17:39:15.562500,3.61
17:39:15.578125,-3.65
17:39:15.593750,-9.64
17:39:15.609375,-13.29
17:39:15.625000,-14.35
17:39:15.640625,-13.46
17:39:15.656250,-12.21
17:39:15.671875,-12.78
17:39:15.687500,-17.19
17:39:15.703125,-26.52
17:39:15.718750,-40.35
17:39:15.734375,-56.86
17:39:15.750000,-73.43
17:39:15.765625,-87.85
17:39:15.781250,-98.83
17:39:15.796875,-106.35
17:39:15.812500,-111.16
17:39:15.828125,-114.33
17:39:15.843750,-116.69
17:39:15.859375,-118.87
17:39:15.875000,-121.40
17:39:15.890625,-124.79
17:39:15.906250,-129.29
17:39:15.921875,-134.14
17:39:15.937500,-137.20
17:39:15.953125,-135.17
17:39:15.968750,-124.83
17:39:15.984375,-104.57
17:39:16,-75.64
17:39:16.015625,-42.18
17:39:16.031250,-9.87
17:39:16.046875,16.08
17:39:16.062500,32.79
17:39:16.078125,40.28
17:39:16.093750,40.75
17:39:16.109375,36.93
17:39:16.125000,30.82
17:39:16.140625,23.25
17:39:16.156250,14.54
17:39:16.171875,5.31
17:39:16.187500,-2.95
17:39:16.203125,-8.21
17:39:16.218750,-8.84
17:39:16.234375,-4.50
17:39:16.250000,3.47
17:39:16.265625,12.59
17:39:16.281250,20.14
17:39:16.296875,24.31
17:39:16.312500,24.79
17:39:16.328125,22.65
17:39:16.343750,19.80
17:39:16.359375,17.96
17:39:16.375000,17.95
17:39:16.390625,19.34
17:39:16.406250,20.62
17:39:16.421875,19.96
17:39:16.437500,16.00
17:39:16.453125,8.49
17:39:16.468750,-1.71
17:39:16.484375,-13.03
17:39:16.500000,-23.81
17:39:16.515625,-32.88
17:39:16.531250,-39.59
17:39:16.546875,-43.76
17:39:16.562500,-45.39
17:39:16.578125,-44.62
17:39:16.593750,-41.76
17:39:16.609375,-37.48
17:39:16.625000,-32.66
17:39:16.640625,-28.19
17:39:16.656250,-24.57
17:39:16.671875,-21.71
17:39:16.687500,-19.06
17:39:16.703125,-15.97
17:39:16.718750,-12.14
17:39:16.734375,-7.83
17:39:16.750000,-3.88
17:39:16.765625,-1.48
17:39:16.781250,-1.88
17:39:16.796875,-5.95
17:39:16.812500,-13.64
17:39:16.828125,-23.45
17:39:16.843750,-32.30
17:39:16.859375,-35.99
17:39:16.875000,-30.54
17:39:16.890625,-13.91
17:39:16.906250,12.66
17:39:16.921875,44.62
17:39:16.937500,75.55
17:39:16.953125,99.48
17:39:16.968750,113.07
17:39:16.984375,116.40
17:39:17,112.06
17:39:17.015625,103.32
17:39:17.031250,92.39
17:39:17.046875,79.73
17:39:17.062500,64.88
17:39:17.078125,47.79
17:39:17.093750,29.96
17:39:17.109375,14.32
17:39:17.125000,4.04
17:39:17.140625,0.96
17:39:17.156250,4.49
17:39:17.171875,11.69
17:39:17.187500,18.58
17:39:17.203125,21.89
17:39:17.218750,20.45
17:39:17.234375,15.50
17:39:17.250000,9.75
17:39:17.265625,5.80
17:39:17.281250,4.65
17:39:17.296875,5.20
17:39:17.312500,4.87
17:39:17.328125,1.03
17:39:17.343750,-7.66
17:39:17.359375,-20.52
17:39:17.375000,-35.24
17:39:17.390625,-48.92
17:39:17.406250,-59.12
17:39:17.421875,-64.48
17:39:17.437500,-64.73
17:39:17.453125,-60.42
17:39:17.468750,-52.61
17:39:17.484375,-42.73
17:39:17.500000,-32.59
17:39:17.515625,-23.99
17:39:17.531250,-18.34
17:39:17.546875,-16.08
17:39:17.562500,-16.62
17:39:17.578125,-18.59
17:39:17.593750,-20.51
17:39:17.609375,-21.33
17:39:17.625000,-20.76
17:39:17.640625,-19.14
17:39:17.656250,-17.24
17:39:17.671875,-16.15
17:39:17.687500,-17.04
17:39:17.703125,-20.87
17:39:17.718750,-27.75
17:39:17.734375,-36.31
17:39:17.750000,-43.50
17:39:17.765625,-45.17
17:39:17.781250,-37.58
17:39:17.796875,-19.10
17:39:17.812500,8.66
17:39:17.828125,41.07
17:39:17.843750,71.96
17:39:17.859375,95.75
17:39:17.875000,109.25
17:39:17.890625,112.18
17:39:17.906250,106.52
17:39:17.921875,95.11
17:39:17.937500,80.33
17:39:17.953125,63.53
17:39:17.968750,45.38
17:39:17.984375,26.61
17:39:18,8.56
17:39:18.015625,-6.76
17:39:18.031250,-17.32
17:39:18.046875,-21.87
17:39:18.062500,-20.53
17:39:18.078125,-14.80
17:39:18.093750,-7.00
17:39:18.109375,0.58
17:39:18.125000,6.47
17:39:18.140625,10.29
17:39:18.156250,12.45
17:39:18.171875,13.51
17:39:18.187500,13.61
17:39:18.203125,12.29
17:39:18.218750,8.83
17:39:18.234375,2.88
17:39:18.250000,-5.09
17:39:18.265625,-13.76
17:39:18.281250,-21.53
17:39:18.296875,-27.30
17:39:18.312500,-30.87
17:39:18.328125,-32.92
17:39:18.343750,-34.45
17:39:18.359375,-36.09
17:39:18.375000,-37.85
17:39:18.390625,-39.31
17:39:18.406250,-40.11
17:39:18.421875,-40.47
17:39:18.437500,-41.18
17:39:18.453125,-43.12
17:39:18.468750,-46.67
17:39:18.484375,-51.18
17:39:18.500000,-55.07
17:39:18.515625,-56.49
17:39:18.531250,-54.19
17:39:18.546875,-48.30
17:39:18.562500,-40.55
17:39:18.578125,-33.80
17:39:18.593750,-30.92
17:39:18.609375,-33.80
17:39:18.625000,-42.56
17:39:18.640625,-55.40
17:39:18.656250,-69.07
17:39:18.671875,-79.59
17:39:18.687500,-83.19
17:39:18.703125,-77.03
17:39:18.718750,-60.03
17:39:18.734375,-33.26
17:39:18.750000,-0.08
17:39:18.765625,34.52
17:39:18.781250,65.08
17:39:18.796875,87.17
17:39:18.812500,98.72
17:39:18.828125,100.30
17:39:18.843750,94.51
17:39:18.859375,84.58
17:39:18.875000,73.04
17:39:18.890625,61.06
17:39:18.906250,48.82
17:39:18.921875,36.33
17:39:18.937500,24.30
17:39:18.953125,14.25
17:39:18.968750,7.95
17:39:18.984375,6.51
17:39:19,9.59
17:39:19.015625,15.54
17:39:19.031250,22.06
17:39:19.046875,27.21
17:39:19.062500,30.13
17:39:19.078125,31.08
17:39:19.093750,30.91
17:39:19.109375,30.26
17:39:19.125000,29.11
17:39:19.140625,26.80
17:39:19.156250,22.56
17:39:19.171875,16.17
17:39:19.187500,8.23
17:39:19.203125,0.08
17:39:19.218750,-6.80
17:39:19.234375,-11.31
17:39:19.250000,-13.08
17:39:19.265625,-12.43
17:39:19.281250,-10.15
17:39:19.296875,-7.14
17:39:19.312500,-4.18
17:39:19.328125,-1.88
17:39:19.343750,-0.63
17:39:19.359375,-0.61
17:39:19.375000,-1.74
17:39:19.390625,-3.71
17:39:19.406250,-5.97
17:39:19.421875,-7.95
17:39:19.437500,-9.22
17:39:19.453125,-9.65
17:39:19.468750,-9.36
17:39:19.484375,-8.67
17:39:19.500000,-8.00
17:39:19.515625,-7.86
17:39:19.531250,-8.85
17:39:19.546875,-11.47
17:39:19.562500,-15.80
17:39:19.578125,-21.00
17:39:19.593750,-25.07
17:39:19.609375,-25.11
17:39:19.625000,-18.20
17:39:19.640625,-2.62
17:39:19.656250,21.08
17:39:19.671875,49.81
17:39:19.687500,78.64
17:39:19.703125,102.29
17:39:19.718750,116.75
17:39:19.734375,120.29
17:39:19.750000,113.57
17:39:19.765625,98.85
17:39:19.781250,78.99
17:39:19.796875,56.60
17:39:19.812500,33.82
17:39:19.828125,12.56
17:39:19.843750,-5.30
17:39:19.859375,-17.94
17:39:19.875000,-24.07
17:39:19.890625,-23.50
17:39:19.906250,-17.45
17:39:19.921875,-8.20
17:39:19.937500,1.64
17:39:19.953125,9.97
17:39:19.968750,15.83
17:39:19.984375,19.26
17:39:20,20.91
17:39:20.015625,21.40
17:39:20.031250,21.00
17:39:20.046875,19.58
17:39:20.062500,16.84
17:39:20.078125,12.64
17:39:20.093750,7.24
17:39:20.109375,1.30
17:39:20.125000,-4.29
17:39:20.140625,-8.67
17:39:20.156250,-11.36
17:39:20.171875,-12.44
17:39:20.187500,-12.62
17:39:20.203125,-12.97
17:39:20.218750,-14.53
17:39:20.234375,-17.86
17:39:20.250000,-22.75
17:39:20.265625,-28.34
17:39:20.281250,-33.49
17:39:20.296875,-37.31
17:39:20.312500,-39.42
17:39:20.328125,-40.07
17:39:20.343750,-39.94
17:39:20.359375,-39.84
17:39:20.375000,-40.57
17:39:20.390625,-42.63
17:39:20.406250,-46.10
17:39:20.421875,-50.36
17:39:20.437500,-53.88
17:39:20.453125,-54.31
17:39:20.468750,-48.99
17:39:20.484375,-35.97
17:39:20.500000,-15.04
17:39:20.515625,11.71
17:39:20.531250,40.23
17:39:20.546875,65.68
17:39:20.562500,83.96
17:39:20.578125,92.87
17:39:20.593750,92.36
17:39:20.609375,83.89
17:39:20.625000,69.54
17:39:20.640625,51.29
17:39:20.656250,30.92
17:39:20.671875,10.32
17:39:20.687500,-8.20
17:39:20.703125,-22.16
17:39:20.718750,-29.63
17:39:20.734375,-29.97
17:39:20.750000,-24.25
17:39:20.765625,-14.89
17:39:20.781250,-4.69
17:39:20.796875,4.04
17:39:20.812500,10.21
17:39:20.828125,13.80
17:39:20.843750,15.46
17:39:20.859375,15.85
17:39:20.875000,15.34
17:39:20.890625,13.91
17:39:20.906250,11.27
17:39:20.921875,7.19
17:39:20.937500,1.61
17:39:20.953125,-5.12
17:39:20.968750,-12.31
17:39:20.984375,-18.88
17:39:21,-23.73
17:39:21.015625,-26.14
17:39:21.031250,-26.09
17:39:21.046875,-24.47
17:39:21.062500,-22.74
17:39:21.078125,-22.35
17:39:21.093750,-24.05
17:39:21.109375,-27.63
17:39:21.125000,-32.07
17:39:21.140625,-36.13
17:39:21.156250,-39.05
17:39:21.171875,-40.78
17:39:21.187500,-41.92
17:39:21.203125,-43.31
17:39:21.218750,-45.67
17:39:21.234375,-49.42
17:39:21.250000,-54.58
17:39:21.265625,-60.66
17:39:21.281250,-66.36
17:39:21.296875,-69.38
17:39:21.312500,-66.66
17:39:21.328125,-55.38
17:39:21.343750,-34.20
17:39:21.359375,-4.40
17:39:21.375000,29.98
17:39:21.390625,63.25
17:39:21.406250,89.90
17:39:21.421875,106.42
17:39:21.437500,112.11
17:39:21.453125,108.62
17:39:21.468750,98.68
17:39:21.484375,84.71
17:39:21.500000,68.24
17:39:21.515625,50.11
17:39:21.531250,31.30
17:39:21.546875,13.47
17:39:21.562500,-1.04
17:39:21.578125,-10.04
17:39:21.593750,-12.38
17:39:21.609375,-8.72
17:39:21.625000,-1.35
17:39:21.640625,6.71
17:39:21.656250,12.85
17:39:21.671875,15.78
17:39:21.687500,15.82
17:39:21.703125,14.38
17:39:21.718750,13.01
17:39:21.734375,12.59
17:39:21.750000,12.98
17:39:21.765625,13.20
17:39:21.781250,12.06
17:39:21.796875,8.73
17:39:21.812500,3.17
17:39:21.828125,-3.85
17:39:21.843750,-11.06
17:39:21.859375,-17.08
17:39:21.875000,-20.86
17:39:21.890625,-22.06
17:39:21.906250,-21.14
17:39:21.921875,-19.30
17:39:21.937500,-18.03
17:39:21.953125,-18.64
17:39:21.968750,-21.64
17:39:21.984375,-26.63
17:39:22,-32.41
17:39:22.015625,-37.57
17:39:22.031250,-41.02
17:39:22.046875,-42.44
17:39:22.062500,-42.35
17:39:22.078125,-41.76
17:39:22.093750,-41.85
17:39:22.109375,-43.55
17:39:22.125000,-47.30
17:39:22.140625,-52.96
17:39:22.156250,-59.64
17:39:22.171875,-65.52
17:39:22.187500,-67.91
17:39:22.203125,-63.73
17:39:22.218750,-50.45
17:39:22.234375,-27.30
17:39:22.250000,3.91
17:39:22.265625,38.91
17:39:22.281250,72.06
17:39:22.296875,98.19
17:39:22.312500,114.18
17:39:22.328125,119.67
17:39:22.343750,116.57
17:39:22.359375,107.74
17:39:22.375000,95.59
17:39:22.390625,81.32
17:39:22.406250,65.24
17:39:22.421875,47.56
17:39:22.437500,29.22
17:39:22.453125,12.14
17:39:22.468750,-1.33
17:39:22.484375,-9.38
17:39:22.500000,-11.53
17:39:22.515625,-8.96
17:39:22.531250,-3.92
17:39:22.546875,1.15
17:39:22.562500,4.62
17:39:22.578125,6.13
17:39:22.593750,6.39
17:39:22.609375,6.46
17:39:22.625000,7.01
17:39:22.640625,7.88
17:39:22.656250,8.23
17:39:22.671875,7.12
17:39:22.687500,4.13
17:39:22.703125,-0.32
17:39:22.718750,-5.10
17:39:22.734375,-8.99
17:39:22.750000,-11.24
17:39:22.765625,-12.04
17:39:22.781250,-12.26
17:39:22.796875,-12.96
17:39:22.812500,-14.72
17:39:22.828125,-17.30
17:39:22.843750,-19.81
17:39:22.859375,-21.25
17:39:22.875000,-21.28
17:39:22.890625,-20.53
17:39:22.906250,-20.42
17:39:22.921875,-22.46
17:39:22.937500,-27.27
17:39:22.953125,-34.16
17:39:22.968750,-41.26
17:39:22.984375,-46.33
17:39:23,-47.84
17:39:23.015625,-45.74
17:39:23.031250,-41.54
17:39:23.046875,-37.64
17:39:23.062500,-36.47
17:39:23.078125,-39.52
17:39:23.093750,-46.93
17:39:23.109375,-57.33
17:39:23.125000,-68.12
17:39:23.140625,-75.83
17:39:23.156250,-76.73
17:39:23.171875,-67.74
17:39:23.187500,-47.48
17:39:23.203125,-17.11
17:39:23.218750,19.49
17:39:23.234375,56.58
17:39:23.250000,88.23
17:39:23.265625,110.11
17:39:23.281250,120.74
17:39:23.296875,121.49
17:39:23.312500,115.47
17:39:23.328125,105.96
17:39:23.343750,95.03
17:39:23.359375,83.25
17:39:23.375000,70.11
17:39:23.390625,55.11
17:39:23.406250,38.67
17:39:23.421875,22.36
17:39:23.437500,8.48
17:39:23.453125,-0.94
17:39:23.468750,-4.98
17:39:23.484375,-4.28
17:39:23.500000,-0.66
17:39:23.515625,3.69
17:39:23.531250,7.13
17:39:23.546875,9.19
17:39:23.562500,10.39
17:39:23.578125,11.62
17:39:23.593750,13.35
17:39:23.609375,15.19
17:39:23.625000,16.06
17:39:23.640625,14.83
17:39:23.656250,11.03
17:39:23.671875,5.25
17:39:23.687500,-1.08
17:39:23.703125,-6.24
17:39:23.718750,-8.98
17:39:23.734375,-8.92
17:39:23.750000,-6.67
17:39:23.765625,-3.51
17:39:23.781250,-0.89
17:39:23.796875,0.07
17:39:23.812500,-1.16
17:39:23.828125,-4.41
17:39:23.843750,-8.97
17:39:23.859375,-13.85
17:39:23.875000,-18.13
17:39:23.890625,-21.20
17:39:23.906250,-22.92
17:39:23.921875,-23.67
17:39:23.937500,-24.16
17:39:23.953125,-25.19
17:39:23.968750,-27.33
17:39:23.984375,-30.68
17:39:24,-34.76
17:39:24.015625,-38.69
17:39:24.031250,-41.59
17:39:24.046875,-42.95
17:39:24.062500,-42.87
17:39:24.078125,-42.05
17:39:24.093750,-41.55
17:39:24.109375,-42.53
17:39:24.125000,-45.83
17:39:24.140625,-51.69
17:39:24.156250,-59.41
17:39:24.171875,-67.03
17:39:24.187500,-71.46
17:39:24.203125,-69.16
17:39:24.218750,-57.21
17:39:24.234375,-34.68
17:39:24.250000,-3.34
17:39:24.265625,32.46
17:39:24.281250,67.02
17:39:24.296875,95.09
17:39:24.312500,113.32
17:39:24.328125,121.09
17:39:24.343750,120.06
17:39:24.359375,113.12
17:39:24.375000,103.04
17:39:24.390625,91.48
17:39:24.406250,78.80
17:39:24.421875,64.56
17:39:24.437500,48.50
17:39:24.453125,31.27
17:39:24.468750,14.65
17:39:24.484375,1.01
17:39:24.500000,-7.71
17:39:24.515625,-10.90
17:39:24.531250,-9.52
17:39:24.546875,-5.61
17:39:24.562500,-1.24
17:39:24.578125,2.30
17:39:24.593750,4.78
17:39:24.609375,6.59
17:39:24.625000,8.03
17:39:24.640625,8.83
17:39:24.656250,8.14
17:39:24.671875,5.12
17:39:24.687500,-0.38
17:39:24.703125,-7.56
17:39:24.718750,-14.85
17:39:24.734375,-20.61
17:39:24.750000,-23.83
17:39:24.765625,-24.55
17:39:24.781250,-23.78
17:39:24.796875,-22.93
17:39:24.812500,-23.13
17:39:24.828125,-24.77
17:39:24.843750,-27.46
17:39:24.859375,-30.32
17:39:24.875000,-32.57
17:39:24.890625,-33.94
17:39:24.906250,-34.70
17:39:24.921875,-35.47
17:39:24.937500,-36.68
17:39:24.953125,-38.33
17:39:24.968750,-39.92
17:39:24.984375,-40.80
17:39:25,-40.53
17:39:25.015625,-39.20
17:39:25.031250,-37.38
17:39:25.046875,-35.78
17:39:25.062500,-34.90
17:39:25.078125,-34.77
17:39:25.093750,-35.00
17:39:25.109375,-35.15
17:39:25.125000,-34.99
17:39:25.140625,-34.71
17:39:25.156250,-34.76
17:39:25.171875,-35.60
17:39:25.187500,-37.45
17:39:25.203125,-40.21
17:39:25.218750,-43.55
17:39:25.234375,-46.88
17:39:25.250000,-49.29
17:39:25.265625,-49.36
17:39:25.281250,-45.19
17:39:25.296875,-34.92
17:39:25.312500,-17.56
17:39:25.328125,6.19
17:39:25.343750,33.55
17:39:25.359375,60.33
17:39:25.375000,82.07
17:39:25.390625,95.64
17:39:25.406250,100.05
17:39:25.421875,96.58
17:39:25.437500,87.85
17:39:25.453125,76.64
17:39:25.468750,64.95
17:39:25.484375,53.76
17:39:25.500000,43.45
17:39:25.515625,34.31
17:39:25.531250,26.93
17:39:25.546875,22.00
17:39:25.562500,19.81
17:39:25.578125,19.90
17:39:25.593750,21.18
17:39:25.609375,22.50
17:39:25.625000,23.48
17:39:25.640625,24.86
17:39:25.656250,28.11
17:39:25.671875,34.52
17:39:25.687500,44.10
17:39:25.703125,55.08
17:39:25.718750,64.32
17:39:25.734375,68.57
17:39:25.750000,65.75
17:39:25.765625,55.83
17:39:25.781250,40.78
17:39:25.796875,23.66
17:39:25.812500,7.50
17:39:25.828125,-5.65
17:39:25.843750,-15.02
17:39:25.859375,-20.83
17:39:25.875000,-23.94
17:39:25.890625,-25.36
17:39:25.906250,-26.18
17:39:25.921875,-27.49
17:39:25.937500,-30.27
17:39:25.953125,-35.21
17:39:25.968750,-42.31
17:39:25.984375,-50.86
17:39:26,-59.52
17:39:26.015625,-66.77
17:39:26.031250,-71.38
17:39:26.046875,-72.68
17:39:26.062500,-70.49
17:39:26.078125,-64.95
17:39:26.093750,-56.31
17:39:26.109375,-44.90
17:39:26.125000,-31.37
17:39:26.140625,-16.90
17:39:26.156250,-3.24
17:39:26.171875,7.53
17:39:26.187500,13.44
17:39:26.203125,13.16
17:39:26.218750,6.47
17:39:26.234375,-5.49
17:39:26.250000,-20.22
17:39:26.265625,-34.21
17:39:26.281250,-43.70
17:39:26.296875,-45.68
17:39:26.312500,-38.86
17:39:26.328125,-24.09
17:39:26.343750,-4.12
17:39:26.359375,17.43
17:39:26.375000,37.15
17:39:26.390625,52.85
17:39:26.406250,63.80
17:39:26.421875,70.46
17:39:26.437500,73.72
17:39:26.453125,74.27
17:39:26.468750,72.19
17:39:26.484375,67.04
17:39:26.500000,58.24
17:39:26.515625,45.66
17:39:26.531250,30.09
17:39:26.546875,13.33
17:39:26.562500,-1.96
17:39:26.578125,-13.05
17:39:26.593750,-17.93
17:39:26.609375,-16.11
17:39:26.625000,-8.85
17:39:26.640625,1.23
17:39:26.656250,11.14
17:39:26.671875,18.53
17:39:26.687500,22.32
17:39:26.703125,22.62
17:39:26.718750,20.15
17:39:26.734375,15.56
17:39:26.750000,9.09
17:39:26.765625,0.83
17:39:26.781250,-8.80
17:39:26.796875,-18.64
17:39:26.812500,-26.94
17:39:26.828125,-31.91
17:39:26.843750,-32.47
17:39:26.859375,-28.72
17:39:26.875000,-21.82
17:39:26.890625,-13.44
17:39:26.906250,-5.05
17:39:26.921875,2.49
17:39:26.937500,8.92
17:39:26.953125,14.17
17:39:26.968750,18.06
17:39:26.984375,20.12
17:39:27,19.91
17:39:27.015625,17.32
17:39:27.031250,12.91
17:39:27.046875,7.68
17:39:27.062500,2.77
17:39:27.078125,-1.15
17:39:27.093750,-4.14
17:39:27.109375,-6.84
17:39:27.125000,-9.92
17:39:27.140625,-13.49
17:39:27.156250,-16.84
17:39:27.171875,-18.80
17:39:27.187500,-18.47
17:39:27.203125,-15.99
17:39:27.218750,-12.74
17:39:27.234375,-10.98
17:39:27.250000,-12.77
17:39:27.265625,-18.81
17:39:27.281250,-27.75
17:39:27.296875,-36.26
17:39:27.312500,-40.13
17:39:27.328125,-35.87
17:39:27.343750,-22.17
17:39:27.359375,-0.73
17:39:27.375000,24.35
17:39:27.390625,47.90
17:39:27.406250,65.52
17:39:27.421875,74.78
17:39:27.437500,75.42
17:39:27.453125,68.65
17:39:27.468750,56.00
17:39:27.484375,38.60
17:39:27.500000,17.18
17:39:27.515625,-7.24
17:39:27.531250,-32.74
17:39:27.546875,-56.29
17:39:27.562500,-74.46
17:39:27.578125,-84.41
17:39:27.593750,-84.90
17:39:27.609375,-76.54
17:39:27.625000,-61.58
17:39:27.640625,-43.07
17:39:27.656250,-24.04
17:39:27.671875,-6.84
17:39:27.687500,7.20
17:39:27.703125,17.74
17:39:27.718750,25.12
17:39:27.734375,30.01
17:39:27.750000,32.96
17:39:27.765625,34.17
17:39:27.781250,33.56
17:39:27.796875,30.97
17:39:27.812500,26.64
17:39:27.828125,21.34
17:39:27.843750,16.27
17:39:27.859375,12.65
17:39:27.875000,11.07
17:39:27.890625,11.26
17:39:27.906250,12.15
17:39:27.921875,12.38
17:39:27.937500,10.91
17:39:27.953125,7.30
17:39:27.968750,1.78
17:39:27.984375,-5.09
17:39:28,-12.61
17:39:28.015625,-20.17
17:39:28.031250,-27.16
17:39:28.046875,-32.93
17:39:28.062500,-36.91
17:39:28.078125,-38.73
17:39:28.093750,-38.47
17:39:28.109375,-36.68
17:39:28.125000,-34.18
17:39:28.140625,-31.78
17:39:28.156250,-29.98
17:39:28.171875,-29.01
17:39:28.187500,-28.81
17:39:28.203125,-29.25
17:39:28.218750,-30.16
17:39:28.234375,-31.32
17:39:28.250000,-32.35
17:39:28.265625,-32.64
17:39:28.281250,-31.35
17:39:28.296875,-27.54
17:39:28.312500,-20.35
17:39:28.328125,-9.25
17:39:28.343750,5.61
17:39:28.359375,23.23
17:39:28.375000,41.76
17:39:28.390625,58.84
17:39:28.406250,72.15
17:39:28.421875,80.09
17:39:28.437500,82.21
17:39:28.453125,79.22
17:39:28.468750,72.56
17:39:28.484375,63.76
17:39:28.500000,53.88
17:39:28.515625,43.35
17:39:28.531250,32.22
17:39:28.546875,20.75
17:39:28.562500,9.78
17:39:28.578125,0.79
17:39:28.593750,-4.60
17:39:28.609375,-5.40
17:39:28.625000,-1.88
17:39:28.640625,4.23
17:39:28.656250,10.26
17:39:28.671875,13.56
17:39:28.687500,12.47
17:39:28.703125,6.94
17:39:28.718750,-1.52
17:39:28.734375,-10.53
17:39:28.750000,-17.71
17:39:28.765625,-21.50
17:39:28.781250,-21.59
17:39:28.796875,-18.76
17:39:28.812500,-14.39
17:39:28.828125,-9.93
17:39:28.843750,-6.43
17:39:28.859375,-4.49
17:39:28.875000,-4.29
17:39:28.890625,-5.79
17:39:28.906250,-8.70
17:39:28.921875,-12.49
17:39:28.937500,-16.33
17:39:28.953125,-19.23
17:39:28.968750,-20.35
17:39:28.984375,-19.33
17:39:29,-16.40
17:39:29.015625,-12.28
17:39:29.031250,-7.82
17:39:29.046875,-3.72
17:39:29.062500,-0.44
17:39:29.078125,1.81
17:39:29.093750,2.70
17:39:29.109375,1.65
17:39:29.125000,-2.06
17:39:29.140625,-8.89
17:39:29.156250,-18.60
17:39:29.171875,-30.12
17:39:29.187500,-41.49
17:39:29.203125,-50.23
17:39:29.218750,-53.77
17:39:29.234375,-50.17
17:39:29.250000,-39.00
17:39:29.265625,-21.84
17:39:29.281250,-2.03
17:39:29.296875,16.19
17:39:29.312500,29.05
17:39:29.328125,34.46
17:39:29.343750,32.52
17:39:29.359375,25.39
17:39:29.375000,15.87
17:39:29.390625,6.00
17:39:29.406250,-3.64
17:39:29.421875,-13.46
17:39:29.437500,-23.73
17:39:29.453125,-33.75
17:39:29.468750,-41.53
17:39:29.484375,-44.77
17:39:29.500000,-41.16
17:39:29.515625,-30.56
17:39:29.531250,-15.76
17:39:29.546875,-1.88
17:39:29.562500,6.04
17:39:29.578125,5.51
17:39:29.593750,-2.57
17:39:29.609375,-14.22
17:39:29.625000,-24.89
17:39:29.640625,-29.75
17:39:29.656250,-27.12
17:39:29.671875,-19.53
17:39:29.687500,-12.88
17:39:29.703125,-13.17
17:39:29.718750,-23.39
17:39:29.734375,-42.82
17:39:29.750000,-66.76
17:39:29.765625,-89.30
17:39:29.781250,-101.79
17:39:29.796875,-97.49
17:39:29.812500,-74.40
17:39:29.828125,-36.49
17:39:29.843750,8.94
17:39:29.859375,54.62
17:39:29.875000,94.95
17:39:29.890625,128.56
17:39:29.906250,156.17
17:39:29.921875,184.11
17:39:29.937500,219.43
17:39:29.953125,266.55
17:39:29.968750,325.05
17:39:29.984375,391.22
17:39:30,460.13
17:39:30.015625,525.23
17:39:30.031250,580.61
17:39:30.046875,594.14
17:39:30.062500,542.87
17:39:30.078125,428.34
17:39:30.093750,280.64
17:39:30.109375,137.97
17:39:30.125000,25.00
17:39:30.140625,-47.89
17:39:30.156250,-95.12
17:39:30.171875,-129.67
17:39:30.187500,-160.16
17:39:30.203125,-186.93
17:39:30.218750,-207.78
17:39:30.234375,-220.69
17:39:30.250000,-227.50
17:39:30.265625,-231.77
17:39:30.281250,-235.67
17:39:30.296875,-240.04
17:39:30.312500,-243.07
17:39:30.328125,-244.04
17:39:30.343750,-240.30
17:39:30.359375,-229.98
17:39:30.375000,-213.07
17:39:30.390625,-192.18
17:39:30.406250,-170.64
17:39:30.421875,-150.71
17:39:30.437500,-133.96
17:39:30.453125,-120.09
17:39:30.468750,-109.14
17:39:30.484375,-99.42
17:39:30.500000,-89.24
17:39:30.515625,-78.04
17:39:30.531250,-67.32
17:39:30.546875,-59.41
17:39:30.562500,-55.82
17:39:30.578125,-56.98
17:39:30.593750,-61.26
17:39:30.609375,-66.66
17:39:30.625000,-70.43
17:39:30.640625,-70.45
17:39:30.656250,-66.02
17:39:30.671875,-58.23
17:39:30.687500,-48.97
17:39:30.703125,-39.89
17:39:30.718750,-31.99
17:39:30.734375,-25.13
17:39:30.750000,-19.00
17:39:30.765625,-13.04
17:39:30.781250,-6.99
17:39:30.796875,-1.03
17:39:30.812500,4.20
17:39:30.828125,7.99
17:39:30.843750,9.98
17:39:30.859375,10.17
17:39:30.875000,8.96
17:39:30.890625,6.75
17:39:30.906250,3.91
17:39:30.921875,0.68
17:39:30.937500,-2.77
17:39:30.953125,-6.52
17:39:30.968750,-10.79
17:39:30.984375,-15.78
17:39:31,-21.27
17:39:31.015625,-26.21
17:39:31.031250,-28.64
17:39:31.046875,-26.12
17:39:31.062500,-16.72
17:39:31.078125,-0.03
17:39:31.093750,22.27
17:39:31.109375,46.66
17:39:31.125000,68.85
17:39:31.140625,85.14
17:39:31.156250,93.45
17:39:31.171875,93.65
17:39:31.187500,87.13
17:39:31.203125,75.92
17:39:31.218750,61.92
17:39:31.234375,46.54
17:39:31.250000,30.76
17:39:31.265625,15.38
17:39:31.281250,1.28
17:39:31.296875,-10.59
17:39:31.312500,-19.33
17:39:31.328125,-24.32
17:39:31.343750,-25.45
