16:48:47,-0.00
16:48:47.015625,-0.00
16:48:47.031250,-0.00
16:48:47.046875,-0.00
16:48:47.062500,-0.00
16:48:47.078125,-0.00
16:48:47.093750,-0.00
16:48:47.109375,-0.00
16:48:47.125000,-0.00
16:48:47.140625,-0.00
16:48:47.156250,0.00
16:48:47.171875,0.01
16:48:47.187500,0.01
16:48:47.203125,-0.00
16:48:47.218750,-0.03
16:48:47.234375,-0.05
16:48:47.250000,-0.05
16:48:47.265625,0.00
16:48:47.281250,0.13
16:48:47.296875,0.36
16:48:47.312500,0.66
16:48:47.328125,1.01
16:48:47.343750,1.37
16:48:47.359375,1.72
16:48:47.375000,2.06
16:48:47.390625,2.40
16:48:47.406250,2.79
16:48:47.421875,3.24
16:48:47.437500,3.80
16:48:47.453125,4.42
16:48:47.468750,5.06
16:48:47.484375,5.66
16:48:47.500000,6.20
16:48:47.515625,6.68
16:48:47.531250,7.15
16:48:47.546875,7.68
16:48:47.562500,8.31
16:48:47.578125,9.14
16:48:47.593750,10.09
16:48:47.609375,11.04
16:48:47.625000,11.88
16:48:47.640625,12.56
16:48:47.656250,13.14
16:48:47.671875,13.76
16:48:47.687500,14.65
16:48:47.703125,15.96
16:48:47.718750,17.91
16:48:47.734375,20.32
16:48:47.750000,22.90
16:48:47.765625,25.38
16:48:47.781250,27.58
16:48:47.796875,29.57
16:48:47.812500,31.68
16:48:47.828125,34.32
16:48:47.843750,37.81
16:48:47.859375,42.54
16:48:47.875000,48.15
16:48:47.890625,54.10
16:48:47.906250,59.83
16:48:47.921875,64.97
16:48:47.937500,69.58
16:48:47.953125,74.14
16:48:47.968750,79.34
16:48:47.984375,85.71
16:48:48,93.76
16:48:48.015625,103.00
16:48:48.031250,112.62
16:48:48.046875,121.73
16:48:48.062500,129.77
16:48:48.078125,136.75
16:48:48.093750,143.30
16:48:48.109375,150.75
16:48:48.125000,157.77
16:48:48.140625,166.64
16:48:48.156250,177.95
16:48:48.171875,191.79
16:48:48.187500,206.97
16:48:48.203125,220.57
16:48:48.218750,228.25
16:48:48.234375,225.36
16:48:48.250000,208.53
16:48:48.265625,176.87
16:48:48.281250,132.76
16:48:48.296875,80.05
16:48:48.312500,23.07
16:48:48.328125,-34.94
16:48:48.343750,-92.44
16:48:48.359375,-149.16
16:48:48.375000,-205.23
16:48:48.390625,-260.37
16:48:48.406250,-313.74
16:48:48.421875,-363.87
16:48:48.437500,-409.83
16:48:48.453125,-450.91
16:48:48.468750,-486.50
16:48:48.484375,-515.74
16:48:48.500000,-537.23
16:48:48.515625,-549.22
16:48:48.531250,-549.96
16:48:48.546875,-538.37
16:48:48.562500,-514.21
16:48:48.578125,-478.67
16:48:48.593750,-433.88
16:48:48.609375,-382.45
16:48:48.625000,-327.02
16:48:48.640625,-269.84
16:48:48.656250,-212.64
16:48:48.671875,-156.66
16:48:48.687500,-102.95
16:48:48.703125,-52.36
16:48:48.718750,-5.88
16:48:48.734375,35.61
16:48:48.750000,71.44
16:48:48.765625,101.33
16:48:48.781250,125.42
16:48:48.796875,144.23
16:48:48.812500,158.46
16:48:48.828125,168.86
16:48:48.843750,176.03
16:48:48.859375,180.38
16:48:48.875000,182.18
16:48:48.890625,181.66
16:48:48.906250,179.08
16:48:48.921875,174.81
16:48:48.937500,169.24
16:48:48.953125,162.79
16:48:48.968750,155.80
16:48:48.984375,148.49
16:48:49,141.00
16:48:49.015625,133.39
16:48:49.031250,125.69
16:48:49.046875,117.93
16:48:49.062500,110.20
16:48:49.078125,102.56
16:48:49.093750,95.11
16:48:49.109375,87.91
16:48:49.125000,81.00
16:48:49.140625,74.36
16:48:49.156250,67.97
16:48:49.171875,61.78
16:48:49.187500,55.81
16:48:49.203125,50.07
16:48:49.218750,44.61
16:48:49.234375,39.50
16:48:49.250000,34.78
16:48:49.265625,30.44
16:48:49.281250,26.43
16:48:49.296875,22.67
16:48:49.312500,19.10
16:48:49.328125,15.70
16:48:49.343750,12.49
16:48:49.359375,9.53
16:48:49.375000,6.88
16:48:49.390625,4.56
16:48:49.406250,2.52
16:48:49.421875,0.68
16:48:49.437500,-1.03
16:48:49.453125,-2.64
16:48:49.468750,-4.12
16:48:49.484375,-5.42
16:48:49.500000,-6.52
16:48:49.515625,-7.45
16:48:49.531250,-8.38
16:48:49.546875,-9.45
16:48:49.562500,-10.70
16:48:49.578125,-12.01
16:48:49.593750,-13.09
16:48:49.609375,-13.74
16:48:49.625000,-14.01
16:48:49.640625,-14.45
16:48:49.656250,-15.76
16:48:49.671875,-18.32
16:48:49.687500,-21.54
16:48:49.703125,-23.92
16:48:49.718750,-23.51
16:48:49.734375,-18.87
16:48:49.750000,-9.84
16:48:49.765625,2.32
16:48:49.781250,15.54
16:48:49.796875,27.77
16:48:49.812500,37.58
16:48:49.828125,44.11
16:48:49.843750,46.69
16:48:49.859375,44.52
16:48:49.875000,36.91
16:48:49.890625,24.00
16:48:49.906250,7.22
16:48:49.921875,-10.86
16:48:49.937500,-27.31
16:48:49.953125,-40.11
16:48:49.968750,-48.76
16:48:49.984375,-54.20
16:48:50,-57.75
16:48:50.015625,-60.09
16:48:50.031250,-60.94
16:48:50.046875,-59.47
16:48:50.062500,-55.13
16:48:50.078125,-48.10
16:48:50.093750,-39.31
16:48:50.109375,-29.77
16:48:50.125000,-19.81
16:48:50.140625,-8.94
16:48:50.156250,3.82
16:48:50.171875,19.15
16:48:50.187500,36.74
16:48:50.203125,55.04
16:48:50.218750,71.70
16:48:50.234375,84.38
16:48:50.250000,91.75
16:48:50.265625,94.03
16:48:50.281250,92.88
16:48:50.296875,90.81
16:48:50.312500,90.23
16:48:50.328125,92.53
16:48:50.343750,97.49
16:48:50.359375,103.29
16:48:50.375000,106.98
16:48:50.390625,105.56
16:48:50.406250,96.95
16:48:50.421875,80.84
16:48:50.437500,59.14
16:48:50.453125,35.77
16:48:50.468750,15.64
16:48:50.484375,3.02
16:48:50.500000,-0.19
16:48:50.515625,4.50
16:48:50.531250,12.58
16:48:50.546875,18.25
16:48:50.562500,17.00
16:48:50.578125,7.52
16:48:50.593750,-7.94
16:48:50.609375,-25.01
16:48:50.625000,-39.62
16:48:50.640625,-49.80
16:48:50.656250,-56.12
16:48:50.671875,-60.48
16:48:50.687500,-64.42
16:48:50.703125,-67.78
16:48:50.718750,-68.96
16:48:50.734375,-66.32
16:48:50.750000,-59.63
16:48:50.765625,-50.75
16:48:50.781250,-42.97
16:48:50.796875,-39.37
16:48:50.812500,-41.53
16:48:50.828125,-49.10
16:48:50.843750,-60.18
16:48:50.859375,-72.14
16:48:50.875000,-82.14
16:48:50.890625,-87.35
16:48:50.906250,-85.43
16:48:50.921875,-75.13
16:48:50.937500,-57.02
16:48:50.953125,-33.74
16:48:50.968750,-9.42
16:48:50.984375,11.96
16:48:51,27.62
16:48:51.015625,37.37
16:48:51.031250,42.82
16:48:51.046875,45.89
16:48:51.062500,47.78
16:48:51.078125,48.51
16:48:51.093750,47.93
16:48:51.109375,46.27
16:48:51.125000,45.03
16:48:51.140625,46.29
16:48:51.156250,51.81
16:48:51.171875,61.96
16:48:51.187500,75.48
16:48:51.203125,89.57
16:48:51.218750,100.31
16:48:51.234375,103.39
16:48:51.250000,95.55
16:48:51.265625,75.97
16:48:51.281250,46.90
16:48:51.296875,13.52
16:48:51.312500,-17.99
16:48:51.328125,-42.44
16:48:51.343750,-57.56
16:48:51.359375,-64.34
16:48:51.375000,-65.33
16:48:51.390625,-64.07
16:48:51.406250,-62.49
16:48:51.421875,-61.23
16:48:51.437500,-59.50
16:48:51.453125,-57.24
16:48:51.468750,-55.38
16:48:51.484375,-55.90
16:48:51.500000,-60.87
16:48:51.515625,-71.19
16:48:51.531250,-85.44
16:48:51.546875,-99.66
16:48:51.562500,-108.18
16:48:51.578125,-105.42
16:48:51.593750,-88.60
16:48:51.609375,-58.98
16:48:51.625000,-22.18
16:48:51.640625,14.15
16:48:51.656250,42.14
16:48:51.671875,58.16
16:48:51.687500,63.52
16:48:51.703125,62.57
16:48:51.718750,60.68
16:48:51.734375,60.58
16:48:51.750000,62.89
16:48:51.765625,66.57
16:48:51.781250,70.92
16:48:51.796875,76.60
16:48:51.812500,85.18
16:48:51.828125,97.18
16:48:51.843750,110.27
16:48:51.859375,119.22
16:48:51.875000,117.73
16:48:51.890625,101.52
16:48:51.906250,70.56
16:48:51.921875,30.18
16:48:51.937500,-10.91
16:48:51.953125,-44.13
16:48:51.968750,-64.02
16:48:51.984375,-71.02
16:48:52,-69.84
16:48:52.015625,-66.90
16:48:52.031250,-65.40
16:48:52.046875,-66.41
16:48:52.062500,-69.22
16:48:52.078125,-72.84
16:48:52.093750,-77.48
16:48:52.109375,-84.21
16:48:52.125000,-93.47
16:48:52.140625,-104.05
16:48:52.156250,-112.59
16:48:52.171875,-114.55
16:48:52.187500,-106.24
16:48:52.203125,-85.99
16:48:52.218750,-54.98
16:48:52.234375,-18.06
16:48:52.250000,18.48
16:48:52.265625,49.71
16:48:52.281250,71.95
16:48:52.296875,84.42
16:48:52.312500,90.49
16:48:52.328125,92.90
16:48:52.343750,94.09
16:48:52.359375,96.70
16:48:52.375000,101.96
16:48:52.390625,111.41
16:48:52.406250,126.93
16:48:52.421875,147.89
16:48:52.437500,170.40
16:48:52.453125,186.90
16:48:52.468750,188.90
16:48:52.484375,171.21
16:48:52.500000,134.83
16:48:52.515625,84.14
16:48:52.531250,25.22
16:48:52.546875,-31.35
16:48:52.562500,-76.15
16:48:52.578125,-102.08
16:48:52.593750,-109.22
16:48:52.609375,-103.98
16:48:52.625000,-99.71
16:48:52.640625,-103.22
16:48:52.656250,-119.37
16:48:52.671875,-149.71
16:48:52.687500,-188.20
16:48:52.703125,-227.12
16:48:52.718750,-257.26
16:48:52.734375,-271.09
16:48:52.750000,-264.12
16:48:52.765625,-236.37
16:48:52.781250,-183.70
16:48:52.796875,-114.89
16:48:52.812500,-45.08
16:48:52.828125,13.71
16:48:52.843750,57.19
16:48:52.859375,92.57
16:48:52.875000,125.95
16:48:52.890625,160.85
16:48:52.906250,197.07
16:48:52.921875,234.90
16:48:52.937500,272.28
16:48:52.953125,307.06
16:48:52.968750,336.56
16:48:52.984375,356.26
16:48:53,360.93
16:48:53.015625,346.05
16:48:53.031250,311.05
16:48:53.046875,259.86
16:48:53.062500,199.50
16:48:53.078125,135.33
16:48:53.093750,71.61
16:48:53.109375,12.16
16:48:53.125000,-38.98
16:48:53.140625,-77.05
16:48:53.156250,-98.16
16:48:53.171875,-100.66
16:48:53.187500,-87.78
16:48:53.203125,-68.08
16:48:53.218750,-54.54
16:48:53.234375,-58.09
16:48:53.250000,-82.34
16:48:53.265625,-121.74
16:48:53.281250,-163.74
16:48:53.296875,-195.14
16:48:53.312500,-207.71
16:48:53.328125,-201.69
16:48:53.343750,-184.50
16:48:53.359375,-166.67
16:48:53.375000,-155.37
16:48:53.390625,-151.06
16:48:53.406250,-148.34
16:48:53.421875,-139.93
16:48:53.437500,-121.48
16:48:53.453125,-93.80
16:48:53.468750,-62.34
16:48:53.484375,-33.99
16:48:53.500000,-13.70
16:48:53.515625,-2.26
16:48:53.531250,3.12
16:48:53.546875,6.00
16:48:53.562500,7.84
16:48:53.578125,6.59
16:48:53.593750,-1.91
16:48:53.609375,-20.85
16:48:53.625000,-49.12
16:48:53.640625,-80.54
16:48:53.656250,-105.87
16:48:53.671875,-117.16
16:48:53.687500,-111.87
16:48:53.703125,-94.62
16:48:53.718750,-75.53
16:48:53.734375,-65.76
16:48:53.750000,-72.95
16:48:53.765625,-98.49
16:48:53.781250,-137.80
16:48:53.796875,-182.70
16:48:53.812500,-224.58
16:48:53.828125,-256.42
16:48:53.843750,-273.49
16:48:53.859375,-273.39
16:48:53.875000,-256.21
16:48:53.890625,-225.05
16:48:53.906250,-186.11
16:48:53.921875,-147.39
16:48:53.937500,-116.16
16:48:53.953125,-96.08
16:48:53.968750,-85.76
16:48:53.984375,-79.54
16:48:54,-70.40
16:48:54.015625,-53.25
16:48:54.031250,-26.90
16:48:54.046875,6.19
16:48:54.062500,42.12
16:48:54.078125,78.13
16:48:54.093750,113.89
16:48:54.109375,151.35
16:48:54.125000,193.25
16:48:54.140625,241.41
16:48:54.156250,295.26
16:48:54.171875,351.32
16:48:54.187500,403.72
16:48:54.203125,445.54
16:48:54.218750,470.89
16:48:54.234375,477.10
16:48:54.250000,466.07
16:48:54.265625,443.61
16:48:54.281250,416.94
16:48:54.296875,391.31
16:48:54.312500,367.80
16:48:54.328125,343.34
16:48:54.343750,313.20
16:48:54.359375,274.29
16:48:54.375000,227.27
16:48:54.390625,176.28
16:48:54.406250,126.39
16:48:54.421875,80.92
16:48:54.437500,39.79
16:48:54.453125,0.18
16:48:54.468750,-41.33
16:48:54.484375,-86.75
16:48:54.500000,-136.08
16:48:54.515625,-188.21
16:48:54.531250,-242.33
16:48:54.546875,-298.47
16:48:54.562500,-356.51
16:48:54.578125,-414.45
16:48:54.593750,-467.28
16:48:54.609375,-507.74
16:48:54.625000,-528.85
16:48:54.640625,-526.62
16:48:54.656250,-501.90
16:48:54.671875,-459.80
16:48:54.687500,-407.30
16:48:54.703125,-350.63
16:48:54.718750,-293.90
16:48:54.734375,-239.57
16:48:54.750000,-189.81
16:48:54.765625,-147.24
16:48:54.781250,-114.06
16:48:54.796875,-90.30
16:48:54.812500,-72.39
16:48:54.828125,-53.80
16:48:54.843750,-27.68
16:48:54.859375,9.59
16:48:54.875000,56.24
16:48:54.890625,105.55
16:48:54.906250,148.70
16:48:54.921875,178.85
16:48:54.937500,193.88
16:48:54.953125,196.73
16:48:54.968750,193.35
16:48:54.984375,189.76
16:48:55,189.74
16:48:55.015625,194.18
16:48:55.031250,201.86
16:48:55.046875,210.61
16:48:55.062500,218.33
16:48:55.078125,223.13
16:48:55.093750,223.54
16:48:55.109375,218.55
16:48:55.125000,208.18
16:48:55.140625,193.90
16:48:55.156250,178.68
16:48:55.171875,166.05
16:48:55.187500,158.89
16:48:55.203125,158.31
16:48:55.218750,163.35
16:48:55.234375,171.58
16:48:55.250000,180.25
16:48:55.265625,187.19
16:48:55.281250,191.10
16:48:55.296875,190.98
16:48:55.312500,185.57
16:48:55.328125,173.30
16:48:55.343750,153.07
16:48:55.359375,125.34
16:48:55.375000,92.82
16:48:55.390625,59.89
16:48:55.406250,31.07
16:48:55.421875,9.11
16:48:55.437500,-6.17
16:48:55.453125,-17.56
16:48:55.468750,-28.93
16:48:55.484375,-43.19
16:48:55.500000,-60.84
16:48:55.515625,-79.81
16:48:55.531250,-96.50
16:48:55.546875,-107.49
16:48:55.562500,-111.07
16:48:55.578125,-108.02
16:48:55.593750,-101.22
16:48:55.609375,-94.48
16:48:55.625000,-90.96
16:48:55.640625,-91.83
16:48:55.656250,-95.63
16:48:55.671875,-98.99
16:48:55.687500,-98.26
16:48:55.703125,-91.47
16:48:55.718750,-79.47
16:48:55.734375,-65.71
16:48:55.750000,-54.91
16:48:55.765625,-51.20
16:48:55.781250,-56.83
16:48:55.796875,-72.00
16:48:55.812500,-95.05
16:48:55.828125,-122.68
16:48:55.843750,-150.24
16:48:55.859375,-172.33
16:48:55.875000,-184.30
16:48:55.890625,-184.47
16:48:55.906250,-175.46
16:48:55.921875,-163.73
16:48:55.937500,-156.54
16:48:55.953125,-157.91
16:48:55.968750,-165.75
16:48:55.984375,-172.50
16:48:56,-168.76
16:48:56.015625,-147.92
16:48:56.031250,-109.29
16:48:56.046875,-57.75
16:48:56.062500,-1.08
16:48:56.078125,53.35
16:48:56.093750,100.60
16:48:56.109375,138.73
16:48:56.125000,167.61
16:48:56.140625,188.39
16:48:56.156250,203.54
16:48:56.171875,216.78
16:48:56.187500,231.92
16:48:56.203125,250.85
16:48:56.218750,271.82
16:48:56.234375,289.61
16:48:56.250000,298.32
16:48:56.265625,293.12
16:48:56.281250,272.29
16:48:56.296875,237.79
16:48:56.312500,194.16
16:48:56.328125,146.41
16:48:56.343750,98.35
16:48:56.359375,51.95
16:48:56.375000,7.70
16:48:56.390625,-33.16
16:48:56.406250,-70.66
16:48:56.421875,-106.27
16:48:56.437500,-141.91
16:48:56.453125,-177.89
16:48:56.468750,-211.65
16:48:56.484375,-238.27
16:48:56.500000,-252.32
16:48:56.515625,-250.18
16:48:56.531250,-229.04
16:48:56.546875,-190.87
16:48:56.562500,-141.79
16:48:56.578125,-89.44
16:48:56.593750,-39.65
16:48:56.609375,5.15
16:48:56.625000,45.37
16:48:56.640625,83.00
16:48:56.656250,120.76
16:48:56.671875,164.86
16:48:56.687500,218.51
16:48:56.703125,280.08
16:48:56.718750,342.68
16:48:56.734375,396.71
16:48:56.750000,433.16
16:48:56.765625,446.09
16:48:56.781250,434.12
16:48:56.796875,379.90
16:48:56.812500,283.53
16:48:56.828125,162.47
16:48:56.843750,44.14
16:48:56.859375,-50.88
16:48:56.875000,-116.26
16:48:56.890625,-155.41
16:48:56.906250,-175.07
16:48:56.921875,-181.81
16:48:56.937500,-181.34
16:48:56.953125,-174.92
16:48:56.968750,-166.09
16:48:56.984375,-160.12
16:48:57,-160.66
16:48:57.015625,-168.37
16:48:57.031250,-180.25
16:48:57.046875,-190.74
16:48:57.062500,-193.50
16:48:57.078125,-183.85
16:48:57.093750,-153.92
16:48:57.109375,-107.99
16:48:57.125000,-57.23
16:48:57.140625,-14.09
16:48:57.156250,14.43
16:48:57.171875,28.77
16:48:57.187500,34.57
16:48:57.203125,40.14
16:48:57.218750,47.58
16:48:57.234375,58.86
16:48:57.250000,67.55
16:48:57.265625,66.15
16:48:57.281250,49.86
16:48:57.296875,19.90
16:48:57.312500,-18.06
16:48:57.328125,-57.24
16:48:57.343750,-91.41
16:48:57.359375,-116.73
16:48:57.375000,-126.58
16:48:57.390625,-121.98
16:48:57.406250,-107.84
16:48:57.421875,-93.71
16:48:57.437500,-82.55
16:48:57.453125,-76.14
16:48:57.468750,-78.08
16:48:57.484375,-91.57
16:48:57.500000,-117.43
16:48:57.515625,-149.30
16:48:57.531250,-180.49
16:48:57.546875,-202.50
16:48:57.562500,-207.87
16:48:57.578125,-192.04
16:48:57.593750,-149.57
16:48:57.609375,-88.01
16:48:57.625000,-24.13
16:48:57.640625,26.07
16:48:57.656250,56.60
16:48:57.671875,70.83
16:48:57.687500,80.00
16:48:57.703125,92.93
16:48:57.718750,111.33
16:48:57.734375,132.49
16:48:57.750000,150.80
16:48:57.765625,158.48
16:48:57.781250,151.28
16:48:57.796875,130.63
16:48:57.812500,102.18
16:48:57.828125,74.86
16:48:57.843750,55.57
16:48:57.859375,50.95
16:48:57.875000,62.09
16:48:57.890625,82.08
16:48:57.906250,99.86
16:48:57.921875,105.47
16:48:57.937500,93.22
16:48:57.953125,62.00
16:48:57.968750,15.04
16:48:57.984375,-41.47
16:48:58,-99.02
16:48:58.015625,-148.53
16:48:58.031250,-182.29
16:48:58.046875,-194.77
16:48:58.062500,-183.52
16:48:58.078125,-150.42
16:48:58.093750,-101.40
16:48:58.109375,-44.04
16:48:58.125000,14.65
16:48:58.140625,69.56
16:48:58.156250,116.47
16:48:58.171875,150.59
16:48:58.187500,167.31
16:48:58.203125,164.07
16:48:58.218750,142.26
16:48:58.234375,106.95
16:48:58.250000,65.95
16:48:58.265625,26.66
16:48:58.281250,-6.54
16:48:58.296875,-32.93
16:48:58.312500,-54.00
16:48:58.328125,-70.65
16:48:58.343750,-81.14
16:48:58.359375,-81.80
16:48:58.375000,-71.20
16:48:58.390625,-52.54
16:48:58.406250,-34.33
16:48:58.421875,-27.22
16:48:58.437500,-38.64
16:48:58.453125,-68.40
16:48:58.468750,-107.65
16:48:58.484375,-142.35
16:48:58.500000,-159.27
16:48:58.515625,-152.90
16:48:58.531250,-126.05
16:48:58.546875,-87.23
16:48:58.562500,-44.93
16:48:58.578125,-2.91
16:48:58.593750,40.61
16:48:58.609375,89.90
16:48:58.625000,143.47
16:48:58.640625,199.29
16:48:58.656250,246.77
16:48:58.671875,273.92
16:48:58.687500,272.69
16:48:58.703125,242.51
16:48:58.718750,190.30
16:48:58.734375,127.14
16:48:58.750000,63.94
16:48:58.765625,8.47
16:48:58.781250,-35.25
16:48:58.796875,-67.20
16:48:58.812500,-89.01
16:48:58.828125,-103.34
16:48:58.843750,-113.73
16:48:58.859375,-124.24
16:48:58.875000,-138.71
16:48:58.890625,-159.36
16:48:58.906250,-185.42
16:48:58.921875,-212.53
16:48:58.937500,-234.78
16:48:58.953125,-246.02
16:48:58.968750,-242.05
16:48:58.984375,-222.05
16:48:59,-188.51
16:48:59.015625,-146.17
16:48:59.031250,-100.42
16:48:59.046875,-55.75
16:48:59.062500,-14.75
16:48:59.078125,21.59
16:48:59.093750,54.21
16:48:59.109375,85.50
16:48:59.125000,118.75
16:48:59.140625,157.32
16:48:59.156250,203.08
16:48:59.171875,254.62
16:48:59.187500,306.39
16:48:59.203125,349.39
16:48:59.218750,373.83
16:48:59.234375,373.12
16:48:59.250000,346.27
16:48:59.265625,298.01
16:48:59.281250,236.51
16:48:59.296875,170.23
16:48:59.312500,106.06
16:48:59.328125,49.06
16:48:59.343750,2.77
16:48:59.359375,-30.83
16:48:59.375000,-51.94
16:48:59.390625,-63.31
16:48:59.406250,-69.18
16:48:59.421875,-73.16
16:48:59.437500,-76.18
16:48:59.453125,-76.19
16:48:59.468750,-70.31
16:48:59.484375,-57.71
16:48:59.500000,-41.20
16:48:59.515625,-26.61
16:48:59.531250,-20.15
16:48:59.546875,-25.53
16:48:59.562500,-42.68
16:48:59.578125,-68.37
16:48:59.593750,-97.92
16:48:59.609375,-126.39
16:48:59.625000,-148.94
16:48:59.640625,-160.98
16:48:59.656250,-158.97
16:48:59.671875,-142.30
16:48:59.687500,-114.62
16:48:59.703125,-83.47
16:48:59.718750,-57.35
16:48:59.734375,-41.75
16:48:59.750000,-36.45
16:48:59.765625,-35.36
16:48:59.781250,-29.34
16:48:59.796875,-10.83
16:48:59.812500,22.54
16:48:59.828125,66.69
16:48:59.843750,112.67
16:48:59.859375,150.21
16:48:59.875000,171.73
16:48:59.890625,175.02
16:48:59.906250,163.52
16:48:59.921875,144.02
16:48:59.937500,123.24
16:48:59.953125,104.46
16:48:59.968750,86.22
16:48:59.984375,63.52
16:49:00,31.19
16:49:00.015625,-12.77
16:49:00.031250,-65.75
16:49:00.046875,-121.43
16:49:00.062500,-172.03
16:49:00.078125,-210.85
16:49:00.093750,-233.38
16:49:00.109375,-237.45
16:49:00.125000,-223.22
16:49:00.140625,-193.97
16:49:00.156250,-156.80
16:49:00.171875,-122.33
16:49:00.187500,-101.71
16:49:00.203125,-101.76
16:49:00.218750,-120.87
16:49:00.234375,-148.60
16:49:00.250000,-170.08
16:49:00.265625,-173.27
16:49:00.281250,-154.81
16:49:00.296875,-121.13
16:49:00.312500,-84.31
16:49:00.328125,-55.07
16:49:00.343750,-37.26
16:49:00.359375,-27.09
16:49:00.375000,-16.52
16:49:00.390625,1.70
16:49:00.406250,30.48
16:49:00.421875,67.87
16:49:00.437500,109.09
16:49:00.453125,149.02
16:49:00.468750,183.73
16:49:00.484375,210.64
16:49:00.500000,228.04
16:49:00.515625,235.08
16:49:00.531250,232.24
16:49:00.546875,221.46
16:49:00.562500,205.64
16:49:00.578125,187.58
16:49:00.593750,168.73
16:49:00.609375,149.18
16:49:00.625000,128.30
16:49:00.640625,105.63
16:49:00.656250,81.52
16:49:00.671875,56.95
16:49:00.687500,33.06
16:49:00.703125,11.04
16:49:00.718750,-7.77
16:49:00.734375,-21.72
16:49:00.750000,-29.32
16:49:00.765625,-30.23
16:49:00.781250,-26.04
16:49:00.796875,-20.06
16:49:00.812500,-16.14
16:49:00.828125,-17.17
16:49:00.843750,-24.10
16:49:00.859375,-36.22
16:49:00.875000,-52.33
16:49:00.890625,-71.61
16:49:00.906250,-93.69
16:49:00.921875,-117.57
16:49:00.937500,-140.55
16:49:00.953125,-158.22
16:49:00.968750,-166.12
16:49:00.984375,-161.82
16:49:01,-146.54
16:49:01.015625,-124.84
16:49:01.031250,-102.38
16:49:01.046875,-83.07
16:49:01.062500,-67.09
16:49:01.078125,-50.90
16:49:01.093750,-29.00
16:49:01.109375,3.35
16:49:01.125000,47.92
16:49:01.140625,102.44
16:49:01.156250,160.78
16:49:01.171875,214.43
16:49:01.187500,254.54
16:49:01.203125,273.98
16:49:01.218750,269.20
16:49:01.234375,240.99
16:49:01.250000,194.36
16:49:01.265625,137.36
16:49:01.281250,78.88
16:49:01.296875,26.33
16:49:01.312500,-16.36
16:49:01.328125,-49.36
16:49:01.343750,-76.04
16:49:01.359375,-100.86
16:49:01.375000,-126.95
16:49:01.390625,-154.48
16:49:01.406250,-180.43
16:49:01.421875,-199.98
16:49:01.437500,-208.55
16:49:01.453125,-203.82
16:49:01.468750,-186.64
16:49:01.484375,-160.79
16:49:01.500000,-131.85
16:49:01.515625,-105.97
16:49:01.531250,-88.89
16:49:01.546875,-84.78
16:49:01.562500,-95.23
16:49:01.578125,-118.16
16:49:01.593750,-147.65
16:49:01.609375,-175.29
16:49:01.625000,-192.98
16:49:01.640625,-196.05
16:49:01.656250,-185.22
16:49:01.671875,-166.07
16:49:01.687500,-146.37
16:49:01.703125,-132.74
16:49:01.718750,-127.89
16:49:01.734375,-130.14
16:49:01.750000,-134.86
16:49:01.765625,-136.87
16:49:01.781250,-132.31
16:49:01.796875,-119.57
16:49:01.812500,-99.14
16:49:01.828125,-73.01
16:49:01.843750,-44.03
16:49:01.859375,-15.16
16:49:01.875000,11.29
16:49:01.890625,34.33
16:49:01.906250,54.58
16:49:01.921875,73.89
16:49:01.937500,93.95
16:49:01.953125,115.04
16:49:01.968750,135.43
16:49:01.984375,152.12
16:49:02,162.69
16:49:02.015625,167.16
16:49:02.031250,168.75
16:49:02.046875,172.79
16:49:02.062500,184.22
16:49:02.078125,204.83
16:49:02.093750,231.87
16:49:02.109375,258.95
16:49:02.125000,278.93
16:49:02.140625,287.31
16:49:02.156250,284.43
16:49:02.171875,275.11
16:49:02.187500,266.00
16:49:02.203125,261.75
16:49:02.218750,262.49
16:49:02.234375,263.85
16:49:02.250000,259.68
16:49:02.265625,245.75
16:49:02.281250,222.50
16:49:02.296875,195.07
16:49:02.312500,170.86
16:49:02.328125,155.87
16:49:02.343750,151.86
16:49:02.359375,155.85
16:49:02.375000,161.89
16:49:02.390625,164.05
16:49:02.406250,159.13
16:49:02.421875,147.83
16:49:02.437500,134.05
16:49:02.453125,122.79
16:49:02.468750,117.73
16:49:02.484375,119.63
16:49:02.500000,125.96
16:49:02.515625,131.92
16:49:02.531250,132.34
16:49:02.546875,123.65
16:49:02.562500,105.13
16:49:02.578125,78.81
16:49:02.593750,48.17
16:49:02.609375,16.54
16:49:02.625000,-14.30
16:49:02.640625,-44.38
16:49:02.656250,-74.88
16:49:02.671875,-106.96
16:49:02.687500,-140.88
16:49:02.703125,-175.85
16:49:02.718750,-210.63
16:49:02.734375,-244.32
16:49:02.750000,-276.77
16:49:02.765625,-308.31
16:49:02.781250,-339.11
16:49:02.796875,-368.62
16:49:02.812500,-395.40
16:49:02.828125,-417.23
16:49:02.843750,-431.46
16:49:02.859375,-435.53
16:49:02.875000,-427.67
16:49:02.890625,-407.27
16:49:02.906250,-374.96
16:49:02.921875,-332.33
16:49:02.937500,-281.78
16:49:02.953125,-226.52
16:49:02.968750,-170.20
16:49:02.984375,-116.74
16:49:03,-69.87
16:49:03.015625,-32.60
16:49:03.031250,-5.94
16:49:03.046875,12.09
16:49:03.062500,26.27
16:49:03.078125,42.26
16:49:03.093750,63.63
16:49:03.109375,90.68
16:49:03.125000,120.75
16:49:03.140625,149.86
16:49:03.156250,174.24
16:49:03.171875,192.04
16:49:03.187500,203.53
16:49:03.203125,209.91
16:49:03.218750,211.42
16:49:03.234375,206.37
16:49:03.250000,193.35
16:49:03.265625,173.73
16:49:03.281250,152.19
16:49:03.296875,134.01
16:49:03.312500,122.60
16:49:03.328125,117.21
16:49:03.343750,113.19
16:49:03.359375,103.28
16:49:03.375000,80.64
16:49:03.390625,42.98
16:49:03.406250,-5.16
16:49:03.421875,-51.56
16:49:03.437500,-83.00
16:49:03.453125,-92.83
16:49:03.468750,-84.29
16:49:03.484375,-70.64
16:49:03.500000,-61.21
16:49:03.515625,-62.03
16:49:03.531250,-76.21
16:49:03.546875,-103.58
16:49:03.562500,-138.75
16:49:03.578125,-176.46
16:49:03.593750,-210.70
16:49:03.609375,-235.18
16:49:03.625000,-235.92
16:49:03.640625,-205.04
16:49:03.656250,-147.13
16:49:03.671875,-78.36
16:49:03.687500,-15.80
16:49:03.703125,31.06
16:49:03.718750,61.62
16:49:03.734375,83.18
16:49:03.750000,102.26
16:49:03.765625,123.72
16:49:03.781250,149.43
16:49:03.796875,179.38
16:49:03.812500,208.78
16:49:03.828125,233.42
16:49:03.843750,249.67
16:49:03.859375,253.50
16:49:03.875000,241.58
16:49:03.890625,212.19
16:49:03.906250,167.69
16:49:03.921875,112.74
16:49:03.937500,53.43
16:49:03.953125,-6.61
16:49:03.968750,-63.89
16:49:03.984375,-112.01
16:49:04,-143.55
16:49:04.015625,-154.40
16:49:04.031250,-147.18
16:49:04.046875,-128.04
16:49:04.062500,-108.93
16:49:04.078125,-94.97
16:49:04.093750,-91.43
16:49:04.109375,-101.88
16:49:04.125000,-127.60
16:49:04.140625,-164.75
16:49:04.156250,-208.11
16:49:04.171875,-251.78
16:49:04.187500,-287.64
16:49:04.203125,-307.47
16:49:04.218750,-296.33
16:49:04.234375,-251.12
16:49:04.250000,-182.47
16:49:04.265625,-109.64
16:49:04.281250,-53.23
16:49:04.296875,-14.58
16:49:04.312500,11.54
16:49:04.328125,32.83
16:49:04.343750,54.82
16:49:04.359375,81.68
16:49:04.375000,113.48
16:49:04.390625,148.91
16:49:04.406250,186.22
16:49:04.421875,222.51
16:49:04.437500,253.08
16:49:04.453125,270.71
16:49:04.468750,270.02
16:49:04.484375,250.20
16:49:04.500000,215.99
16:49:04.515625,173.86
16:49:04.531250,130.95
16:49:04.546875,92.95
16:49:04.562500,62.58
16:49:04.578125,39.44
16:49:04.593750,19.71
16:49:04.609375,-0.73
16:49:04.625000,-24.50
16:49:04.640625,-51.69
16:49:04.656250,-80.95
16:49:04.671875,-108.73
16:49:04.687500,-129.95
16:49:04.703125,-139.83
16:49:04.718750,-136.19
16:49:04.734375,-121.70
16:49:04.750000,-102.27
16:49:04.765625,-84.25
16:49:04.781250,-71.52
16:49:04.796875,-64.51
16:49:04.812500,-59.93
16:49:04.828125,-52.56
16:49:04.843750,-37.80
16:49:04.859375,-13.64
16:49:04.875000,18.25
16:49:04.890625,53.72
16:49:04.906250,87.66
16:49:04.921875,115.46
16:49:04.937500,133.61
16:49:04.953125,140.24
16:49:04.968750,135.19
16:49:04.984375,119.78
16:49:05,96.65
16:49:05.015625,69.33
16:49:05.031250,42.16
16:49:05.046875,19.72
16:49:05.062500,5.87
16:49:05.078125,2.61
16:49:05.093750,9.38
16:49:05.109375,22.97
16:49:05.125000,38.44
16:49:05.140625,50.71
16:49:05.156250,56.28
16:49:05.171875,54.26
16:49:05.187500,46.29
16:49:05.203125,35.56
16:49:05.218750,25.29
16:49:05.234375,17.56
16:49:05.250000,12.87
16:49:05.265625,10.30
16:49:05.281250,8.24
16:49:05.296875,5.28
16:49:05.312500,0.93
16:49:05.328125,-4.24
16:49:05.343750,-8.89
16:49:05.359375,-11.65
16:49:05.375000,-11.87
16:49:05.390625,-10.15
16:49:05.406250,-8.13
16:49:05.421875,-7.72
16:49:05.437500,-10.28
16:49:05.453125,-15.87
16:49:05.468750,-23.34
16:49:05.484375,-30.94
16:49:05.500000,-37.15
16:49:05.515625,-41.27
16:49:05.531250,-43.50
16:49:05.546875,-44.50
16:49:05.562500,-44.80
16:49:05.578125,-44.50
16:49:05.593750,-43.19
16:49:05.609375,-40.37
16:49:05.625000,-35.84
16:49:05.640625,-29.87
16:49:05.656250,-23.15
16:49:05.671875,-16.56
16:49:05.687500,-10.74
16:49:05.703125,-5.96
16:49:05.718750,-2.11
16:49:05.734375,1.07
16:49:05.750000,3.80
16:49:05.765625,6.08
16:49:05.781250,7.78
16:49:05.796875,8.79
16:49:05.812500,9.11
16:49:05.828125,8.99
16:49:05.843750,8.77
16:49:05.859375,8.84
16:49:05.875000,9.40
16:49:05.890625,10.48
16:49:05.906250,11.87
16:49:05.921875,13.26
16:49:05.937500,14.31
16:49:05.953125,14.76
16:49:05.968750,14.59
16:49:05.984375,13.97
16:49:06,13.21
16:49:06.015625,12.59
16:49:06.031250,12.20
16:49:06.046875,11.85
16:49:06.062500,11.11
16:49:06.078125,9.56
16:49:06.093750,6.99
16:49:06.109375,3.63
16:49:06.125000,-0.01
16:49:06.140625,-3.33
16:49:06.156250,-5.97
16:49:06.171875,-7.97
16:49:06.187500,-9.65
16:49:06.203125,-11.45
16:49:06.218750,-13.55
16:49:06.234375,-15.72
16:49:06.250000,-17.40
16:49:06.265625,-18.03
16:49:06.281250,-17.33
16:49:06.296875,-15.59
16:49:06.312500,-13.52
16:49:06.328125,-11.96
16:49:06.343750,-11.52
16:49:06.359375,-12.26
16:49:06.375000,-13.75
16:49:06.390625,-15.25
16:49:06.406250,-16.02
16:49:06.421875,-15.55
16:49:06.437500,-13.66
16:49:06.453125,-10.46
16:49:06.468750,-6.25
16:49:06.484375,-1.35
16:49:06.500000,3.81
16:49:06.515625,8.81
16:49:06.531250,13.18
16:49:06.546875,16.52
16:49:06.562500,18.54
16:49:06.578125,19.23
16:49:06.593750,18.78
16:49:06.609375,17.54
16:49:06.625000,15.86
16:49:06.640625,13.93
16:49:06.656250,11.82
16:49:06.671875,9.47
16:49:06.687500,6.88
16:49:06.703125,4.22
16:49:06.718750,1.79
16:49:06.734375,-0.10
16:49:06.750000,-1.24
16:49:06.765625,-1.62
16:49:06.781250,-1.43
16:49:06.796875,-0.90
16:49:06.812500,-0.22
16:49:06.828125,0.52
16:49:06.843750,1.27
16:49:06.859375,1.99
16:49:06.875000,2.59
16:49:06.890625,2.95
16:49:06.906250,2.98
16:49:06.921875,2.64
16:49:06.937500,1.89
16:49:06.953125,0.68
16:49:06.968750,-1.08
16:49:06.984375,-3.43
16:49:07,-6.31
16:49:07.015625,-9.47
16:49:07.031250,-12.52
16:49:07.046875,-15.09
16:49:07.062500,-17.00
16:49:07.078125,-18.34
16:49:07.093750,-19.45
16:49:07.109375,-20.72
16:49:07.125000,-22.38
16:49:07.140625,-24.41
16:49:07.156250,-26.57
16:49:07.171875,-28.47
16:49:07.187500,-29.74
16:49:07.203125,-30.15
16:49:07.218750,-29.60
16:49:07.234375,-28.13
16:49:07.250000,-25.85
16:49:07.265625,-22.85
16:49:07.281250,-19.21
16:49:07.296875,-14.90
16:49:07.312500,-9.94
16:49:07.328125,-4.42
16:49:07.343750,1.39
16:49:07.359375,7.02
16:49:07.375000,11.93
16:49:07.390625,15.64
16:49:07.406250,17.89
16:49:07.421875,18.72
16:49:07.437500,18.39
16:49:07.453125,17.31
16:49:07.468750,15.92
16:49:07.484375,14.70
16:49:07.500000,14.11
16:49:07.515625,14.53
16:49:07.531250,16.18
16:49:07.546875,18.88
16:49:07.562500,22.12
16:49:07.578125,25.15
16:49:07.593750,27.24
16:49:07.609375,27.94
16:49:07.625000,27.24
16:49:07.640625,25.41
16:49:07.656250,22.90
16:49:07.671875,20.05
16:49:07.687500,17.09
16:49:07.703125,14.16
16:49:07.718750,11.48
16:49:07.734375,9.32
16:49:07.750000,7.94
16:49:07.765625,7.40
16:49:07.781250,7.48
16:49:07.796875,7.74
16:49:07.812500,7.68
16:49:07.828125,6.95
16:49:07.843750,5.44
16:49:07.859375,3.27
16:49:07.875000,0.72
16:49:07.890625,-1.93
16:49:07.906250,-4.45
16:49:07.921875,-6.69
16:49:07.937500,-8.57
16:49:07.953125,-10.05
16:49:07.968750,-11.19
16:49:07.984375,-12.15
16:49:08,-13.18
16:49:08.015625,-14.60
16:49:08.031250,-16.62
16:49:08.046875,-19.28
16:49:08.062500,-22.29
16:49:08.078125,-25.10
16:49:08.093750,-27.04
16:49:08.109375,-27.54
16:49:08.125000,-26.42
16:49:08.140625,-23.96
16:49:08.156250,-20.79
16:49:08.171875,-17.66
16:49:08.187500,-15.10
16:49:08.203125,-13.20
16:49:08.218750,-11.71
16:49:08.234375,-10.28
16:49:08.250000,-8.76
16:49:08.265625,-7.30
16:49:08.281250,-6.36
16:49:08.296875,-6.35
16:49:08.312500,-7.46
16:49:08.328125,-9.46
16:49:08.343750,-11.85
16:49:08.359375,-14.07
16:49:08.375000,-15.75
16:49:08.390625,-16.74
16:49:08.406250,-17.06
16:49:08.421875,-16.69
16:49:08.437500,-15.50
16:49:08.453125,-13.28
16:49:08.468750,-9.85
16:49:08.484375,-5.25
16:49:08.500000,0.22
16:49:08.515625,6.11
16:49:08.531250,11.92
16:49:08.546875,17.29
16:49:08.562500,21.95
16:49:08.578125,25.76
16:49:08.593750,28.65
16:49:08.609375,30.57
16:49:08.625000,31.51
16:49:08.640625,31.54
16:49:08.656250,30.81
16:49:08.671875,29.51
16:49:08.687500,27.88
16:49:08.703125,26.13
16:49:08.718750,24.40
16:49:08.734375,22.76
16:49:08.750000,21.08
16:49:08.765625,19.17
16:49:08.781250,16.80
16:49:08.796875,13.93
16:49:08.812500,10.77
16:49:08.828125,7.75
16:49:08.843750,5.31
16:49:08.859375,3.74
16:49:08.875000,2.94
16:49:08.890625,2.50
16:49:08.906250,1.93
16:49:08.921875,0.93
16:49:08.937500,-0.44
16:49:08.953125,-1.78
16:49:08.968750,-2.60
16:49:08.984375,-2.55
16:49:09,-1.68
16:49:09.015625,-0.28
16:49:09.031250,1.22
16:49:09.046875,2.59
16:49:09.062500,3.88
16:49:09.078125,5.33
16:49:09.093750,7.26
16:49:09.109375,9.81
16:49:09.125000,12.86
16:49:09.140625,16.05
16:49:09.156250,18.87
16:49:09.171875,20.82
16:49:09.187500,21.54
16:49:09.203125,20.95
16:49:09.218750,19.41
16:49:09.234375,17.61
16:49:09.250000,16.53
16:49:09.265625,17.06
16:49:09.281250,19.57
16:49:09.296875,23.89
16:49:09.312500,29.40
16:49:09.328125,35.07
16:49:09.343750,39.92
16:49:09.359375,43.47
16:49:09.375000,45.91
16:49:09.390625,48.04
16:49:09.406250,51.17
16:49:09.421875,56.74
16:49:09.437500,66.14
16:49:09.453125,80.33
16:49:09.468750,99.15
16:49:09.484375,121.08
16:49:09.500000,143.63
16:49:09.515625,164.09
16:49:09.531250,180.48
16:49:09.546875,192.13
16:49:09.562500,199.43
16:49:09.578125,203.56
16:49:09.593750,205.83
16:49:09.609375,206.50
16:49:09.625000,204.97
16:49:09.640625,200.63
16:49:09.656250,193.51
16:49:09.671875,184.36
16:49:09.687500,174.06
16:49:09.703125,162.07
16:49:09.718750,146.87
16:49:09.734375,126.91
16:49:09.750000,99.96
16:49:09.765625,64.44
16:49:09.781250,21.22
16:49:09.796875,-26.43
16:49:09.812500,-73.64
16:49:09.828125,-115.65
16:49:09.843750,-150.75
16:49:09.859375,-179.13
16:49:09.875000,-201.51
16:49:09.890625,-222.00
16:49:09.906250,-246.84
16:49:09.921875,-281.05
16:49:09.937500,-326.44
16:49:09.953125,-379.90
16:49:09.968750,-433.13
16:49:09.984375,-476.19
16:49:10,-497.42
16:49:10.015625,-485.34
16:49:10.031250,-438.01
16:49:10.046875,-364.48
16:49:10.062500,-281.04
16:49:10.078125,-207.07
16:49:10.093750,-159.40
16:49:10.109375,-147.48
16:49:10.125000,-173.42
16:49:10.140625,-228.23
16:49:10.156250,-292.22
16:49:10.171875,-347.63
16:49:10.187500,-383.32
16:49:10.203125,-394.67
16:49:10.218750,-383.67
16:49:10.234375,-356.44
16:49:10.250000,-302.98
16:49:10.265625,-225.79
16:49:10.281250,-154.78
16:49:10.296875,-97.06
16:49:10.312500,-47.16
16:49:10.328125,-4.18
16:49:10.343750,32.11
16:49:10.359375,62.42
16:49:10.375000,88.73
16:49:10.390625,114.19
16:49:10.406250,139.60
16:49:10.421875,166.96
16:49:10.437500,201.86
16:49:10.453125,245.21
16:49:10.468750,292.93
16:49:10.484375,338.61
16:49:10.500000,374.49
16:49:10.515625,393.34
16:49:10.531250,390.59
16:49:10.546875,363.53
16:49:10.562500,314.40
16:49:10.578125,251.33
16:49:10.593750,181.09
16:49:10.609375,108.62
16:49:10.625000,39.44
16:49:10.640625,-19.86
16:49:10.656250,-62.22
16:49:10.671875,-82.11
16:49:10.687500,-79.11
16:49:10.703125,-56.68
16:49:10.718750,-19.46
16:49:10.734375,25.90
16:49:10.750000,73.37
16:49:10.765625,119.58
16:49:10.781250,162.32
16:49:10.796875,198.31
16:49:10.812500,222.43
16:49:10.828125,228.42
16:49:10.843750,212.70
16:49:10.859375,177.40
16:49:10.875000,129.12
16:49:10.890625,77.13
16:49:10.906250,31.27
16:49:10.921875,-0.54
16:49:10.937500,-13.59
16:49:10.953125,-7.19
16:49:10.968750,15.20
16:49:10.984375,46.82
16:49:11,78.95
16:49:11.015625,102.67
16:49:11.031250,111.88
16:49:11.046875,105.89
16:49:11.062500,89.68
16:49:11.078125,71.22
16:49:11.093750,57.65
16:49:11.109375,52.00
16:49:11.125000,52.24
16:49:11.140625,53.31
16:49:11.156250,50.17
16:49:11.171875,39.86
16:49:11.187500,21.46
16:49:11.203125,-5.23
16:49:11.218750,-40.94
16:49:11.234375,-86.03
16:49:11.250000,-138.51
16:49:11.265625,-192.15
16:49:11.281250,-236.59
16:49:11.296875,-260.12
16:49:11.312500,-254.22
16:49:11.328125,-217.52
16:49:11.343750,-156.96
16:49:11.359375,-85.65
16:49:11.375000,-18.30
16:49:11.390625,33.26
16:49:11.406250,62.70
16:49:11.421875,69.33
16:49:11.437500,56.93
16:49:11.453125,31.84
16:49:11.468750,1.49
16:49:11.484375,-26.62
16:49:11.500000,-46.37
16:49:11.515625,-54.43
16:49:11.531250,-51.08
16:49:11.546875,-40.06
16:49:11.562500,-26.64
16:49:11.578125,-15.38
16:49:11.593750,-8.46
16:49:11.609375,-5.25
16:49:11.625000,-3.34
16:49:11.640625,0.06
16:49:11.656250,7.13
16:49:11.671875,18.90
16:49:11.687500,35.05
16:49:11.703125,53.65
16:49:11.718750,71.00
16:49:11.734375,82.70
16:49:11.750000,85.68
16:49:11.765625,80.26
16:49:11.781250,70.45
16:49:11.796875,61.79
16:49:11.812500,57.71
16:49:11.828125,56.64
16:49:11.843750,52.33
16:49:11.859375,37.58
16:49:11.875000,9.17
16:49:11.890625,-29.02
16:49:11.906250,-66.86
16:49:11.921875,-92.46
16:49:11.937500,-97.45
16:49:11.953125,-80.48
16:49:11.968750,-46.98
16:49:11.984375,-6.24
16:49:12,32.48
16:49:12.015625,62.72
16:49:12.031250,82.03
16:49:12.046875,91.41
16:49:12.062500,93.88
16:49:12.078125,92.91
16:49:12.093750,90.82
16:49:12.109375,88.09
16:49:12.125000,83.62
16:49:12.140625,75.82
16:49:12.156250,64.08
16:49:12.171875,49.64
16:49:12.187500,35.16
16:49:12.203125,23.31
16:49:12.218750,15.20
16:49:12.234375,9.78
16:49:12.250000,4.75
16:49:12.265625,-1.79
16:49:12.281250,-9.88
16:49:12.296875,-17.59
16:49:12.312500,-22.25
16:49:12.328125,-22.14
16:49:12.343750,-17.73
16:49:12.359375,-11.41
16:49:12.375000,-6.25
16:49:12.390625,-4.44
16:49:12.406250,-6.48
16:49:12.421875,-11.15
16:49:12.437500,-16.33
16:49:12.453125,-19.99
16:49:12.468750,-20.95
16:49:12.484375,-19.25
16:49:12.500000,-15.96
16:49:12.515625,-12.76
16:49:12.531250,-11.07
16:49:12.546875,-11.55
16:49:12.562500,-13.71
16:49:12.578125,-16.31
16:49:12.593750,-17.99
16:49:12.609375,-17.98
16:49:12.625000,-16.50
16:49:12.640625,-14.51
16:49:12.656250,-13.12
16:49:12.671875,-12.95
16:49:12.687500,-13.89
16:49:12.703125,-15.27
16:49:12.718750,-16.31
16:49:12.734375,-16.58
16:49:12.750000,-16.15
16:49:12.765625,-15.44
16:49:12.781250,-14.96
16:49:12.796875,-15.03
16:49:12.812500,-15.71
16:49:12.828125,-16.83
16:49:12.843750,-18.13
16:49:12.859375,-19.43
16:49:12.875000,-20.62
16:49:12.890625,-21.62
16:49:12.906250,-22.36
16:49:12.921875,-22.73
16:49:12.937500,-22.65
16:49:12.953125,-22.13
16:49:12.968750,-21.31
16:49:12.984375,-20.47
16:49:13,-19.82
16:49:13.015625,-19.52
16:49:13.031250,-19.51
16:49:13.046875,-19.66
16:49:13.062500,-19.80
16:49:13.078125,-19.82
16:49:13.093750,-19.67
16:49:13.109375,-19.34
16:49:13.125000,-18.76
16:49:13.140625,-17.89
16:49:13.156250,-16.68
16:49:13.171875,-15.13
16:49:13.187500,-13.25
16:49:13.203125,-11.06
16:49:13.218750,-8.59
16:49:13.234375,-5.87
16:49:13.250000,-3.06
16:49:13.265625,-0.37
16:49:13.281250,1.93
16:49:13.296875,3.64
16:49:13.312500,4.69
16:49:13.328125,5.19
16:49:13.343750,5.28
16:49:13.359375,5.11
16:49:13.375000,4.76
16:49:13.390625,4.25
16:49:13.406250,3.61
16:49:13.421875,2.96
16:49:13.437500,2.41
16:49:13.453125,2.06
16:49:13.468750,1.91
16:49:13.484375,1.86
16:49:13.500000,1.76
16:49:13.515625,1.52
16:49:13.531250,1.11
16:49:13.546875,0.57
16:49:13.562500,-0.08
16:49:13.578125,-0.82
16:49:13.593750,-1.66
16:49:13.609375,-2.60
16:49:13.625000,-3.60
16:49:13.640625,-4.63
16:49:13.656250,-5.67
16:49:13.671875,-6.78
16:49:13.687500,-7.99
16:49:13.703125,-9.32
16:49:13.718750,-10.68
16:49:13.734375,-11.97
16:49:13.750000,-13.09
16:49:13.765625,-14.04
16:49:13.781250,-14.96
16:49:13.796875,-16.01
16:49:13.812500,-17.32
16:49:13.828125,-18.82
16:49:13.843750,-20.29
16:49:13.859375,-21.41
16:49:13.875000,-21.87
16:49:13.890625,-21.48
16:49:13.906250,-20.20
16:49:13.921875,-18.14
16:49:13.937500,-15.47
16:49:13.953125,-12.37
16:49:13.968750,-9.02
16:49:13.984375,-5.60
16:49:14,-2.31
16:49:14.015625,0.59
16:49:14.031250,2.88
16:49:14.046875,4.42
16:49:14.062500,5.23
16:49:14.078125,5.50
16:49:14.093750,5.53
16:49:14.109375,5.61
16:49:14.125000,5.92
16:49:14.140625,6.46
16:49:14.156250,7.16
16:49:14.171875,7.90
16:49:14.187500,8.61
16:49:14.203125,9.22
16:49:14.218750,9.67
16:49:14.234375,9.92
16:49:14.250000,9.91
16:49:14.265625,9.64
16:49:14.281250,9.18
16:49:14.296875,8.67
16:49:14.312500,8.23
16:49:14.328125,7.89
16:49:14.343750,7.61
16:49:14.359375,7.30
16:49:14.375000,6.90
16:49:14.390625,6.37
16:49:14.406250,5.71
16:49:14.421875,4.87
16:49:14.437500,3.79
16:49:14.453125,2.42
16:49:14.468750,0.77
16:49:14.484375,-1.06
16:49:14.500000,-2.90
16:49:14.515625,-4.61
16:49:14.531250,-6.09
16:49:14.546875,-7.33
16:49:14.562500,-8.41
16:49:14.578125,-9.41
16:49:14.593750,-10.46
16:49:14.609375,-11.65
16:49:14.625000,-13.01
16:49:14.640625,-14.49
16:49:14.656250,-15.93
16:49:14.671875,-17.04
16:49:14.687500,-17.53
16:49:14.703125,-17.16
16:49:14.718750,-15.82
16:49:14.734375,-13.57
16:49:14.750000,-10.60
16:49:14.765625,-7.21
16:49:14.781250,-3.70
16:49:14.796875,-0.37
16:49:14.812500,2.53
16:49:14.828125,4.88
16:49:14.843750,6.67
16:49:14.859375,8.00
16:49:14.875000,9.01
16:49:14.890625,9.83
16:49:14.906250,10.50
16:49:14.921875,10.99
16:49:14.937500,11.25
16:49:14.953125,11.31
16:49:14.968750,11.24
16:49:14.984375,11.17
16:49:15,11.20
16:49:15.015625,11.29
16:49:15.031250,11.35
16:49:15.046875,11.26
16:49:15.062500,11.01
16:49:15.078125,10.70
16:49:15.093750,10.50
16:49:15.109375,10.51
16:49:15.125000,10.68
16:49:15.140625,10.85
16:49:15.156250,10.77
16:49:15.171875,10.29
16:49:15.187500,9.40
16:49:15.203125,8.20
16:49:15.218750,6.86
16:49:15.234375,5.48
16:49:15.250000,4.09
16:49:15.265625,2.67
16:49:15.281250,1.16
16:49:15.296875,-0.44
16:49:15.312500,-2.05
16:49:15.328125,-3.57
16:49:15.343750,-4.90
16:49:15.359375,-6.01
16:49:15.375000,-6.98
16:49:15.390625,-7.94
16:49:15.406250,-9.10
16:49:15.421875,-10.59
16:49:15.437500,-12.47
16:49:15.453125,-14.61
16:49:15.468750,-16.76
16:49:15.484375,-18.59
16:49:15.500000,-19.74
16:49:15.515625,-19.93
16:49:15.531250,-19.00
16:49:15.546875,-16.99
16:49:15.562500,-14.11
16:49:15.578125,-10.69
16:49:15.593750,-7.09
16:49:15.609375,-3.64
16:49:15.625000,-0.57
16:49:15.640625,2.04
16:49:15.656250,4.19
16:49:15.671875,5.91
16:49:15.687500,7.26
16:49:15.703125,8.29
16:49:15.718750,9.06
16:49:15.734375,9.65
16:49:15.750000,10.14
16:49:15.765625,10.55
16:49:15.781250,10.90
16:49:15.796875,11.14
16:49:15.812500,11.25
16:49:15.828125,11.20
16:49:15.843750,11.04
16:49:15.859375,10.91
16:49:15.875000,10.93
16:49:15.890625,11.20
16:49:15.906250,11.73
16:49:15.921875,12.40
16:49:15.937500,13.01
16:49:15.953125,13.35
16:49:15.968750,13.23
16:49:15.984375,12.54
16:49:16,11.34
16:49:16.015625,9.76
16:49:16.031250,8.06
16:49:16.046875,6.44
16:49:16.062500,5.05
16:49:16.078125,3.90
16:49:16.093750,2.94
16:49:16.109375,2.06
16:49:16.125000,1.15
16:49:16.140625,0.14
16:49:16.156250,-0.97
16:49:16.171875,-2.17
16:49:16.187500,-3.43
16:49:16.203125,-4.73
16:49:16.218750,-6.03
16:49:16.234375,-7.37
16:49:16.250000,-8.73
16:49:16.265625,-10.16
16:49:16.281250,-11.69
16:49:16.296875,-13.32
16:49:16.312500,-15.01
16:49:16.328125,-16.66
16:49:16.343750,-18.07
16:49:16.359375,-19.04
16:49:16.375000,-19.34
16:49:16.390625,-18.77
16:49:16.406250,-17.25
16:49:16.421875,-14.84
16:49:16.437500,-11.75
16:49:16.453125,-8.36
16:49:16.468750,-5.03
16:49:16.484375,-2.06
16:49:16.500000,0.48
16:49:16.515625,2.63
16:49:16.531250,4.50
16:49:16.546875,6.17
16:49:16.562500,7.62
16:49:16.578125,8.76
16:49:16.593750,9.58
16:49:16.609375,10.10
16:49:16.625000,10.47
16:49:16.640625,10.85
16:49:16.656250,11.34
16:49:16.671875,11.93
16:49:16.687500,12.58
16:49:16.703125,13.25
16:49:16.718750,13.93
16:49:16.734375,14.71
16:49:16.750000,15.61
16:49:16.765625,16.59
16:49:16.781250,17.46
16:49:16.796875,17.96
16:49:16.812500,17.88
16:49:16.828125,17.12
16:49:16.843750,15.79
16:49:16.859375,14.14
16:49:16.875000,12.45
16:49:16.890625,10.98
16:49:16.906250,9.82
16:49:16.921875,8.93
16:49:16.937500,8.18
16:49:16.953125,7.41
16:49:16.968750,6.54
16:49:16.984375,5.57
16:49:17,4.56
16:49:17.015625,3.56
16:49:17.031250,2.62
16:49:17.046875,1.73
16:49:17.062500,0.83
16:49:17.078125,-0.10
16:49:17.093750,-1.06
16:49:17.109375,-2.00
16:49:17.125000,-2.89
16:49:17.140625,-3.74
16:49:17.156250,-4.61
16:49:17.171875,-5.62
16:49:17.187500,-6.88
16:49:17.203125,-8.45
16:49:17.218750,-10.29
16:49:17.234375,-12.28
16:49:17.250000,-14.30
16:49:17.265625,-16.23
16:49:17.281250,-18.01
16:49:17.296875,-19.56
16:49:17.312500,-20.78
16:49:17.328125,-21.50
16:49:17.343750,-21.52
16:49:17.359375,-20.68
16:49:17.375000,-18.94
16:49:17.390625,-16.41
16:49:17.406250,-13.33
16:49:17.421875,-9.99
16:49:17.437500,-6.61
16:49:17.453125,-3.35
16:49:17.468750,-0.27
16:49:17.484375,2.54
16:49:17.500000,4.97
16:49:17.515625,6.86
16:49:17.531250,8.10
16:49:17.546875,8.70
16:49:17.562500,8.80
16:49:17.578125,8.63
16:49:17.593750,8.45
16:49:17.609375,8.42
16:49:17.625000,8.59
16:49:17.640625,8.92
16:49:17.656250,9.35
16:49:17.671875,9.82
16:49:17.687500,10.32
16:49:17.703125,10.81
16:49:17.718750,11.31
16:49:17.734375,11.76
16:49:17.750000,12.11
16:49:17.765625,12.27
16:49:17.781250,12.18
16:49:17.796875,11.79
16:49:17.812500,11.12
16:49:17.828125,10.23
16:49:17.843750,9.24
16:49:17.859375,8.29
16:49:17.875000,7.47
16:49:17.890625,6.80
16:49:17.906250,6.21
16:49:17.921875,5.59
16:49:17.937500,4.84
16:49:17.953125,3.95
16:49:17.968750,2.97
16:49:17.984375,2.00
16:49:18,1.11
16:49:18.015625,0.32
16:49:18.031250,-0.38
16:49:18.046875,-1.03
16:49:18.062500,-1.65
16:49:18.078125,-2.24
16:49:18.093750,-2.82
16:49:18.109375,-3.41
16:49:18.125000,-4.09
16:49:18.140625,-4.90
16:49:18.156250,-5.84
16:49:18.171875,-6.85
16:49:18.187500,-7.87
16:49:18.203125,-8.85
16:49:18.218750,-9.78
16:49:18.234375,-10.72
16:49:18.250000,-11.70
16:49:18.265625,-12.73
16:49:18.281250,-13.83
16:49:18.296875,-15.01
16:49:18.312500,-16.30
16:49:18.328125,-17.71
16:49:18.343750,-19.13
16:49:18.359375,-20.28
16:49:18.375000,-20.84
16:49:18.390625,-20.49
16:49:18.406250,-19.11
16:49:18.421875,-16.83
16:49:18.437500,-13.93
16:49:18.453125,-10.79
16:49:18.468750,-7.67
16:49:18.484375,-4.73
16:49:18.500000,-2.05
16:49:18.515625,0.34
16:49:18.531250,2.39
16:49:18.546875,4.10
16:49:18.562500,5.47
16:49:18.578125,6.55
16:49:18.593750,7.42
16:49:18.609375,8.11
16:49:18.625000,8.59
16:49:18.640625,8.83
16:49:18.656250,8.83
16:49:18.671875,8.68
16:49:18.687500,8.51
16:49:18.703125,8.48
16:49:18.718750,8.71
16:49:18.734375,9.17
16:49:18.750000,9.73
16:49:18.765625,10.17
16:49:18.781250,10.27
16:49:18.796875,9.87
16:49:18.812500,8.94
16:49:18.828125,7.58
16:49:18.843750,5.99
16:49:18.859375,4.41
16:49:18.875000,3.05
16:49:18.890625,2.09
16:49:18.906250,1.63
16:49:18.921875,1.64
16:49:18.937500,1.98
16:49:18.953125,2.32
16:49:18.968750,2.26
16:49:18.984375,1.43
16:49:19,-0.28
16:49:19.015625,-2.62
16:49:19.031250,-5.00
16:49:19.046875,-6.70
16:49:19.062500,-7.22
16:49:19.078125,-6.47
16:49:19.093750,-4.87
16:49:19.109375,-3.13
16:49:19.125000,-1.91
16:49:19.140625,-1.58
16:49:19.156250,-2.09
16:49:19.171875,-3.15
16:49:19.187500,-4.42
16:49:19.203125,-5.68
16:49:19.218750,-6.90
16:49:19.234375,-8.13
16:49:19.250000,-9.34
16:49:19.265625,-10.40
16:49:19.281250,-11.09
16:49:19.296875,-11.32
16:49:19.312500,-11.13
16:49:19.328125,-10.73
16:49:19.343750,-10.37
16:49:19.359375,-10.23
16:49:19.375000,-10.25
16:49:19.390625,-10.20
16:49:19.406250,-9.79
16:49:19.421875,-8.83
16:49:19.437500,-7.32
16:49:19.453125,-5.42
16:49:19.468750,-3.40
16:49:19.484375,-1.48
16:49:19.500000,0.22
16:49:19.515625,1.73
16:49:19.531250,3.12
16:49:19.546875,4.39
16:49:19.562500,5.49
16:49:19.578125,6.32
16:49:19.593750,6.78
16:49:19.609375,6.88
16:49:19.625000,6.75
16:49:19.640625,6.54
16:49:19.656250,6.39
16:49:19.671875,6.40
16:49:19.687500,6.57
16:49:19.703125,6.91
16:49:19.718750,7.43
16:49:19.734375,8.14
16:49:19.750000,9.02
16:49:19.765625,10.02
16:49:19.781250,10.99
16:49:19.796875,11.81
16:49:19.812500,12.35
16:49:19.828125,12.59
16:49:19.843750,12.54
16:49:19.859375,12.30
16:49:19.875000,11.99
16:49:19.890625,11.70
16:49:19.906250,11.46
16:49:19.921875,11.26
16:49:19.937500,11.06
16:49:19.953125,10.78
16:49:19.968750,10.37
16:49:19.984375,9.80
16:49:20,9.03
16:49:20.015625,8.03
16:49:20.031250,6.75
16:49:20.046875,5.19
16:49:20.062500,3.39
16:49:20.078125,1.49
16:49:20.093750,-0.27
16:49:20.109375,-1.71
16:49:20.125000,-2.73
16:49:20.140625,-3.38
16:49:20.156250,-3.83
16:49:20.171875,-4.24
16:49:20.187500,-4.78
16:49:20.203125,-5.51
16:49:20.218750,-6.54
16:49:20.234375,-8.04
16:49:20.250000,-10.19
16:49:20.265625,-13.08
16:49:20.281250,-16.56
16:49:20.296875,-20.13
16:49:20.312500,-23.02
16:49:20.328125,-24.48
16:49:20.343750,-24.10
16:49:20.359375,-21.99
16:49:20.375000,-18.78
16:49:20.390625,-15.28
16:49:20.406250,-12.17
16:49:20.421875,-9.73
16:49:20.437500,-7.83
16:49:20.453125,-6.08
16:49:20.468750,-4.12
16:49:20.484375,-1.83
16:49:20.500000,0.60
16:49:20.515625,2.82
16:49:20.531250,4.47
16:49:20.546875,5.41
16:49:20.562500,5.79
16:49:20.578125,6.01
16:49:20.593750,6.53
16:49:20.609375,7.65
16:49:20.625000,9.28
16:49:20.640625,11.00
16:49:20.656250,12.24
16:49:20.671875,12.63
16:49:20.687500,12.30
16:49:20.703125,11.91
16:49:20.718750,12.40
16:49:20.734375,14.51
16:49:20.750000,18.45
16:49:20.765625,23.68
16:49:20.781250,29.17
16:49:20.796875,33.77
16:49:20.812500,36.71
16:49:20.828125,37.83
16:49:20.843750,37.57
16:49:20.859375,36.77
16:49:20.875000,36.31
16:49:20.890625,36.89
16:49:20.906250,38.93
16:49:20.921875,42.47
16:49:20.937500,47.20
16:49:20.953125,52.33
16:49:20.968750,56.64
16:49:20.984375,58.71
16:49:21,57.44
16:49:21.015625,52.63
16:49:21.031250,45.38
16:49:21.046875,37.91
16:49:21.062500,32.52
16:49:21.078125,30.39
16:49:21.093750,30.61
16:49:21.109375,30.25
16:49:21.125000,25.60
16:49:21.140625,14.09
16:49:21.156250,-4.16
16:49:21.171875,-25.98
16:49:21.187500,-46.33
16:49:21.203125,-60.39
16:49:21.218750,-65.59
16:49:21.234375,-62.61
16:49:21.250000,-55.00
16:49:21.265625,-47.80
16:49:21.281250,-45.59
16:49:21.296875,-51.10
16:49:21.312500,-64.40
16:49:21.328125,-83.16
16:49:21.343750,-103.51
16:49:21.359375,-121.24
16:49:21.375000,-132.84
16:49:21.390625,-136.33
16:49:21.406250,-131.45
16:49:21.421875,-119.63
16:49:21.437500,-103.71
16:49:21.453125,-87.53
16:49:21.468750,-75.43
16:49:21.484375,-71.30
16:49:21.500000,-77.50
16:49:21.515625,-93.58
16:49:21.531250,-115.74
16:49:21.546875,-137.26
16:49:21.562500,-150.39
16:49:21.578125,-148.79
16:49:21.593750,-129.74
16:49:21.609375,-95.04
16:49:21.625000,-50.37
16:49:21.640625,-3.27
16:49:21.656250,39.20
16:49:21.671875,72.24
16:49:21.687500,94.05
16:49:21.703125,105.42
16:49:21.718750,108.68
16:49:21.734375,106.55
16:49:21.750000,101.28
16:49:21.765625,94.41
16:49:21.781250,86.88
16:49:21.796875,79.36
16:49:21.812500,72.49
16:49:21.828125,66.84
16:49:21.843750,62.75
16:49:21.859375,60.06
16:49:21.875000,58.16
16:49:21.890625,56.13
16:49:21.906250,53.19
16:49:21.921875,49.02
16:49:21.937500,43.90
16:49:21.953125,38.51
16:49:21.968750,33.55
16:49:21.984375,29.44
16:49:22,26.13
16:49:22.015625,23.23
16:49:22.031250,20.24
16:49:22.046875,16.86
16:49:22.062500,13.07
16:49:22.078125,9.11
16:49:22.093750,5.32
16:49:22.109375,1.95
16:49:22.125000,-0.94
16:49:22.140625,-3.49
16:49:22.156250,-5.79
16:49:22.171875,-7.85
16:49:22.187500,-9.42
16:49:22.203125,-10.14
16:49:22.218750,-9.68
16:49:22.234375,-7.91
16:49:22.250000,-5.03
16:49:22.265625,-1.56
16:49:22.281250,1.82
16:49:22.296875,4.46
16:49:22.312500,5.88
16:49:22.328125,5.99
16:49:22.343750,5.06
16:49:22.359375,3.64
16:49:22.375000,2.36
16:49:22.390625,1.74
16:49:22.406250,2.02
16:49:22.421875,3.05
16:49:22.437500,4.46
16:49:22.453125,5.81
16:49:22.468750,6.77
16:49:22.484375,7.19
16:49:22.500000,7.12
16:49:22.515625,6.68
16:49:22.531250,6.00
16:49:22.546875,5.23
16:49:22.562500,4.52
16:49:22.578125,4.06
16:49:22.593750,4.07
16:49:22.609375,4.73
16:49:22.625000,6.00
16:49:22.640625,7.61
16:49:22.656250,9.08
16:49:22.671875,9.84
16:49:22.687500,9.49
16:49:22.703125,7.98
16:49:22.718750,5.68
16:49:22.734375,3.25
16:49:22.750000,1.36
16:49:22.765625,0.44
16:49:22.781250,0.47
16:49:22.796875,1.09
16:49:22.812500,1.75
16:49:22.828125,2.07
16:49:22.843750,1.84
16:49:22.859375,1.12
16:49:22.875000,-0.00
16:49:22.890625,-1.52
16:49:22.906250,-3.47
16:49:22.921875,-5.90
16:49:22.937500,-8.67
16:49:22.953125,-11.48
16:49:22.968750,-13.88
16:49:22.984375,-15.52
16:49:23,-16.22
16:49:23.015625,-16.06
16:49:23.031250,-15.31
16:49:23.046875,-14.35
16:49:23.062500,-13.48
16:49:23.078125,-12.86
16:49:23.093750,-12.49
16:49:23.109375,-12.21
16:49:23.125000,-11.75
16:49:23.140625,-10.79
16:49:23.156250,-9.10
16:49:23.171875,-6.57
16:49:23.187500,-3.32
16:49:23.203125,0.33
16:49:23.218750,3.92
16:49:23.234375,6.96
16:49:23.250000,9.04
16:49:23.265625,9.92
16:49:23.281250,9.61
16:49:23.296875,8.34
16:49:23.312500,6.60
16:49:23.328125,4.94
16:49:23.343750,3.93
16:49:23.359375,3.89
16:49:23.375000,4.85
16:49:23.390625,6.48
16:49:23.406250,8.27
16:49:23.421875,9.69
16:49:23.437500,10.42
16:49:23.453125,10.47
16:49:23.468750,10.05
16:49:23.484375,9.46
16:49:23.500000,8.86
16:49:23.515625,8.25
16:49:23.531250,7.56
16:49:23.546875,6.78
16:49:23.562500,6.05
16:49:23.578125,5.65
16:49:23.593750,5.81
16:49:23.609375,6.52
16:49:23.625000,7.49
16:49:23.640625,8.20
16:49:23.656250,8.12
16:49:23.671875,6.95
16:49:23.687500,4.74
16:49:23.703125,1.89
16:49:23.718750,-1.05
16:49:23.734375,-3.54
16:49:23.750000,-5.19
16:49:23.765625,-5.87
16:49:23.781250,-5.62
16:49:23.796875,-4.65
16:49:23.812500,-3.28
16:49:23.828125,-1.91
16:49:23.843750,-0.98
16:49:23.859375,-0.92
16:49:23.875000,-2.03
16:49:23.890625,-4.42
16:49:23.906250,-7.88
16:49:23.921875,-11.90
16:49:23.937500,-15.78
16:49:23.953125,-18.76
16:49:23.968750,-20.26
16:49:23.984375,-20.04
16:49:24,-18.25
16:49:24.015625,-15.41
16:49:24.031250,-12.20
16:49:24.046875,-9.28
16:49:24.062500,-7.07
16:49:24.078125,-5.65
16:49:24.093750,-4.82
16:49:24.109375,-4.22
16:49:24.125000,-3.49
16:49:24.140625,-2.46
16:49:24.156250,-1.08
16:49:24.171875,0.52
16:49:24.187500,2.20
16:49:24.203125,3.80
16:49:24.218750,5.25
16:49:24.234375,6.48
16:49:24.250000,7.43
16:49:24.265625,8.04
16:49:24.281250,8.27
16:49:24.296875,8.16
16:49:24.312500,7.89
16:49:24.328125,7.77
16:49:24.343750,8.07
16:49:24.359375,8.99
16:49:24.375000,10.47
16:49:24.390625,12.16
16:49:24.406250,13.63
16:49:24.421875,14.43
16:49:24.437500,14.30
16:49:24.453125,13.19
16:49:24.468750,11.32
16:49:24.484375,9.01
16:49:24.500000,6.60
16:49:24.515625,4.40
16:49:24.531250,2.62
16:49:24.546875,1.41
16:49:24.562500,0.81
16:49:24.578125,0.81
16:49:24.593750,1.29
16:49:24.609375,2.02
16:49:24.625000,2.64
16:49:24.640625,2.76
16:49:24.656250,2.05
16:49:24.671875,0.33
16:49:24.687500,-2.27
16:49:24.703125,-5.41
16:49:24.718750,-8.51
16:49:24.734375,-11.03
16:49:24.750000,-12.59
16:49:24.765625,-13.13
16:49:24.781250,-12.95
16:49:24.796875,-12.53
16:49:24.812500,-12.36
16:49:24.828125,-12.79
16:49:24.843750,-13.91
16:49:24.859375,-15.62
16:49:24.875000,-17.65
16:49:24.890625,-19.68
16:49:24.906250,-21.32
16:49:24.921875,-22.16
16:49:24.937500,-21.80
16:49:24.953125,-19.96
16:49:24.968750,-16.61
16:49:24.984375,-12.10
16:49:25,-7.10
16:49:25.015625,-2.47
16:49:25.031250,1.04
16:49:25.046875,3.02
16:49:25.062500,3.59
16:49:25.078125,3.25
16:49:25.093750,2.68
16:49:25.109375,2.50
16:49:25.125000,3.01
16:49:25.140625,4.24
16:49:25.156250,5.96
16:49:25.171875,7.86
16:49:25.187500,9.63
16:49:25.203125,10.99
16:49:25.218750,11.76
16:49:25.234375,11.77
16:49:25.250000,11.01
16:49:25.265625,9.64
16:49:25.281250,8.02
16:49:25.296875,6.64
16:49:25.312500,5.95
16:49:25.328125,6.13
16:49:25.343750,7.01
16:49:25.359375,8.09
16:49:25.375000,8.74
16:49:25.390625,8.46
16:49:25.406250,7.05
16:49:25.421875,4.66
16:49:25.437500,1.64
16:49:25.453125,-1.57
16:49:25.468750,-4.65
16:49:25.484375,-7.44
16:49:25.500000,-9.89
16:49:25.515625,-12.03
16:49:25.531250,-13.91
16:49:25.546875,-15.57
16:49:25.562500,-17.09
16:49:25.578125,-18.62
16:49:25.593750,-20.33
16:49:25.609375,-22.39
16:49:25.625000,-24.87
16:49:25.640625,-27.64
16:49:25.656250,-30.43
16:49:25.671875,-32.81
16:49:25.687500,-34.39
16:49:25.703125,-34.89
16:49:25.718750,-34.20
16:49:25.734375,-32.44
16:49:25.750000,-29.88
16:49:25.765625,-26.92
16:49:25.781250,-24.04
16:49:25.796875,-21.72
16:49:25.812500,-20.30
16:49:25.828125,-19.80
16:49:25.843750,-19.72
16:49:25.859375,-19.15
16:49:25.875000,-17.00
16:49:25.890625,-12.45
16:49:25.906250,-5.32
16:49:25.921875,3.76
16:49:25.937500,13.47
16:49:25.953125,22.28
16:49:25.968750,28.93
16:49:25.984375,32.84
16:49:26,34.08
16:49:26.015625,33.39
16:49:26.031250,31.81
16:49:26.046875,30.47
16:49:26.062500,30.30
16:49:26.078125,31.77
16:49:26.093750,34.61
16:49:26.109375,37.80
16:49:26.125000,39.78
16:49:26.140625,39.07
16:49:26.156250,35.24
16:49:26.171875,29.41
16:49:26.187500,24.31
16:49:26.203125,23.17
16:49:26.218750,28.01
16:49:26.234375,38.11
16:49:26.250000,49.73
16:49:26.265625,57.63
16:49:26.281250,57.40
16:49:26.296875,48.09
16:49:26.312500,33.17
16:49:26.328125,19.52
16:49:26.343750,14.84
16:49:26.359375,24.59
16:49:26.375000,49.65
16:49:26.390625,85.60
16:49:26.406250,123.90
16:49:26.421875,153.63
16:49:26.437500,165.09
16:49:26.453125,152.45
16:49:26.468750,115.83
16:49:26.484375,61.77
16:49:26.500000,1.78
16:49:26.515625,-51.00
16:49:26.531250,-86.00
16:49:26.546875,-98.27
16:49:26.562500,-91.16
16:49:26.578125,-73.76
16:49:26.593750,-57.61
16:49:26.609375,-52.55
16:49:26.625000,-63.21
16:49:26.640625,-87.73
16:49:26.656250,-118.78
16:49:26.671875,-146.31
16:49:26.687500,-160.65
16:49:26.703125,-158.16
16:49:26.718750,-140.99
16:49:26.734375,-116.97
16:49:26.750000,-96.23
16:49:26.765625,-86.74
16:49:26.781250,-90.83
16:49:26.796875,-104.15
16:49:26.812500,-118.10
16:49:26.828125,-123.34
16:49:26.843750,-116.41
16:49:26.859375,-98.13
16:49:26.875000,-72.28
16:49:26.890625,-41.67
16:49:26.906250,-5.45
16:49:26.921875,39.95
16:49:26.937500,97.47
16:49:26.953125,158.89
16:49:26.968750,221.27
16:49:26.984375,269.05
16:49:27,287.81
16:49:27.015625,269.66
16:49:27.031250,217.05
16:49:27.046875,142.41
16:49:27.062500,63.46
16:49:27.078125,-2.22
16:49:27.093750,-41.75
16:49:27.109375,-49.14
16:49:27.125000,-27.87
16:49:27.140625,13.66
16:49:27.156250,63.98
16:49:27.171875,111.21
16:49:27.187500,145.70
16:49:27.203125,161.06
16:49:27.218750,155.72
16:49:27.234375,132.69
16:49:27.250000,97.99
16:49:27.265625,56.33
16:49:27.281250,11.61
16:49:27.296875,-33.77
16:49:27.312500,-79.61
16:49:27.328125,-122.13
16:49:27.343750,-159.14
16:49:27.359375,-192.83
16:49:27.375000,-224.46
16:49:27.390625,-254.37
16:49:27.406250,-282.00
16:49:27.421875,-303.84
16:49:27.437500,-314.56
16:49:27.453125,-309.30
16:49:27.468750,-285.96
16:49:27.484375,-247.20
16:49:27.500000,-198.86
16:49:27.515625,-146.94
16:49:27.531250,-95.65
16:49:27.546875,-47.15
16:49:27.562500,-1.81
16:49:27.578125,39.76
16:49:27.593750,75.52
16:49:27.609375,102.78
16:49:27.625000,119.35
16:49:27.640625,125.61
16:49:27.656250,125.17
16:49:27.671875,123.22
16:49:27.687500,124.45
16:49:27.703125,131.89
16:49:27.718750,146.26
16:49:27.734375,165.72
16:49:27.750000,186.37
16:49:27.765625,202.58
16:49:27.781250,208.73
16:49:27.796875,201.43
16:49:27.812500,180.62
16:49:27.828125,149.84
16:49:27.843750,114.57
16:49:27.859375,79.66
16:49:27.875000,47.48
16:49:27.890625,17.97
16:49:27.906250,-9.77
16:49:27.921875,-35.15
16:49:27.937500,-55.45
16:49:27.953125,-67.54
16:49:27.968750,-70.17
16:49:27.984375,-65.39
16:49:28,-57.53
16:49:28.015625,-50.80
16:49:28.031250,-46.67
16:49:28.046875,-43.26
16:49:28.062500,-36.43
16:49:28.078125,-21.84
16:49:28.093750,3.37
16:49:28.109375,39.87
16:49:28.125000,85.99
16:49:28.140625,137.58
16:49:28.156250,187.90
16:49:28.171875,228.41
16:49:28.187500,250.85
16:49:28.203125,249.94
16:49:28.218750,225.76
16:49:28.234375,184.07
16:49:28.250000,134.33
16:49:28.265625,86.10
16:49:28.281250,45.85
16:49:28.296875,15.68
16:49:28.312500,-5.93
16:49:28.328125,-21.88
16:49:28.343750,-34.50
16:49:28.359375,-44.67
16:49:28.375000,-52.22
16:49:28.390625,-57.05
16:49:28.406250,-59.83
16:49:28.421875,-62.08
16:49:28.437500,-65.38
16:49:28.453125,-70.47
16:49:28.468750,-76.76
16:49:28.484375,-82.56
16:49:28.500000,-85.88
16:49:28.515625,-85.45
16:49:28.531250,-81.34
16:49:28.546875,-74.91
16:49:28.562500,-68.16
16:49:28.578125,-62.76
16:49:28.593750,-59.43
16:49:28.609375,-57.68
16:49:28.625000,-56.29
16:49:28.640625,-53.95
16:49:28.656250,-49.96
16:49:28.671875,-44.52
16:49:28.687500,-38.53
16:49:28.703125,-33.12
16:49:28.718750,-29.15
16:49:28.734375,-26.86
16:49:28.750000,-25.83
16:49:28.765625,-25.30
16:49:28.781250,-24.48
16:49:28.796875,-22.92
16:49:28.812500,-20.65
16:49:28.828125,-18.02
16:49:28.843750,-15.56
16:49:28.859375,-13.65
16:49:28.875000,-12.36
16:49:28.890625,-11.49
16:49:28.906250,-10.69
16:49:28.921875,-9.66
16:49:28.937500,-8.30
16:49:28.953125,-6.73
16:49:28.968750,-5.19
16:49:28.984375,-3.94
16:49:29,-3.16
16:49:29.015625,-2.86
16:49:29.031250,-2.99
16:49:29.046875,-3.40
16:49:29.062500,-3.90
16:49:29.078125,-4.34
16:49:29.093750,-4.63
16:49:29.109375,-4.79
16:49:29.125000,-5.00
16:49:29.140625,-5.53
16:49:29.156250,-6.60
16:49:29.171875,-8.27
16:49:29.187500,-10.28
16:49:29.203125,-12.16
16:49:29.218750,-13.41
16:49:29.234375,-13.75
16:49:29.250000,-13.27
16:49:29.265625,-12.44
16:49:29.281250,-11.87
16:49:29.296875,-12.03
16:49:29.312500,-13.06
16:49:29.328125,-14.76
16:49:29.343750,-16.72
16:49:29.359375,-18.57
16:49:29.375000,-20.06
16:49:29.390625,-21.12
16:49:29.406250,-21.66
16:49:29.421875,-21.59
16:49:29.437500,-20.73
16:49:29.453125,-18.93
16:49:29.468750,-16.23
16:49:29.484375,-12.84
16:49:29.500000,-9.17
16:49:29.515625,-5.62
16:49:29.531250,-2.53
16:49:29.546875,-0.08
16:49:29.562500,1.73
16:49:29.578125,3.00
16:49:29.593750,3.90
16:49:29.609375,4.53
16:49:29.625000,4.99
16:49:29.640625,5.33
16:49:29.656250,5.58
16:49:29.671875,5.78
16:49:29.687500,6.01
16:49:29.703125,6.35
16:49:29.718750,6.83
16:49:29.734375,7.43
16:49:29.750000,8.08
16:49:29.765625,8.68
16:49:29.781250,9.17
16:49:29.796875,9.50
16:49:29.812500,9.69
16:49:29.828125,9.75
16:49:29.843750,9.65
16:49:29.859375,9.38
16:49:29.875000,8.86
16:49:29.890625,8.06
16:49:29.906250,6.97
16:49:29.921875,5.63
16:49:29.937500,4.18
16:49:29.953125,2.82
16:49:29.968750,1.75
16:49:29.984375,1.11
16:49:30,0.86
16:49:30.015625,0.84
16:49:30.031250,0.77
16:49:30.046875,0.44
16:49:30.062500,-0.25
16:49:30.078125,-1.21
16:49:30.093750,-2.28
16:49:30.109375,-3.33
16:49:30.125000,-4.35
16:49:30.140625,-5.40
16:49:30.156250,-6.56
16:49:30.171875,-7.86
16:49:30.187500,-9.21
16:49:30.203125,-10.48
16:49:30.218750,-11.61
16:49:30.234375,-12.65
16:49:30.250000,-13.75
16:49:30.265625,-15.01
16:49:30.281250,-16.37
16:49:30.296875,-17.60
16:49:30.312500,-18.33
16:49:30.328125,-18.20
16:49:30.343750,-17.02
16:49:30.359375,-14.86
16:49:30.375000,-12.02
16:49:30.390625,-8.92
16:49:30.406250,-5.98
16:49:30.421875,-3.45
16:49:30.437500,-1.40
16:49:30.453125,0.24
16:49:30.468750,1.63
16:49:30.484375,2.93
16:49:30.500000,4.15
16:49:30.515625,5.24
16:49:30.531250,6.06
16:49:30.546875,6.56
16:49:30.562500,6.78
16:49:30.578125,6.91
16:49:30.593750,7.15
16:49:30.609375,7.61
16:49:30.625000,8.25
16:49:30.640625,8.91
16:49:30.656250,9.38
16:49:30.671875,9.58
16:49:30.687500,9.55
16:49:30.703125,9.46
16:49:30.718750,9.45
16:49:30.734375,9.54
16:49:30.750000,9.64
16:49:30.765625,9.60
16:49:30.781250,9.31
16:49:30.796875,8.77
16:49:30.812500,8.07
16:49:30.828125,7.35
16:49:30.843750,6.67
16:49:30.859375,6.03
16:49:30.875000,5.38
16:49:30.890625,4.62
16:49:30.906250,3.72
16:49:30.921875,2.69
16:49:30.937500,1.61
16:49:30.953125,0.62
16:49:30.968750,-0.17
16:49:30.984375,-0.74
16:49:31,-1.15
16:49:31.015625,-1.56
16:49:31.031250,-2.15
16:49:31.046875,-3.02
16:49:31.062500,-4.17
16:49:31.078125,-5.52
16:49:31.093750,-6.91
16:49:31.109375,-8.24
16:49:31.125000,-9.49
16:49:31.140625,-10.73
16:49:31.156250,-12.05
16:49:31.171875,-13.49
16:49:31.187500,-14.97
16:49:31.203125,-16.29
16:49:31.218750,-17.19
16:49:31.234375,-17.41
16:49:31.250000,-16.84
16:49:31.265625,-15.49
16:49:31.281250,-13.54
16:49:31.296875,-11.22
16:49:31.312500,-8.77
16:49:31.328125,-6.37
16:49:31.343750,-4.07
16:49:31.359375,-1.90
16:49:31.375000,0.14
16:49:31.390625,2.01
16:49:31.406250,3.66
16:49:31.421875,5.00
16:49:31.437500,6.01
16:49:31.453125,6.69
16:49:31.468750,7.09
16:49:31.484375,7.31
16:49:31.500000,7.45
16:49:31.515625,7.60
16:49:31.531250,7.82
16:49:31.546875,8.07
16:49:31.562500,8.32
16:49:31.578125,8.53
16:49:31.593750,8.66
16:49:31.609375,8.78
16:49:31.625000,8.91
16:49:31.640625,9.11
16:49:31.656250,9.33
16:49:31.671875,9.53
16:49:31.687500,9.62
16:49:31.703125,9.52
16:49:31.718750,9.21
16:49:31.734375,8.70
16:49:31.750000,8.02
16:49:31.765625,7.18
16:49:31.781250,6.23
16:49:31.796875,5.22
16:49:31.812500,4.21
16:49:31.828125,3.28
16:49:31.843750,2.48
16:49:31.859375,1.80
16:49:31.875000,1.19
16:49:31.890625,0.59
16:49:31.906250,-0.08
16:49:31.921875,-0.86
16:49:31.937500,-1.80
16:49:31.953125,-2.89
16:49:31.968750,-4.10
16:49:31.984375,-5.34
16:49:32,-6.49
16:49:32.015625,-7.47
16:49:32.031250,-8.25
16:49:32.046875,-8.90
16:49:32.062500,-9.56
16:49:32.078125,-10.39
16:49:32.093750,-11.52
16:49:32.109375,-12.98
16:49:32.125000,-14.66
16:49:32.140625,-16.37
16:49:32.156250,-17.80
16:49:32.171875,-18.60
16:49:32.187500,-18.43
16:49:32.203125,-17.14
16:49:32.218750,-14.77
16:49:32.234375,-11.63
16:49:32.250000,-8.17
16:49:32.265625,-4.83
16:49:32.281250,-1.92
16:49:32.296875,0.46
16:49:32.312500,2.34
16:49:32.328125,3.79
16:49:32.343750,4.84
16:49:32.359375,5.54
16:49:32.375000,5.97
16:49:32.390625,6.31
16:49:32.406250,6.76
16:49:32.421875,7.46
16:49:32.437500,8.34
16:49:32.453125,9.25
16:49:32.468750,9.97
16:49:32.484375,10.39
16:49:32.500000,10.57
16:49:32.515625,10.67
16:49:32.531250,10.83
16:49:32.546875,11.09
16:49:32.562500,11.40
16:49:32.578125,11.66
16:49:32.593750,11.81
16:49:32.609375,11.81
16:49:32.625000,11.72
16:49:32.640625,11.57
16:49:32.656250,11.37
16:49:32.671875,11.11
16:49:32.687500,10.75
16:49:32.703125,10.24
16:49:32.718750,9.55
16:49:32.734375,8.65
16:49:32.750000,7.59
16:49:32.765625,6.42
16:49:32.781250,5.22
16:49:32.796875,4.09
16:49:32.812500,3.06
16:49:32.828125,2.17
16:49:32.843750,1.42
16:49:32.859375,0.79
16:49:32.875000,0.22
16:49:32.890625,-0.38
16:49:32.906250,-1.11
16:49:32.921875,-2.07
16:49:32.937500,-3.24
16:49:32.953125,-4.48
16:49:32.968750,-5.61
16:49:32.984375,-6.47
16:49:33,-7.05
16:49:33.015625,-7.50
16:49:33.031250,-8.06
16:49:33.046875,-8.97
16:49:33.062500,-10.28
16:49:33.078125,-11.89
16:49:33.093750,-13.52
16:49:33.109375,-14.84
16:49:33.125000,-15.55
16:49:33.140625,-15.51
16:49:33.156250,-14.65
16:49:33.171875,-13.06
16:49:33.187500,-10.88
16:49:33.203125,-8.28
16:49:33.218750,-5.50
16:49:33.234375,-2.80
16:49:33.250000,-0.42
16:49:33.265625,1.43
16:49:33.281250,2.68
16:49:33.296875,3.37
16:49:33.312500,3.67
16:49:33.328125,3.80
16:49:33.343750,3.94
16:49:33.359375,4.20
16:49:33.375000,4.63
16:49:33.390625,5.24
16:49:33.406250,5.97
16:49:33.421875,6.78
16:49:33.437500,7.62
16:49:33.453125,8.40
16:49:33.468750,9.02
16:49:33.484375,9.44
16:49:33.500000,9.62
16:49:33.515625,9.60
16:49:33.531250,9.47
16:49:33.546875,9.32
16:49:33.562500,9.21
16:49:33.578125,9.15
16:49:33.593750,9.07
16:49:33.609375,8.94
16:49:33.625000,8.73
16:49:33.640625,8.43
16:49:33.656250,8.07
16:49:33.671875,7.65
16:49:33.687500,7.08
16:49:33.703125,6.32
16:49:33.718750,5.33
16:49:33.734375,4.20
16:49:33.750000,3.14
16:49:33.765625,2.37
16:49:33.781250,2.00
16:49:33.796875,1.96
16:49:33.812500,1.98
16:49:33.828125,1.76
16:49:33.843750,1.11
16:49:33.859375,0.03
16:49:33.875000,-1.31
16:49:33.890625,-2.66
16:49:33.906250,-3.86
16:49:33.921875,-4.86
16:49:33.937500,-5.72
16:49:33.953125,-6.51
16:49:33.968750,-7.29
16:49:33.984375,-8.05
16:49:34,-8.78
16:49:34.015625,-9.51
16:49:34.031250,-10.31
16:49:34.046875,-11.20
16:49:34.062500,-12.12
16:49:34.078125,-12.83
16:49:34.093750,-13.03
16:49:34.109375,-12.47
16:49:34.125000,-11.05
16:49:34.140625,-8.89
16:49:34.156250,-6.31
16:49:34.171875,-3.68
16:49:34.187500,-1.28
16:49:34.203125,0.73
16:49:34.218750,2.37
16:49:34.234375,3.67
16:49:34.250000,4.66
16:49:34.265625,5.27
16:49:34.281250,5.46
16:49:34.296875,5.26
16:49:34.312500,4.83
16:49:34.328125,4.43
16:49:34.343750,4.30
16:49:34.359375,4.59
16:49:34.375000,5.25
16:49:34.390625,6.10
16:49:34.406250,6.91
16:49:34.421875,7.49
16:49:34.437500,7.78
16:49:34.453125,7.82
16:49:34.468750,7.77
16:49:34.484375,7.74
16:49:34.500000,7.84
16:49:34.515625,8.06
16:49:34.531250,8.28
16:49:34.546875,8.32
16:49:34.562500,8.01
16:49:34.578125,7.25
16:49:34.593750,6.10
16:49:34.609375,4.76
16:49:34.625000,3.51
16:49:34.640625,2.55
16:49:34.656250,1.91
16:49:34.671875,1.50
16:49:34.687500,1.16
16:49:34.703125,0.73
16:49:34.718750,0.18
16:49:34.734375,-0.45
16:49:34.750000,-1.12
16:49:34.765625,-1.85
16:49:34.781250,-2.69
16:49:34.796875,-3.71
16:49:34.812500,-4.89
16:49:34.828125,-6.12
16:49:34.843750,-7.26
16:49:34.859375,-8.21
16:49:34.875000,-8.99
16:49:34.890625,-9.74
16:49:34.906250,-10.61
16:49:34.921875,-11.67
16:49:34.937500,-12.81
16:49:34.953125,-13.75
16:49:34.968750,-14.12
16:49:34.984375,-13.61
16:49:35,-12.11
16:49:35.015625,-9.76
16:49:35.031250,-6.93
16:49:35.046875,-4.05
16:49:35.062500,-1.51
16:49:35.078125,0.52
16:49:35.093750,2.01
16:49:35.109375,3.08
16:49:35.125000,3.88
16:49:35.140625,4.46
16:49:35.156250,4.81
16:49:35.171875,4.92
16:49:35.187500,4.79
16:49:35.203125,4.54
16:49:35.218750,4.36
16:49:35.234375,4.44
16:49:35.250000,4.90
16:49:35.265625,5.66
16:49:35.281250,6.49
16:49:35.296875,7.10
16:49:35.312500,7.30
16:49:35.328125,7.08
16:49:35.343750,6.65
16:49:35.359375,6.31
16:49:35.375000,6.31
16:49:35.390625,6.63
16:49:35.406250,7.08
16:49:35.421875,7.31
16:49:35.437500,7.08
16:49:35.453125,6.34
16:49:35.468750,5.25
16:49:35.484375,4.07
16:49:35.500000,2.98
16:49:35.515625,2.04
16:49:35.531250,1.21
16:49:35.546875,0.41
16:49:35.562500,-0.37
16:49:35.578125,-1.08
16:49:35.593750,-1.63
16:49:35.609375,-2.00
16:49:35.625000,-2.24
16:49:35.640625,-2.50
16:49:35.656250,-2.94
16:49:35.671875,-3.70
16:49:35.687500,-4.82
16:49:35.703125,-6.26
16:49:35.718750,-7.88
16:49:35.734375,-9.51
16:49:35.750000,-11.00
16:49:35.765625,-12.17
16:49:35.781250,-12.93
16:49:35.796875,-13.18
16:49:35.812500,-12.89
16:49:35.828125,-12.06
16:49:35.843750,-10.69
16:49:35.859375,-8.88
16:49:35.875000,-6.77
16:49:35.890625,-4.60
16:49:35.906250,-2.62
16:49:35.921875,-1.02
16:49:35.937500,0.15
16:49:35.953125,0.99
16:49:35.968750,1.71
16:49:35.984375,2.51
16:49:36,3.48
16:49:36.015625,4.54
16:49:36.031250,5.52
16:49:36.046875,6.22
16:49:36.062500,6.55
16:49:36.078125,6.54
16:49:36.093750,6.36
16:49:36.109375,6.17
16:49:36.125000,6.09
16:49:36.140625,6.15
16:49:36.156250,6.32
16:49:36.171875,6.54
16:49:36.187500,6.80
16:49:36.203125,7.09
16:49:36.218750,7.40
16:49:36.234375,7.69
16:49:36.250000,7.87
16:49:36.265625,7.85
16:49:36.281250,7.62
16:49:36.296875,7.19
16:49:36.312500,6.63
16:49:36.328125,6.02
16:49:36.343750,5.40
16:49:36.359375,4.78
16:49:36.375000,4.17
16:49:36.390625,3.53
16:49:36.406250,2.81
16:49:36.421875,1.97
16:49:36.437500,0.96
16:49:36.453125,-0.21
16:49:36.468750,-1.45
16:49:36.484375,-2.65
16:49:36.500000,-3.66
16:49:36.515625,-4.40
16:49:36.531250,-4.89
16:49:36.546875,-5.31
16:49:36.562500,-5.88
16:49:36.578125,-6.78
16:49:36.593750,-8.08
16:49:36.609375,-9.64
16:49:36.625000,-11.18
16:49:36.640625,-12.42
16:49:36.656250,-13.07
16:49:36.671875,-13.01
16:49:36.687500,-12.21
16:49:36.703125,-10.76
16:49:36.718750,-8.79
16:49:36.734375,-6.53
16:49:36.750000,-4.16
16:49:36.765625,-1.92
16:49:36.781250,0.01
16:49:36.796875,1.52
16:49:36.812500,2.60
16:49:36.828125,3.30
16:49:36.843750,3.75
16:49:36.859375,4.03
16:49:36.875000,4.18
16:49:36.890625,4.22
16:49:36.906250,4.16
16:49:36.921875,4.04
16:49:36.937500,3.96
16:49:36.953125,3.97
16:49:36.968750,4.12
16:49:36.984375,4.38
16:49:37,4.69
16:49:37.015625,4.99
16:49:37.031250,5.23
16:49:37.046875,5.40
16:49:37.062500,5.49
16:49:37.078125,5.48
16:49:37.093750,5.35
16:49:37.109375,5.12
16:49:37.125000,4.84
16:49:37.140625,4.59
16:49:37.156250,4.42
16:49:37.171875,4.32
16:49:37.187500,4.20
16:49:37.203125,3.97
16:49:37.218750,3.54
16:49:37.234375,2.88
16:49:37.250000,2.02
16:49:37.265625,1.05
16:49:37.281250,0.03
16:49:37.296875,-0.98
16:49:37.312500,-1.97
16:49:37.328125,-2.90
16:49:37.343750,-3.79
16:49:37.359375,-4.61
16:49:37.375000,-5.39
16:49:37.390625,-6.15
16:49:37.406250,-6.91
16:49:37.421875,-7.69
16:49:37.437500,-8.52
16:49:37.453125,-9.43
16:49:37.468750,-10.46
16:49:37.484375,-11.62
16:49:37.500000,-12.84
16:49:37.515625,-13.93
16:49:37.531250,-14.66
16:49:37.546875,-14.80
16:49:37.562500,-14.26
16:49:37.578125,-13.08
16:49:37.593750,-11.41
16:49:37.609375,-9.46
16:49:37.625000,-7.46
16:49:37.640625,-5.54
16:49:37.656250,-3.81
16:49:37.671875,-2.30
16:49:37.687500,-1.02
16:49:37.703125,0.07
16:49:37.718750,1.00
16:49:37.734375,1.76
16:49:37.750000,2.28
16:49:37.765625,2.52
16:49:37.781250,2.49
16:49:37.796875,2.29
16:49:37.812500,2.14
16:49:37.828125,2.25
16:49:37.843750,2.73
16:49:37.859375,3.53
16:49:37.875000,4.47
16:49:37.890625,5.35
16:49:37.906250,6.02
16:49:37.921875,6.42
16:49:37.937500,6.58
16:49:37.953125,6.55
16:49:37.968750,6.36
16:49:37.984375,6.03
16:49:38,5.61
16:49:38.015625,5.15
16:49:38.031250,4.73
16:49:38.046875,4.40
16:49:38.062500,4.20
16:49:38.078125,4.06
16:49:38.093750,3.89
16:49:38.109375,3.55
16:49:38.125000,2.97
16:49:38.140625,2.11
16:49:38.156250,1.01
16:49:38.171875,-0.19
16:49:38.187500,-1.36
16:49:38.203125,-2.36
16:49:38.218750,-3.16
16:49:38.234375,-3.80
16:49:38.250000,-4.34
16:49:38.265625,-4.87
16:49:38.281250,-5.41
16:49:38.296875,-5.98
16:49:38.312500,-6.60
16:49:38.328125,-7.35
16:49:38.343750,-8.30
16:49:38.359375,-9.50
16:49:38.375000,-10.86
16:49:38.390625,-12.24
16:49:38.406250,-13.46
16:49:38.421875,-14.33
16:49:38.437500,-14.78
16:49:38.453125,-14.73
16:49:38.468750,-14.16
16:49:38.484375,-13.06
16:49:38.500000,-11.40
16:49:38.515625,-9.27
16:49:38.531250,-6.83
16:49:38.546875,-4.37
16:49:38.562500,-2.13
16:49:38.578125,-0.30
16:49:38.593750,1.06
16:49:38.609375,2.02
16:49:38.625000,2.69
16:49:38.640625,3.14
16:49:38.656250,3.43
16:49:38.671875,3.61
16:49:38.687500,3.79
16:49:38.703125,4.13
16:49:38.718750,4.73
16:49:38.734375,5.58
16:49:38.750000,6.56
16:49:38.765625,7.41
16:49:38.781250,7.94
16:49:38.796875,8.10
16:49:38.812500,8.01
16:49:38.828125,7.89
16:49:38.843750,7.92
16:49:38.859375,8.12
16:49:38.875000,8.36
16:49:38.890625,8.45
16:49:38.906250,8.25
16:49:38.921875,7.74
16:49:38.937500,7.05
16:49:38.953125,6.33
16:49:38.968750,5.66
16:49:38.984375,5.06
16:49:39,4.45
16:49:39.015625,3.76
16:49:39.031250,2.95
16:49:39.046875,2.09
16:49:39.062500,1.24
16:49:39.078125,0.46
16:49:39.093750,-0.25
16:49:39.109375,-0.94
16:49:39.125000,-1.69
16:49:39.140625,-2.56
16:49:39.156250,-3.57
16:49:39.171875,-4.70
16:49:39.187500,-5.89
16:49:39.203125,-7.07
16:49:39.218750,-8.21
16:49:39.234375,-9.33
16:49:39.250000,-10.47
16:49:39.265625,-11.76
16:49:39.281250,-13.26
16:49:39.296875,-14.97
16:49:39.312500,-16.75
16:49:39.328125,-18.40
16:49:39.343750,-19.63
16:49:39.359375,-20.19
16:49:39.375000,-19.92
16:49:39.390625,-18.81
16:49:39.406250,-16.98
16:49:39.421875,-14.61
16:49:39.437500,-11.94
16:49:39.453125,-9.20
16:49:39.468750,-6.57
16:49:39.484375,-4.17
16:49:39.500000,-2.06
16:49:39.515625,-0.26
16:49:39.531250,1.24
16:49:39.546875,2.48
16:49:39.562500,3.46
16:49:39.578125,4.23
16:49:39.593750,4.85
16:49:39.609375,5.37
16:49:39.625000,5.88
16:49:39.640625,6.41
16:49:39.656250,6.99
16:49:39.671875,7.61
16:49:39.687500,8.25
16:49:39.703125,8.88
16:49:39.718750,9.47
16:49:39.734375,10.02
16:49:39.750000,10.53
16:49:39.765625,10.99
16:49:39.781250,11.39
16:49:39.796875,11.70
16:49:39.812500,11.86
16:49:39.828125,11.79
16:49:39.843750,11.49
16:49:39.859375,10.95
16:49:39.875000,10.25
16:49:39.890625,9.48
16:49:39.906250,8.70
16:49:39.921875,7.96
16:49:39.937500,7.21
16:49:39.953125,6.41
16:49:39.968750,5.56
16:49:39.984375,4.68
16:49:40,3.85
16:49:40.015625,3.13
16:49:40.031250,2.52
16:49:40.046875,1.93
16:49:40.062500,1.22
16:49:40.078125,0.23
16:49:40.093750,-1.09
16:49:40.109375,-2.67
16:49:40.125000,-4.33
16:49:40.140625,-5.89
16:49:40.156250,-7.23
16:49:40.171875,-8.38
16:49:40.187500,-9.52
16:49:40.203125,-10.82
16:49:40.218750,-12.42
16:49:40.234375,-14.33
16:49:40.250000,-16.45
16:49:40.265625,-18.64
16:49:40.281250,-20.74
16:49:40.296875,-22.55
16:49:40.312500,-23.83
16:49:40.328125,-24.30
16:49:40.343750,-23.68
16:49:40.359375,-21.85
16:49:40.375000,-18.88
16:49:40.390625,-15.14
16:49:40.406250,-11.15
16:49:40.421875,-7.41
16:49:40.437500,-4.28
16:49:40.453125,-1.82
16:49:40.468750,0.10
16:49:40.484375,1.73
16:49:40.500000,3.28
16:49:40.515625,4.81
16:49:40.531250,6.29
16:49:40.546875,7.60
16:49:40.562500,8.65
16:49:40.578125,9.45
16:49:40.593750,10.12
16:49:40.609375,10.77
16:49:40.625000,11.52
16:49:40.640625,12.38
16:49:40.656250,13.27
16:49:40.671875,14.10
16:49:40.687500,14.81
16:49:40.703125,15.40
16:49:40.718750,15.92
16:49:40.734375,16.39
16:49:40.750000,16.77
16:49:40.765625,16.95
16:49:40.781250,16.79
16:49:40.796875,16.24
16:49:40.812500,15.37
16:49:40.828125,14.36
16:49:40.843750,13.40
16:49:40.859375,12.59
16:49:40.875000,11.94
16:49:40.890625,11.34
16:49:40.906250,10.67
16:49:40.921875,9.86
16:49:40.937500,8.90
16:49:40.953125,7.86
16:49:40.968750,6.78
16:49:40.984375,5.70
16:49:41,4.61
16:49:41.015625,3.45
16:49:41.031250,2.21
16:49:41.046875,0.87
16:49:41.062500,-0.52
16:49:41.078125,-1.92
16:49:41.093750,-3.28
16:49:41.109375,-4.60
16:49:41.125000,-5.94
16:49:41.140625,-7.40
16:49:41.156250,-9.08
16:49:41.171875,-11.00
16:49:41.187500,-13.11
16:49:41.203125,-15.27
16:49:41.218750,-17.36
16:49:41.234375,-19.25
16:49:41.250000,-20.88
16:49:41.265625,-22.11
16:49:41.281250,-22.77
16:49:41.296875,-22.62
16:49:41.312500,-21.50
16:49:41.328125,-19.37
16:49:41.343750,-16.41
16:49:41.359375,-12.91
16:49:41.375000,-9.22
16:49:41.390625,-5.60
16:49:41.406250,-2.19
16:49:41.421875,0.91
16:49:41.437500,3.65
16:49:41.453125,5.92
16:49:41.468750,7.67
16:49:41.484375,8.92
16:49:41.500000,9.79
16:49:41.515625,10.43
16:49:41.531250,10.99
16:49:41.546875,11.53
16:49:41.562500,12.04
16:49:41.578125,12.53
16:49:41.593750,13.03
16:49:41.609375,13.61
16:49:41.625000,14.35
16:49:41.640625,15.25
16:49:41.656250,16.16
16:49:41.671875,16.94
16:49:41.687500,17.40
16:49:41.703125,17.49
16:49:41.718750,17.28
16:49:41.734375,16.92
16:49:41.750000,16.50
16:49:41.765625,16.05
16:49:41.781250,15.50
16:49:41.796875,14.79
16:49:41.812500,13.92
16:49:41.828125,12.96
16:49:41.843750,12.03
16:49:41.859375,11.17
16:49:41.875000,10.32
16:49:41.890625,9.34
16:49:41.906250,8.10
16:49:41.921875,6.58
16:49:41.937500,4.91
16:49:41.953125,3.32
16:49:41.968750,2.04
16:49:41.984375,1.16
16:49:42,0.57
16:49:42.015625,0.05
16:49:42.031250,-0.69
16:49:42.046875,-1.81
16:49:42.062500,-3.35
16:49:42.078125,-5.14
16:49:42.093750,-6.99
16:49:42.109375,-8.75
16:49:42.125000,-10.35
16:49:42.140625,-11.90
16:49:42.156250,-13.54
16:49:42.171875,-15.35
16:49:42.187500,-17.27
16:49:42.203125,-19.07
16:49:42.218750,-20.39
16:49:42.234375,-20.93
16:49:42.250000,-20.49
16:49:42.265625,-19.07
16:49:42.281250,-16.85
16:49:42.296875,-14.05
16:49:42.312500,-10.92
16:49:42.328125,-7.62
16:49:42.343750,-4.27
16:49:42.359375,-0.97
16:49:42.375000,2.13
16:49:42.390625,4.89
16:49:42.406250,7.13
16:49:42.421875,8.75
16:49:42.437500,9.74
16:49:42.453125,10.20
16:49:42.468750,10.28
16:49:42.484375,10.18
16:49:42.500000,10.07
16:49:42.515625,10.11
16:49:42.531250,10.39
16:49:42.546875,10.92
16:49:42.562500,11.59
16:49:42.578125,12.27
16:49:42.593750,12.84
16:49:42.609375,13.27
16:49:42.625000,13.65
16:49:42.640625,14.06
16:49:42.656250,14.54
16:49:42.671875,14.98
16:49:42.687500,15.19
16:49:42.703125,14.97
16:49:42.718750,14.25
16:49:42.734375,13.08
16:49:42.750000,11.65
16:49:42.765625,10.16
16:49:42.781250,8.74
16:49:42.796875,7.44
16:49:42.812500,6.26
16:49:42.828125,5.24
16:49:42.843750,4.44
16:49:42.859375,3.87
16:49:42.875000,3.46
16:49:42.890625,3.07
16:49:42.906250,2.54
16:49:42.921875,1.73
16:49:42.937500,0.64
16:49:42.953125,-0.62
16:49:42.968750,-1.93
16:49:42.984375,-3.15
16:49:43,-4.24
16:49:43.015625,-5.16
16:49:43.031250,-5.99
16:49:43.046875,-6.83
16:49:43.062500,-7.84
16:49:43.078125,-9.16
16:49:43.093750,-10.84
16:49:43.109375,-12.78
16:49:43.125000,-14.67
16:49:43.140625,-16.07
16:49:43.156250,-16.52
16:49:43.171875,-15.75
16:49:43.187500,-13.75
16:49:43.203125,-10.78
16:49:43.218750,-7.28
16:49:43.234375,-3.67
16:49:43.250000,-0.30
16:49:43.265625,2.63
16:49:43.281250,5.05
16:49:43.296875,6.95
16:49:43.312500,8.32
16:49:43.328125,9.16
16:49:43.343750,9.52
16:49:43.359375,9.45
16:49:43.375000,9.08
16:49:43.390625,8.55
16:49:43.406250,8.02
16:49:43.421875,7.63
16:49:43.437500,7.45
16:49:43.453125,7.53
16:49:43.468750,7.88
16:49:43.484375,8.47
16:49:43.500000,9.22
16:49:43.515625,10.02
16:49:43.531250,10.71
16:49:43.546875,11.12
16:49:43.562500,11.12
16:49:43.578125,10.69
16:49:43.593750,9.83
16:49:43.609375,8.65
16:49:43.625000,7.28
16:49:43.640625,5.84
16:49:43.656250,4.42
16:49:43.671875,3.13
16:49:43.687500,2.00
16:49:43.703125,1.08
16:49:43.718750,0.35
16:49:43.734375,-0.26
16:49:43.750000,-0.89
16:49:43.765625,-1.66
16:49:43.781250,-2.64
16:49:43.796875,-3.83
16:49:43.812500,-5.13
16:49:43.828125,-6.44
16:49:43.843750,-7.65
16:49:43.859375,-8.73
16:49:43.875000,-9.75
16:49:43.890625,-10.79
16:49:43.906250,-11.99
16:49:43.921875,-13.47
16:49:43.937500,-15.30
16:49:43.953125,-17.41
16:49:43.968750,-19.65
16:49:43.984375,-21.70
16:49:44,-23.23
16:49:44.015625,-23.96
16:49:44.031250,-23.71
16:49:44.046875,-22.47
16:49:44.062500,-20.37
16:49:44.078125,-17.60
16:49:44.093750,-14.43
16:49:44.109375,-11.10
16:49:44.125000,-7.82
16:49:44.140625,-4.77
16:49:44.156250,-2.05
16:49:44.171875,0.34
16:49:44.187500,2.43
16:49:44.203125,4.24
16:49:44.218750,5.80
16:49:44.234375,7.03
16:49:44.250000,7.88
16:49:44.265625,8.33
16:49:44.281250,8.45
16:49:44.296875,8.41
16:49:44.312500,8.39
16:49:44.328125,8.56
16:49:44.343750,8.96
16:49:44.359375,9.52
16:49:44.375000,10.11
16:49:44.390625,10.60
16:49:44.406250,10.92
16:49:44.421875,11.03
16:49:44.437500,10.97
16:49:44.453125,10.78
16:49:44.468750,10.49
16:49:44.484375,10.08
16:49:44.500000,9.53
16:49:44.515625,8.81
16:49:44.531250,7.93
16:49:44.546875,6.94
16:49:44.562500,5.91
16:49:44.578125,4.92
16:49:44.593750,4.04
16:49:44.609375,3.25
16:49:44.625000,2.53
16:49:44.640625,1.77
16:49:44.656250,0.85
16:49:44.671875,-0.31
16:49:44.687500,-1.74
16:49:44.703125,-3.38
16:49:44.718750,-5.08
16:49:44.734375,-6.69
16:49:44.750000,-8.13
16:49:44.765625,-9.35
16:49:44.781250,-10.46
16:49:44.796875,-11.58
16:49:44.812500,-12.86
16:49:44.828125,-14.39
16:49:44.843750,-16.12
16:49:44.859375,-17.88
16:49:44.875000,-19.40
16:49:44.890625,-20.35
16:49:44.906250,-20.47
16:49:44.921875,-19.63
16:49:44.937500,-17.83
16:49:44.953125,-15.24
16:49:44.968750,-12.12
16:49:44.984375,-8.79
16:49:45,-5.55
16:49:45.015625,-2.62
16:49:45.031250,-0.09
16:49:45.046875,2.06
16:49:45.062500,3.89
16:49:45.078125,5.51
16:49:45.093750,6.98
16:49:45.109375,8.29
16:49:45.125000,9.41
16:49:45.140625,10.29
16:49:45.156250,10.87
16:49:45.171875,11.19
16:49:45.187500,11.31
16:49:45.203125,11.35
16:49:45.218750,11.44
16:49:45.234375,11.68
16:49:45.250000,12.10
16:49:45.265625,12.65
16:49:45.281250,13.21
16:49:45.296875,13.71
16:49:45.312500,14.15
16:49:45.328125,14.60
16:49:45.343750,15.22
16:49:45.359375,16.12
16:49:45.375000,17.18
16:49:45.390625,18.04
16:49:45.406250,18.21
16:49:45.421875,17.22
16:49:45.437500,15.00
16:49:45.453125,12.00
16:49:45.468750,9.19
16:49:45.484375,7.71
16:49:45.500000,8.28
16:49:45.515625,10.68
16:49:45.531250,13.71
16:49:45.546875,15.58
16:49:45.562500,14.77
16:49:45.578125,10.92
16:49:45.593750,5.19
16:49:45.609375,-0.19
16:49:45.625000,-2.95
16:49:45.640625,-1.74
16:49:45.656250,3.10
16:49:45.671875,9.53
16:49:45.687500,14.20
16:49:45.703125,13.15
16:49:45.718750,2.52
16:49:45.734375,-20.47
16:49:45.750000,-56.58
16:49:45.765625,-103.39
16:49:45.781250,-154.91
16:49:45.796875,-202.41
16:49:45.812500,-236.40
16:49:45.828125,-249.48
16:49:45.843750,-238.59
16:49:45.859375,-205.81
16:49:45.875000,-157.32
16:49:45.890625,-101.03
16:49:45.906250,-44.17
16:49:45.921875,8.10
16:49:45.937500,52.95
16:49:45.953125,89.11
16:49:45.968750,115.97
16:49:45.984375,132.88
16:49:46,138.88
16:49:46.015625,132.64
16:49:46.031250,112.72
16:49:46.046875,78.30
16:49:46.062500,30.49
16:49:46.078125,-26.53
16:49:46.093750,-85.02
16:49:46.109375,-135.00
16:49:46.125000,-166.94
16:49:46.140625,-174.59
16:49:46.156250,-156.72
16:49:46.171875,-116.72
16:49:46.187500,-60.80
16:49:46.203125,3.84
16:49:46.218750,70.01
16:49:46.234375,130.35
16:49:46.250000,177.17
16:49:46.265625,203.28
16:49:46.281250,204.17
16:49:46.296875,180.15
16:49:46.312500,137.39
16:49:46.328125,86.46
16:49:46.343750,38.98
16:49:46.359375,3.75
16:49:46.375000,-15.53
16:49:46.390625,-20.17
16:49:46.406250,-14.40
16:49:46.421875,-2.78
16:49:46.437500,11.58
16:49:46.453125,27.26
16:49:46.468750,43.60
16:49:46.484375,59.52
16:49:46.500000,73.07
16:49:46.515625,81.88
16:49:46.531250,84.04
16:49:46.546875,78.55
16:49:46.562500,65.44
16:49:46.578125,45.33
16:49:46.593750,19.44
16:49:46.609375,-10.14
16:49:46.625000,-40.20
16:49:46.640625,-66.51
16:49:46.656250,-85.04
16:49:46.671875,-93.41
16:49:46.687500,-91.87
16:49:46.703125,-83.07
16:49:46.718750,-70.66
16:49:46.734375,-57.53
16:49:46.750000,-44.72
16:49:46.765625,-31.56
16:49:46.781250,-16.77
16:49:46.796875,0.18
16:49:46.812500,18.38
16:49:46.828125,35.73
16:49:46.843750,49.76
16:49:46.859375,58.53
16:49:46.875000,61.18
16:49:46.890625,57.92
16:49:46.906250,49.82
16:49:46.921875,38.47
16:49:46.937500,25.66
16:49:46.953125,13.13
16:49:46.968750,2.61
16:49:46.984375,-4.20
16:49:47,-5.98
16:49:47.015625,-2.20
16:49:47.031250,6.32
16:49:47.046875,17.28
16:49:47.062500,27.43
16:49:47.078125,33.56
16:49:47.093750,33.60
16:49:47.109375,27.42
16:49:47.125000,16.81
16:49:47.140625,4.94
16:49:47.156250,-4.77
16:49:47.171875,-9.87
16:49:47.187500,-10.01
16:49:47.203125,-7.29
16:49:47.218750,-5.72
16:49:47.234375,-9.52
16:49:47.250000,-20.94
16:49:47.265625,-38.67
16:49:47.281250,-57.80
16:49:47.296875,-71.66
16:49:47.312500,-74.70
16:49:47.328125,-65.05
16:49:47.343750,-45.35
16:49:47.359375,-21.54
16:49:47.375000,-0.30
16:49:47.390625,13.48
16:49:47.406250,17.94
16:49:47.421875,14.13
16:49:47.437500,4.85
16:49:47.453125,-6.46
16:49:47.468750,-16.54
16:49:47.484375,-22.77
16:49:47.500000,-23.66
16:49:47.515625,-19.19
16:49:47.531250,-10.95
16:49:47.546875,-1.63
16:49:47.562500,6.09
16:49:47.578125,10.65
16:49:47.593750,12.20
16:49:47.609375,12.06
16:49:47.625000,11.67
16:49:47.640625,11.55
16:49:47.656250,11.11
16:49:47.671875,9.21
16:49:47.687500,5.11
16:49:47.703125,-0.98
16:49:47.718750,-8.11
16:49:47.734375,-15.23
16:49:47.750000,-21.90
16:49:47.765625,-28.23
16:49:47.781250,-34.31
16:49:47.796875,-39.65
16:49:47.812500,-42.93
16:49:47.828125,-42.41
16:49:47.843750,-36.82
16:49:47.859375,-26.10
16:49:47.875000,-11.70
16:49:47.890625,3.87
16:49:47.906250,17.85
16:49:47.921875,28.09
16:49:47.937500,33.56
16:49:47.953125,34.40
16:49:47.968750,31.57
16:49:47.984375,26.35
16:49:48,19.90
16:49:48.015625,13.08
16:49:48.031250,6.37
16:49:48.046875,0.06
16:49:48.062500,-5.59
16:49:48.078125,-10.27
16:49:48.093750,-13.54
16:49:48.109375,-14.92
16:49:48.125000,-14.02
16:49:48.140625,-10.66
16:49:48.156250,-5.06
16:49:48.171875,2.06
16:49:48.187500,9.40
16:49:48.203125,15.32
16:49:48.218750,18.07
16:49:48.234375,16.32
16:49:48.250000,9.53
16:49:48.265625,-1.66
16:49:48.281250,-15.35
16:49:48.296875,-28.72
16:49:48.312500,-38.67
16:49:48.328125,-42.83
16:49:48.343750,-40.28
16:49:48.359375,-31.99
16:49:48.375000,-20.46
16:49:48.390625,-8.79
16:49:48.406250,0.35
16:49:48.421875,5.67
16:49:48.437500,7.42
16:49:48.453125,6.97
16:49:48.468750,6.01
16:49:48.484375,5.66
16:49:48.500000,6.10
16:49:48.515625,6.70
16:49:48.531250,6.67
16:49:48.546875,5.62
16:49:48.562500,3.95
16:49:48.578125,2.72
16:49:48.593750,3.09
16:49:48.609375,5.77
16:49:48.625000,10.62
16:49:48.640625,16.76
16:49:48.656250,22.96
16:49:48.671875,28.06
16:49:48.687500,31.36
16:49:48.703125,32.65
16:49:48.718750,32.11
16:49:48.734375,30.13
16:49:48.750000,27.24
16:49:48.765625,24.03
16:49:48.781250,21.03
16:49:48.796875,18.64
16:49:48.812500,16.89
16:49:48.828125,15.48
16:49:48.843750,13.87
16:49:48.859375,11.48
16:49:48.875000,8.04
16:49:48.890625,3.73
16:49:48.906250,-0.88
16:49:48.921875,-5.04
16:49:48.937500,-8.16
16:49:48.953125,-10.15
16:49:48.968750,-11.44
16:49:48.984375,-12.80
16:49:49,-14.93
16:49:49.015625,-18.09
16:49:49.031250,-21.84
16:49:49.046875,-25.00
16:49:49.062500,-25.90
16:49:49.078125,-22.91
16:49:49.093750,-15.06
16:49:49.109375,-2.50
16:49:49.125000,13.26
16:49:49.140625,29.61
16:49:49.156250,43.51
16:49:49.171875,52.47
16:49:49.187500,55.45
16:49:49.203125,53.53
16:49:49.218750,49.56
16:49:49.234375,47.30
16:49:49.250000,49.76
16:49:49.265625,57.96
16:49:49.281250,70.38
16:49:49.296875,83.61
16:49:49.312500,93.91
16:49:49.328125,98.94
16:49:49.343750,98.73
16:49:49.359375,95.42
16:49:49.375000,92.02
16:49:49.390625,90.76
16:49:49.406250,92.14
16:49:49.421875,95.25
16:49:49.437500,98.99
16:49:49.453125,103.05
16:49:49.468750,107.89
16:49:49.484375,113.85
16:49:49.500000,119.67
16:49:49.515625,121.94
16:49:49.531250,116.26
16:49:49.546875,99.03
16:49:49.562500,69.17
16:49:49.578125,28.50
16:49:49.593750,-19.30
16:49:49.609375,-70.11
16:49:49.625000,-120.19
16:49:49.640625,-165.92
16:49:49.656250,-203.01
16:49:49.671875,-226.52
16:49:49.687500,-232.08
16:49:49.703125,-217.96
16:49:49.718750,-186.74
16:49:49.734375,-145.30
16:49:49.750000,-102.81
16:49:49.765625,-67.84
16:49:49.781250,-46.03
16:49:49.796875,-39.14
16:49:49.812500,-45.61
16:49:49.828125,-61.56
16:49:49.843750,-81.94
16:49:49.859375,-100.99
16:49:49.875000,-112.92
16:49:49.890625,-113.02
16:49:49.906250,-99.25
16:49:49.921875,-73.71
16:49:49.937500,-43.16
16:49:49.953125,-17.74
16:49:49.968750,-8.18
16:49:49.984375,-21.73
16:49:50,-58.69
16:49:50.015625,-111.30
16:49:50.031250,-165.49
16:49:50.046875,-205.54
16:49:50.062500,-219.77
16:49:50.078125,-204.92
16:49:50.093750,-167.27
16:49:50.109375,-119.85
16:49:50.125000,-77.16
16:49:50.140625,-49.66
16:49:50.156250,-40.40
16:49:50.171875,-45.18
16:49:50.187500,-55.41
16:49:50.203125,-62.21
16:49:50.218750,-59.44
16:49:50.234375,-44.94
16:49:50.250000,-19.58
16:49:50.265625,14.52
16:49:50.281250,55.26
16:49:50.296875,100.95
16:49:50.312500,149.65
16:49:50.328125,198.62
16:49:50.343750,244.19
16:49:50.359375,282.71
16:49:50.375000,311.73
16:49:50.390625,330.78
16:49:50.406250,341.05
16:49:50.421875,344.33
16:49:50.437500,341.86
16:49:50.453125,333.96
16:49:50.468750,320.66
16:49:50.484375,302.97
16:49:50.500000,283.63
16:49:50.515625,266.64
16:49:50.531250,255.59
16:49:50.546875,251.66
16:49:50.562500,252.44
16:49:50.578125,252.51
16:49:50.593750,245.45
16:49:50.609375,226.65
16:49:50.625000,195.08
16:49:50.640625,153.49
16:49:50.656250,107.06
16:49:50.671875,60.98
16:49:50.687500,18.53
16:49:50.703125,-19.73
16:49:50.718750,-55.32
16:49:50.734375,-90.87
16:49:50.750000,-128.93
16:49:50.765625,-171.18
16:49:50.781250,-217.62
16:49:50.796875,-265.95
16:49:50.812500,-311.24
16:49:50.828125,-346.76
16:49:50.843750,-366.00
16:49:50.859375,-365.45
16:49:50.875000,-346.61
16:49:50.890625,-316.06
16:49:50.906250,-283.33
16:49:50.921875,-257.34
16:49:50.937500,-243.16
16:49:50.953125,-240.52
16:49:50.968750,-244.67
16:49:50.984375,-248.73
16:49:51,-246.39
16:49:51.015625,-233.60
16:49:51.031250,-208.85
16:49:51.046875,-172.59
16:49:51.062500,-126.35
16:49:51.078125,-72.14
16:49:51.093750,-12.24
16:49:51.109375,50.82
16:49:51.125000,114.38
16:49:51.140625,175.33
16:49:51.156250,230.38
16:49:51.171875,276.61
16:49:51.187500,312.20
16:49:51.203125,337.05
16:49:51.218750,352.65
16:49:51.234375,361.19
16:49:51.250000,364.08
16:49:51.265625,360.99
16:49:51.281250,349.82
16:49:51.296875,327.88
16:49:51.312500,293.70
16:49:51.328125,248.47
16:49:51.343750,196.10
16:49:51.359375,141.83
16:49:51.375000,90.07
16:49:51.390625,42.68
16:49:51.406250,-1.58
16:49:51.421875,-46.15
16:49:51.437500,-94.62
16:49:51.453125,-148.73
16:49:51.468750,-207.04
16:49:51.484375,-264.61
16:49:51.500000,-313.98
16:49:51.515625,-347.25
16:49:51.531250,-358.58
16:49:51.546875,-346.47
16:49:51.562500,-314.53
16:49:51.578125,-270.41
16:49:51.593750,-223.29
16:49:51.609375,-180.73
16:49:51.625000,-146.51
16:49:51.640625,-120.22
16:49:51.656250,-98.74
16:49:51.671875,-78.52
16:49:51.687500,-57.40
16:49:51.703125,-35.32
16:49:51.718750,-13.64
16:49:51.734375,6.19
16:49:51.750000,23.56
16:49:51.765625,39.04
16:49:51.781250,53.75
16:49:51.796875,68.48
16:49:51.812500,82.95
16:49:51.828125,95.86
16:49:51.843750,105.41
16:49:51.859375,110.06
16:49:51.875000,109.26
16:49:51.890625,103.71
16:49:51.906250,95.09
16:49:51.921875,85.44
16:49:51.937500,76.43
16:49:51.953125,68.74
16:49:51.968750,61.88
16:49:51.984375,54.49
16:49:52,45.10
16:49:52.015625,33.01
16:49:52.031250,18.96
16:49:52.046875,5.13
16:49:52.062500,-5.61
16:49:52.078125,-10.93
16:49:52.093750,-10.28
16:49:52.109375,-5.34
16:49:52.125000,0.62
16:49:52.140625,4.21
16:49:52.156250,3.38
16:49:52.171875,-1.76
16:49:52.187500,-9.20
16:49:52.203125,-16.27
16:49:52.218750,-20.89
16:49:52.234375,-22.47
16:49:52.250000,-21.92
16:49:52.265625,-20.94
16:49:52.281250,-21.13
16:49:52.296875,-23.26
16:49:52.312500,-27.10
16:49:52.328125,-31.57
16:49:52.343750,-35.24
16:49:52.359375,-36.89
16:49:52.375000,-35.98
16:49:52.390625,-32.82
16:49:52.406250,-28.55
16:49:52.421875,-24.69
16:49:52.437500,-22.50
16:49:52.453125,-22.46
16:49:52.468750,-24.13
16:49:52.484375,-26.40
16:49:52.500000,-28.17
16:49:52.515625,-29.00
16:49:52.531250,-29.35
16:49:52.546875,-30.15
16:49:52.562500,-32.26
16:49:52.578125,-35.75
16:49:52.593750,-39.71
16:49:52.609375,-42.51
16:49:52.625000,-42.45
16:49:52.640625,-38.32
16:49:52.656250,-29.81
16:49:52.671875,-17.44
16:49:52.687500,-2.42
16:49:52.703125,13.46
16:49:52.718750,28.06
16:49:52.734375,39.19
16:49:52.750000,45.37
16:49:52.765625,46.73
16:49:52.781250,45.63
16:49:52.796875,46.23
16:49:52.812500,52.83
16:49:52.828125,67.54
16:49:52.843750,88.42
16:49:52.859375,109.60
16:49:52.875000,123.48
16:49:52.890625,124.17
16:49:52.906250,110.36
16:49:52.921875,85.72
16:49:52.937500,56.85
16:49:52.953125,29.79
16:49:52.968750,7.26
16:49:52.984375,-11.85
16:49:53,-30.71
16:49:53.015625,-51.86
16:49:53.031250,-75.41
16:49:53.046875,-98.86
16:49:53.062500,-118.68
16:49:53.078125,-132.03
16:49:53.093750,-137.91
16:49:53.109375,-136.99
16:49:53.125000,-130.90
16:49:53.140625,-121.41
16:49:53.156250,-110.12
16:49:53.171875,-98.53
16:49:53.187500,-88.14
16:49:53.203125,-80.27
16:49:53.218750,-75.69
16:49:53.234375,-74.29
16:49:53.250000,-74.97
16:49:53.265625,-75.71
16:49:53.281250,-73.87
16:49:53.296875,-66.81
16:49:53.312500,-52.81
16:49:53.328125,-32.09
16:49:53.343750,-7.25
16:49:53.359375,17.02
16:49:53.375000,35.35
16:49:53.390625,43.74
16:49:53.406250,41.18
16:49:53.421875,30.27
16:49:53.437500,16.31
16:49:53.453125,5.34
16:49:53.468750,1.92
16:49:53.484375,7.73
16:49:53.500000,21.23
16:49:53.515625,38.55
16:49:53.531250,55.03
16:49:53.546875,66.76
16:49:53.562500,71.57
16:49:53.578125,69.40
16:49:53.593750,61.89
16:49:53.609375,51.45
16:49:53.625000,40.49
16:49:53.640625,30.88
16:49:53.656250,23.88
16:49:53.671875,20.28
16:49:53.687500,20.54
16:49:53.703125,24.65
16:49:53.718750,32.04
16:49:53.734375,41.54
16:49:53.750000,51.60
16:49:53.765625,60.84
16:49:53.781250,68.51
16:49:53.796875,74.68
16:49:53.812500,79.93
16:49:53.828125,84.80
16:49:53.843750,89.38
16:49:53.859375,93.27
16:49:53.875000,95.91
16:49:53.890625,97.05
16:49:53.906250,96.94
16:49:53.921875,96.25
16:49:53.937500,95.70
16:49:53.953125,95.76
16:49:53.968750,96.60
16:49:53.984375,98.57
16:49:54,102.42
16:49:54.015625,109.12
16:49:54.031250,119.06
16:49:54.046875,131.00
16:49:54.062500,141.29
16:49:54.078125,144.53
16:49:54.093750,135.44
16:49:54.109375,111.22
16:49:54.125000,73.24
16:49:54.140625,26.91
16:49:54.156250,-20.13
16:49:54.171875,-60.73
16:49:54.187500,-90.25
16:49:54.203125,-107.56
16:49:54.218750,-114.38
16:49:54.234375,-114.06
16:49:54.250000,-110.22
16:49:54.265625,-105.78
16:49:54.281250,-102.55
16:49:54.296875,-101.06
16:49:54.312500,-100.69
16:49:54.328125,-99.98
16:49:54.343750,-97.26
16:49:54.359375,-91.43
16:49:54.375000,-82.67
16:49:54.390625,-72.70
16:49:54.406250,-64.42
16:49:54.421875,-60.80
16:49:54.437500,-63.62
16:49:54.453125,-72.67
16:49:54.468750,-85.76
16:49:54.484375,-99.57
16:49:54.500000,-110.98
16:49:54.515625,-118.17
16:49:54.531250,-121.12
16:49:54.546875,-121.19
16:49:54.562500,-119.92
16:49:54.578125,-117.86
16:49:54.593750,-114.02
16:49:54.609375,-106.49
16:49:54.625000,-93.67
16:49:54.640625,-75.64
16:49:54.656250,-54.68
16:49:54.671875,-34.73
16:49:54.687500,-19.67
16:49:54.703125,-11.56
16:49:54.718750,-9.47
16:49:54.734375,-9.84
16:49:54.750000,-8.16
16:49:54.765625,-1.34
16:49:54.781250,10.56
16:49:54.796875,24.21
16:49:54.812500,34.66
16:49:54.828125,37.94
16:49:54.843750,33.21
16:49:54.859375,23.31
16:49:54.875000,13.43
16:49:54.890625,8.73
16:49:54.906250,12.00
16:49:54.921875,22.72
16:49:54.937500,37.70
16:49:54.953125,52.84
16:49:54.968750,64.86
16:49:54.984375,72.14
16:49:55,74.51
16:49:55.015625,72.41
16:49:55.031250,66.22
16:49:55.046875,56.16
16:49:55.062500,42.85
16:49:55.078125,27.84
16:49:55.093750,13.67
16:49:55.109375,3.18
16:49:55.125000,-1.65
16:49:55.140625,-0.72
16:49:55.156250,4.18
16:49:55.171875,10.20
16:49:55.187500,14.95
16:49:55.203125,17.55
16:49:55.218750,18.84
16:49:55.234375,20.33
16:49:55.250000,22.80
16:49:55.265625,25.34
16:49:55.281250,25.65
16:49:55.296875,21.49
16:49:55.312500,12.43
16:49:55.328125,0.84
16:49:55.343750,-8.77
16:49:55.359375,-11.78
16:49:55.375000,-6.01
16:49:55.390625,6.91
16:49:55.406250,21.94
16:49:55.421875,32.67
16:49:55.437500,34.16
16:49:55.453125,25.08
16:49:55.468750,8.08
16:49:55.484375,-11.47
16:49:55.500000,-27.77
16:49:55.515625,-36.65
16:49:55.531250,-36.64
16:49:55.546875,-28.86
16:49:55.562500,-16.21
16:49:55.578125,-2.34
16:49:55.593750,9.07
16:49:55.609375,14.92
16:49:55.625000,13.40
16:49:55.640625,4.54
16:49:55.656250,-9.19
16:49:55.671875,-23.27
16:49:55.687500,-32.29
16:49:55.703125,-31.91
16:49:55.718750,-20.56
16:49:55.734375,-0.08
16:49:55.750000,24.98
16:49:55.765625,49.21
16:49:55.781250,68.25
16:49:55.796875,80.06
16:49:55.812500,84.97
16:49:55.828125,84.89
16:49:55.843750,82.42
16:49:55.859375,80.35
16:49:55.875000,81.37
16:49:55.890625,87.91
16:49:55.906250,101.58
16:49:55.921875,122.17
16:49:55.937500,146.89
16:49:55.953125,170.69
16:49:55.968750,187.44
16:49:55.984375,192.02
16:49:56,182.20
16:49:56.015625,159.20
16:49:56.031250,126.71
16:49:56.046875,89.16
16:49:56.062500,49.92
16:49:56.078125,10.50
16:49:56.093750,-29.06
16:49:56.109375,-69.46
16:49:56.125000,-111.32
16:49:56.140625,-155.18
16:49:56.156250,-201.77
16:49:56.171875,-251.99
16:49:56.187500,-305.83
16:49:56.203125,-360.93
16:49:56.218750,-411.80
16:49:56.234375,-450.58
16:49:56.250000,-470.20
16:49:56.265625,-466.93
16:49:56.281250,-441.74
16:49:56.296875,-399.93
16:49:56.312500,-349.03
16:49:56.328125,-296.06
16:49:56.343750,-245.18
16:49:56.359375,-197.30
16:49:56.375000,-150.60
16:49:56.390625,-103.40
16:49:56.406250,-54.75
16:49:56.421875,-3.96
16:49:56.437500,49.76
16:49:56.453125,107.69
16:49:56.468750,171.10
16:49:56.484375,240.23
16:49:56.500000,312.82
16:49:56.515625,384.03
16:49:56.531250,444.73
16:49:56.546875,484.83
16:49:56.562500,497.44
16:49:56.578125,481.13
16:49:56.593750,440.25
16:49:56.609375,382.78
16:49:56.625000,317.41
16:49:56.640625,251.04
16:49:56.656250,188.53
16:49:56.671875,130.67
16:49:56.687500,76.95
16:49:56.703125,27.76
16:49:56.718750,-11.37
16:49:56.734375,-32.68
16:49:56.750000,-32.67
16:49:56.765625,-15.98
16:49:56.781250,0.27
16:49:56.796875,9.04
16:49:56.812500,8.13
16:49:56.828125,-2.41
16:49:56.843750,-17.46
16:49:56.859375,-34.31
16:49:56.875000,-52.27
16:49:56.890625,-72.12
16:49:56.906250,-94.61
16:49:56.921875,-119.15
16:49:56.937500,-143.06
16:49:56.953125,-165.10
16:49:56.968750,-184.88
16:49:56.984375,-201.68
16:49:57,-214.16
16:49:57.015625,-219.91
16:49:57.031250,-216.82
16:49:57.046875,-204.96
16:49:57.062500,-187.81
16:49:57.078125,-171.37
16:49:57.093750,-163.91
16:49:57.109375,-172.01
16:49:57.125000,-197.30
16:49:57.140625,-236.33
16:49:57.156250,-281.89
16:49:57.171875,-325.68
16:49:57.187500,-360.19
16:49:57.203125,-379.58
16:49:57.218750,-379.63
16:49:57.234375,-359.33
16:49:57.250000,-320.97
16:49:57.265625,-269.50
16:49:57.281250,-211.47
16:49:57.296875,-152.93
16:49:57.312500,-97.75
16:49:57.328125,-47.20
16:49:57.343750,-0.79
16:49:57.359375,42.38
16:49:57.375000,82.02
16:49:57.390625,116.84
16:49:57.406250,145.51
16:49:57.421875,167.26
16:49:57.437500,181.84
16:49:57.453125,188.81
16:49:57.468750,187.34
16:49:57.484375,176.94
16:49:57.500000,158.52
16:49:57.515625,135.07
16:49:57.531250,111.31
16:49:57.546875,92.19
16:49:57.562500,80.77
16:49:57.578125,77.05
16:49:57.593750,78.48
16:49:57.609375,81.86
16:49:57.625000,85.56
16:49:57.640625,90.54
16:49:57.656250,99.75
16:49:57.671875,116.24
16:49:57.687500,141.15
16:49:57.703125,172.85
16:49:57.718750,207.18
16:49:57.734375,238.71
16:49:57.750000,262.17
16:49:57.765625,273.71
16:49:57.781250,271.79
16:49:57.796875,257.74
16:49:57.812500,235.52
16:49:57.828125,210.91
16:49:57.843750,189.76
16:49:57.859375,175.90
16:49:57.875000,169.56
16:49:57.890625,167.02
16:49:57.906250,161.84
16:49:57.921875,147.29
16:49:57.937500,119.08
16:49:57.953125,77.26
16:49:57.968750,26.60
16:49:57.984375,-24.80
16:49:58,-68.18
16:49:58.015625,-97.00
16:49:58.031250,-109.00
16:49:58.046875,-106.71
16:49:58.062500,-96.49
16:49:58.078125,-86.20
16:49:58.093750,-82.40
16:49:58.109375,-88.12
16:49:58.125000,-102.18
16:49:58.140625,-119.86
16:49:58.156250,-135.05
16:49:58.171875,-142.41
16:49:58.187500,-138.81
16:49:58.203125,-124.17
16:49:58.218750,-101.26
16:49:58.234375,-74.99
16:49:58.250000,-51.52
16:49:58.265625,-36.65
16:49:58.281250,-33.91
16:49:58.296875,-42.78
16:49:58.312500,-58.32
16:49:58.328125,-72.96
16:49:58.343750,-80.21
16:49:58.359375,-78.53
16:49:58.375000,-72.89
16:49:58.390625,-72.62
16:49:58.406250,-85.89
16:49:58.421875,-114.31
16:49:58.437500,-151.07
16:49:58.453125,-184.16
16:49:58.468750,-202.86
16:49:58.484375,-203.54
16:49:58.500000,-191.01
16:49:58.515625,-174.67
16:49:58.531250,-162.28
16:49:58.546875,-155.25
16:49:58.562500,-148.36
16:49:58.578125,-133.75
16:49:58.593750,-106.19
16:49:58.609375,-66.15
16:49:58.625000,-19.44
16:49:58.640625,26.57
16:49:58.656250,66.55
16:49:58.671875,99.02
16:49:58.687500,125.68
16:49:58.703125,148.91
16:49:58.718750,169.64
16:49:58.734375,186.79
16:49:58.750000,198.08
16:49:58.765625,201.64
16:49:58.781250,197.50
16:49:58.796875,188.12
16:49:58.812500,177.83
16:49:58.828125,171.20
16:49:58.843750,170.99
16:49:58.859375,176.67
16:49:58.875000,184.02
16:49:58.890625,186.27
16:49:58.906250,176.40
16:49:58.921875,149.92
16:49:58.937500,106.74
16:49:58.953125,51.44
16:49:58.968750,-8.13
16:49:58.984375,-63.18
16:49:59,-106.20
16:49:59.015625,-132.50
16:49:59.031250,-140.55
16:49:59.046875,-131.65
16:49:59.062500,-109.14
16:49:59.078125,-77.39
16:49:59.093750,-40.66
16:49:59.109375,-1.94
16:49:59.125000,37.61
16:49:59.140625,78.27
16:49:59.156250,120.39
16:49:59.171875,162.72
16:49:59.187500,201.39
16:49:59.203125,230.46
16:49:59.218750,244.21
16:49:59.234375,239.86
16:49:59.250000,219.26
16:49:59.265625,188.86
16:49:59.281250,157.34
16:49:59.296875,132.18
16:49:59.312500,117.16
16:49:59.328125,112.17
16:49:59.343750,114.99
16:49:59.359375,123.91
16:49:59.375000,139.01
16:49:59.390625,160.90
16:49:59.406250,189.09
16:49:59.421875,220.48
16:49:59.437500,249.10
16:49:59.453125,267.69
16:49:59.468750,270.44
16:49:59.484375,255.02
16:49:59.500000,223.87
16:49:59.515625,183.10
16:49:59.531250,139.54
16:49:59.546875,99.60
16:49:59.562500,68.17
16:49:59.578125,47.71
16:49:59.593750,37.79
16:49:59.609375,35.12
16:49:59.625000,34.33
16:49:59.640625,29.95
16:49:59.656250,17.70
16:49:59.671875,-6.03
16:49:59.687500,-42.85
16:49:59.703125,-91.56
16:49:59.718750,-148.18
16:49:59.734375,-205.78
16:49:59.750000,-255.60
16:49:59.765625,-289.20
16:49:59.781250,-303.37
16:49:59.796875,-295.32
16:49:59.812500,-270.30
16:49:59.828125,-240.47
16:49:59.843750,-217.17
16:49:59.859375,-204.85
16:49:59.875000,-200.43
16:49:59.890625,-194.87
16:49:59.906250,-184.01
16:49:59.921875,-166.47
16:49:59.937500,-142.51
16:49:59.953125,-113.90
16:49:59.968750,-81.64
16:49:59.984375,-44.81
16:50:00,-5.09
16:50:00.015625,36.26
16:50:00.031250,77.37
16:50:00.046875,115.95
16:50:00.062500,150.20
16:50:00.078125,178.80
16:50:00.093750,199.06
16:50:00.109375,207.59
16:50:00.125000,201.30
16:50:00.140625,178.66
16:50:00.156250,141.58
16:50:00.171875,95.53
16:50:00.187500,48.26
16:50:00.203125,8.08
16:50:00.218750,-19.29
16:50:00.234375,-33.46
16:50:00.250000,-38.71
16:50:00.265625,-41.99
16:50:00.281250,-50.29
16:50:00.296875,-68.33
16:50:00.312500,-97.82
16:50:00.328125,-137.40
16:50:00.343750,-182.39
16:50:00.359375,-225.81
16:50:00.375000,-260.01
16:50:00.390625,-278.08
16:50:00.406250,-275.80
16:50:00.421875,-253.24
16:50:00.437500,-214.84
16:50:00.453125,-168.08
16:50:00.468750,-120.93
16:50:00.484375,-79.05
16:50:00.500000,-44.88
16:50:00.515625,-18.62
16:50:00.531250,0.11
16:50:00.546875,11.00
16:50:00.562500,12.93
16:50:00.578125,5.64
16:50:00.593750,-9.06
16:50:00.609375,-26.89
16:50:00.625000,-42.34
16:50:00.640625,-50.95
16:50:00.656250,-51.12
16:50:00.671875,-44.55
16:50:00.687500,-35.22
16:50:00.703125,-27.46
16:50:00.718750,-24.01
16:50:00.734375,-25.09
16:50:00.750000,-28.45
16:50:00.765625,-30.65
16:50:00.781250,-28.51
16:50:00.796875,-20.49
16:50:00.812500,-7.45
16:50:00.828125,7.61
16:50:00.843750,20.74
16:50:00.859375,28.61
16:50:00.875000,29.83
16:50:00.890625,25.53
16:50:00.906250,18.92
16:50:00.921875,14.08
16:50:00.937500,14.42
16:50:00.953125,21.42
16:50:00.968750,34.08
16:50:00.984375,49.33
16:50:01,63.22
16:50:01.015625,72.51
16:50:01.031250,75.87
16:50:01.046875,74.24
16:50:01.062500,70.21
16:50:01.078125,66.62
16:50:01.093750,65.23
16:50:01.109375,66.02
16:50:01.125000,67.51
16:50:01.140625,67.80
16:50:01.156250,65.67
16:50:01.171875,61.02
16:50:01.187500,54.71
16:50:01.203125,47.86
16:50:01.218750,41.24
16:50:01.234375,35.10
16:50:01.250000,29.37
16:50:01.265625,23.97
16:50:01.281250,19.00
16:50:01.296875,14.84
16:50:01.312500,11.98
16:50:01.328125,10.75
16:50:01.343750,11.05
16:50:01.359375,12.20
16:50:01.375000,13.09
16:50:01.390625,12.50
16:50:01.406250,9.72
16:50:01.421875,4.88
16:50:01.437500,-1.03
16:50:01.453125,-6.56
16:50:01.468750,-10.43
16:50:01.484375,-12.07
16:50:01.500000,-11.85
16:50:01.515625,-10.82
16:50:01.531250,-10.16
16:50:01.546875,-10.63
16:50:01.562500,-12.38
16:50:01.578125,-14.96
16:50:01.593750,-17.71
16:50:01.609375,-20.07
16:50:01.625000,-21.79
16:50:01.640625,-22.94
16:50:01.656250,-23.73
16:50:01.671875,-24.41
16:50:01.687500,-25.14
16:50:01.703125,-25.96
16:50:01.718750,-26.80
16:50:01.734375,-27.50
16:50:01.750000,-27.81
16:50:01.765625,-27.45
16:50:01.781250,-26.24
16:50:01.796875,-24.17
16:50:01.812500,-21.43
16:50:01.828125,-18.41
16:50:01.843750,-15.53
16:50:01.859375,-13.12
16:50:01.875000,-11.30
16:50:01.890625,-10.02
16:50:01.906250,-9.10
16:50:01.921875,-8.42
16:50:01.937500,-7.88
16:50:01.953125,-7.48
16:50:01.968750,-7.23
16:50:01.984375,-7.06
16:50:02,-6.87
16:50:02.015625,-6.51
16:50:02.031250,-5.91
16:50:02.046875,-5.10
16:50:02.062500,-4.18
16:50:02.078125,-3.29
16:50:02.093750,-2.52
16:50:02.109375,-1.91
16:50:02.125000,-1.40
16:50:02.140625,-0.94
16:50:02.156250,-0.50
16:50:02.171875,-0.10
16:50:02.187500,0.18
16:50:02.203125,0.26
16:50:02.218750,0.10
16:50:02.234375,-0.27
16:50:02.250000,-0.77
16:50:02.265625,-1.34
16:50:02.281250,-1.91
16:50:02.296875,-2.47
16:50:02.312500,-3.04
16:50:02.328125,-3.65
16:50:02.343750,-4.29
16:50:02.359375,-4.95
16:50:02.375000,-5.60
16:50:02.390625,-6.19
16:50:02.406250,-6.69
16:50:02.421875,-7.08
16:50:02.437500,-7.36
16:50:02.453125,-7.51
16:50:02.468750,-7.54
16:50:02.484375,-7.49
16:50:02.500000,-7.43
16:50:02.515625,-7.51
16:50:02.531250,-7.89
16:50:02.546875,-8.66
16:50:02.562500,-9.85
16:50:02.578125,-11.32
16:50:02.593750,-12.89
16:50:02.609375,-14.31
16:50:02.625000,-15.37
16:50:02.640625,-15.95
16:50:02.656250,-15.99
16:50:02.671875,-15.48
16:50:02.687500,-14.48
16:50:02.703125,-13.04
16:50:02.718750,-11.27
16:50:02.734375,-9.32
16:50:02.750000,-7.34
16:50:02.765625,-5.44
16:50:02.781250,-3.70
16:50:02.796875,-2.15
16:50:02.812500,-0.80
16:50:02.828125,0.34
16:50:02.843750,1.20
16:50:02.859375,1.75
16:50:02.875000,1.98
16:50:02.890625,1.94
16:50:02.906250,1.75
16:50:02.921875,1.52
16:50:02.937500,1.38
16:50:02.953125,1.37
16:50:02.968750,1.52
16:50:02.984375,1.85
16:50:03,2.34
16:50:03.015625,2.99
16:50:03.031250,3.68
16:50:03.046875,4.24
16:50:03.062500,4.48
16:50:03.078125,4.31
16:50:03.093750,3.79
16:50:03.109375,3.14
16:50:03.125000,2.63
16:50:03.140625,2.39
16:50:03.156250,2.43
16:50:03.171875,2.53
16:50:03.187500,2.47
16:50:03.203125,2.12
16:50:03.218750,1.51
16:50:03.234375,0.83
16:50:03.250000,0.26
16:50:03.265625,-0.11
16:50:03.281250,-0.39
16:50:03.296875,-0.76
16:50:03.312500,-1.39
16:50:03.328125,-2.32
16:50:03.343750,-3.41
16:50:03.359375,-4.44
16:50:03.375000,-5.15
16:50:03.390625,-5.47
16:50:03.406250,-5.51
16:50:03.421875,-5.56
16:50:03.437500,-5.96
16:50:03.453125,-6.95
16:50:03.468750,-8.52
16:50:03.484375,-10.43
16:50:03.500000,-12.24
16:50:03.515625,-13.53
16:50:03.531250,-14.01
16:50:03.546875,-13.64
16:50:03.562500,-12.60
16:50:03.578125,-11.18
16:50:03.593750,-9.68
16:50:03.609375,-8.36
16:50:03.625000,-7.28
16:50:03.640625,-6.44
16:50:03.656250,-5.64
16:50:03.671875,-4.60
16:50:03.687500,-2.97
16:50:03.703125,-0.45
16:50:03.718750,3.10
16:50:03.734375,7.44
16:50:03.750000,11.94
16:50:03.765625,15.64
16:50:03.781250,17.57
16:50:03.796875,17.18
16:50:03.812500,14.63
16:50:03.828125,10.87
16:50:03.843750,7.33
16:50:03.859375,5.28
16:50:03.875000,5.34
16:50:03.890625,7.18
16:50:03.906250,9.66
16:50:03.921875,11.39
16:50:03.937500,11.32
16:50:03.953125,9.14
16:50:03.968750,5.27
16:50:03.984375,0.61
16:50:04,-3.97
16:50:04.015625,-7.79
16:50:04.031250,-10.49
16:50:04.046875,-11.99
16:50:04.062500,-12.29
16:50:04.078125,-11.58
16:50:04.093750,-10.17
16:50:04.109375,-8.53
16:50:04.125000,-7.21
16:50:04.140625,-6.61
16:50:04.156250,-6.89
16:50:04.171875,-7.88
16:50:04.187500,-9.16
16:50:04.203125,-10.27
16:50:04.218750,-10.89
16:50:04.234375,-10.95
16:50:04.250000,-10.60
16:50:04.265625,-10.14
16:50:04.281250,-9.85
16:50:04.296875,-9.89
16:50:04.312500,-10.26
16:50:04.328125,-10.80
16:50:04.343750,-11.24
16:50:04.359375,-11.26
16:50:04.375000,-10.63
16:50:04.390625,-9.22
16:50:04.406250,-7.07
16:50:04.421875,-4.42
16:50:04.437500,-1.65
16:50:04.453125,0.81
16:50:04.468750,2.60
16:50:04.484375,3.60
16:50:04.500000,3.91
16:50:04.515625,3.84
16:50:04.531250,3.74
16:50:04.546875,3.84
16:50:04.562500,4.15
16:50:04.578125,4.51
16:50:04.593750,4.72
16:50:04.609375,4.71
16:50:04.625000,4.54
16:50:04.640625,4.45
16:50:04.656250,4.60
16:50:04.671875,5.07
16:50:04.687500,5.76
16:50:04.703125,6.53
16:50:04.718750,7.24
16:50:04.734375,7.84
16:50:04.750000,8.38
16:50:04.765625,8.87
16:50:04.781250,9.27
16:50:04.796875,9.43
16:50:04.812500,9.21
16:50:04.828125,8.47
16:50:04.843750,7.24
16:50:04.859375,5.64
16:50:04.875000,3.92
16:50:04.890625,2.31
16:50:04.906250,1.00
16:50:04.921875,0.10
16:50:04.937500,-0.38
16:50:04.953125,-0.48
16:50:04.968750,-0.24
16:50:04.984375,0.22
16:50:05,0.80
16:50:05.015625,1.29
16:50:05.031250,1.49
16:50:05.046875,1.19
16:50:05.062500,0.25
16:50:05.078125,-1.34
16:50:05.093750,-3.48
16:50:05.109375,-6.00
16:50:05.125000,-8.70
16:50:05.140625,-11.37
16:50:05.156250,-13.73
16:50:05.171875,-15.48
16:50:05.187500,-16.29
16:50:05.203125,-15.92
16:50:05.218750,-14.32
16:50:05.234375,-11.69
16:50:05.250000,-8.41
16:50:05.265625,-4.91
16:50:05.281250,-1.56
16:50:05.296875,1.47
16:50:05.312500,4.08
16:50:05.328125,6.24
16:50:05.343750,7.86
16:50:05.359375,8.82
16:50:05.375000,9.04
16:50:05.390625,8.56
16:50:05.406250,7.59
16:50:05.421875,6.45
16:50:05.437500,5.43
16:50:05.453125,4.77
16:50:05.468750,4.56
16:50:05.484375,4.80
16:50:05.500000,5.42
16:50:05.515625,6.29
16:50:05.531250,7.27
16:50:05.546875,8.15
16:50:05.562500,8.73
16:50:05.578125,8.85
16:50:05.593750,8.48
16:50:05.609375,7.76
16:50:05.625000,6.90
16:50:05.640625,6.12
16:50:05.656250,5.49
16:50:05.671875,4.95
16:50:05.687500,4.31
16:50:05.703125,3.46
16:50:05.718750,2.40
16:50:05.734375,1.33
16:50:05.750000,0.46
16:50:05.765625,-0.02
16:50:05.781250,-0.12
16:50:05.796875,0.01
16:50:05.812500,0.16
16:50:05.828125,0.15
16:50:05.843750,-0.02
16:50:05.859375,-0.32
16:50:05.875000,-0.69
16:50:05.890625,-1.17
16:50:05.906250,-1.90
16:50:05.921875,-3.06
16:50:05.937500,-4.73
16:50:05.953125,-6.85
16:50:05.968750,-9.15
16:50:05.984375,-11.27
16:50:06,-12.84
16:50:06.015625,-13.60
16:50:06.031250,-13.42
16:50:06.046875,-12.35
16:50:06.062500,-10.53
16:50:06.078125,-8.17
16:50:06.093750,-5.49
16:50:06.109375,-2.71
16:50:06.125000,0.00
16:50:06.140625,2.48
16:50:06.156250,4.60
16:50:06.171875,6.29
16:50:06.187500,7.54
16:50:06.203125,8.36
16:50:06.218750,8.81
16:50:06.234375,8.94
16:50:06.250000,8.80
16:50:06.265625,8.43
16:50:06.281250,7.87
16:50:06.296875,7.25
16:50:06.312500,6.71
16:50:06.328125,6.40
16:50:06.343750,6.41
16:50:06.359375,6.72
16:50:06.375000,7.22
16:50:06.390625,7.76
16:50:06.406250,8.20
16:50:06.421875,8.49
16:50:06.437500,8.59
16:50:06.453125,8.46
16:50:06.468750,8.03
16:50:06.484375,7.27
16:50:06.500000,6.20
16:50:06.515625,4.99
16:50:06.531250,3.88
16:50:06.546875,3.11
16:50:06.562500,2.73
16:50:06.578125,2.66
16:50:06.593750,2.64
16:50:06.609375,2.40
16:50:06.625000,1.83
16:50:06.640625,0.95
16:50:06.656250,-0.11
16:50:06.671875,-1.22
16:50:06.687500,-2.34
16:50:06.703125,-3.49
16:50:06.718750,-4.70
16:50:06.734375,-5.99
16:50:06.750000,-7.29
16:50:06.765625,-8.54
16:50:06.781250,-9.66
16:50:06.796875,-10.62
16:50:06.812500,-11.39
16:50:06.828125,-11.93
16:50:06.843750,-12.14
16:50:06.859375,-11.88
16:50:06.875000,-11.07
16:50:06.890625,-9.67
16:50:06.906250,-7.76
16:50:06.921875,-5.52
16:50:06.937500,-3.14
16:50:06.953125,-0.79
16:50:06.968750,1.45
16:50:06.984375,3.57
16:50:07,5.53
16:50:07.015625,7.22
16:50:07.031250,8.48
16:50:07.046875,9.14
16:50:07.062500,9.15
16:50:07.078125,8.66
16:50:07.093750,7.96
16:50:07.109375,7.44
16:50:07.125000,7.34
16:50:07.140625,7.72
16:50:07.156250,8.41
16:50:07.171875,9.16
16:50:07.187500,9.79
16:50:07.203125,10.26
16:50:07.218750,10.69
16:50:07.234375,11.15
16:50:07.250000,11.63
16:50:07.265625,11.99
16:50:07.281250,12.03
16:50:07.296875,11.64
16:50:07.312500,10.82
16:50:07.328125,9.73
16:50:07.343750,8.56
16:50:07.359375,7.44
16:50:07.375000,6.44
16:50:07.390625,5.53
16:50:07.406250,4.69
16:50:07.421875,3.90
16:50:07.437500,3.14
16:50:07.453125,2.35
16:50:07.468750,1.41
16:50:07.484375,0.18
16:50:07.500000,-1.45
16:50:07.515625,-3.46
16:50:07.531250,-5.66
16:50:07.546875,-7.74
16:50:07.562500,-9.36
16:50:07.578125,-10.23
16:50:07.593750,-10.25
16:50:07.609375,-9.53
16:50:07.625000,-8.39
16:50:07.640625,-7.23
16:50:07.656250,-6.41
16:50:07.671875,-6.12
16:50:07.687500,-6.28
16:50:07.703125,-6.58
16:50:07.718750,-6.59
16:50:07.734375,-5.96
16:50:07.750000,-4.52
16:50:07.765625,-2.38
16:50:07.781250,0.19
16:50:07.796875,2.86
16:50:07.812500,5.32
16:50:07.828125,7.30
16:50:07.843750,8.62
16:50:07.859375,9.14
16:50:07.875000,8.86
16:50:07.890625,7.93
16:50:07.906250,6.74
16:50:07.921875,5.78
16:50:07.937500,5.57
16:50:07.953125,6.49
16:50:07.968750,8.60
16:50:07.984375,11.61
16:50:08,14.92
16:50:08.015625,17.77
16:50:08.031250,19.49
16:50:08.046875,19.69
16:50:08.062500,18.42
16:50:08.078125,16.12
16:50:08.093750,13.44
16:50:08.109375,10.97
16:50:08.125000,9.00
16:50:08.140625,7.49
16:50:08.156250,6.20
16:50:08.171875,4.92
16:50:08.187500,3.60
16:50:08.203125,2.37
16:50:08.218750,1.34
16:50:08.234375,0.52
16:50:08.250000,-0.30
16:50:08.265625,-1.38
16:50:08.281250,-2.86
16:50:08.296875,-4.72
16:50:08.312500,-6.76
16:50:08.328125,-8.72
16:50:08.343750,-10.44
16:50:08.359375,-11.91
16:50:08.375000,-13.27
16:50:08.390625,-14.69
16:50:08.406250,-16.24
16:50:08.421875,-17.83
16:50:08.437500,-19.21
16:50:08.453125,-20.03
16:50:08.468750,-19.98
16:50:08.484375,-18.91
16:50:08.500000,-16.88
16:50:08.515625,-14.18
16:50:08.531250,-11.18
16:50:08.546875,-8.24
16:50:08.562500,-5.56
16:50:08.578125,-3.20
16:50:08.593750,-1.10
16:50:08.609375,0.80
16:50:08.625000,2.50
16:50:08.640625,3.93
16:50:08.656250,4.96
16:50:08.671875,5.50
16:50:08.687500,5.58
16:50:08.703125,5.30
16:50:08.718750,4.88
16:50:08.734375,4.49
16:50:08.750000,4.29
16:50:08.765625,4.34
16:50:08.781250,4.63
16:50:08.796875,5.11
16:50:08.812500,5.67
16:50:08.828125,6.19
16:50:08.843750,6.55
16:50:08.859375,6.65
16:50:08.875000,6.46
16:50:08.890625,6.03
16:50:08.906250,5.47
16:50:08.921875,4.90
16:50:08.937500,4.40
16:50:08.953125,4.00
16:50:08.968750,3.63
16:50:08.984375,3.19
16:50:09,2.63
16:50:09.015625,1.89
16:50:09.031250,1.04
16:50:09.046875,0.13
16:50:09.062500,-0.78
16:50:09.078125,-1.64
16:50:09.093750,-2.45
16:50:09.109375,-3.25
16:50:09.125000,-4.08
16:50:09.140625,-5.01
16:50:09.156250,-6.06
16:50:09.171875,-7.23
16:50:09.187500,-8.46
16:50:09.203125,-9.67
16:50:09.218750,-10.77
16:50:09.234375,-11.62
16:50:09.250000,-12.11
16:50:09.265625,-12.10
16:50:09.281250,-11.52
16:50:09.296875,-10.31
16:50:09.312500,-8.53
16:50:09.328125,-6.30
16:50:09.343750,-3.83
16:50:09.359375,-1.34
16:50:09.375000,0.96
16:50:09.390625,2.91
16:50:09.406250,4.44
16:50:09.421875,5.53
16:50:09.437500,6.24
16:50:09.453125,6.69
16:50:09.468750,7.03
16:50:09.484375,7.39
16:50:09.500000,7.86
16:50:09.515625,8.39
16:50:09.531250,8.89
16:50:09.546875,9.26
16:50:09.562500,9.42
16:50:09.578125,9.42
16:50:09.593750,9.37
16:50:09.609375,9.43
16:50:09.625000,9.67
16:50:09.640625,10.05
16:50:09.656250,10.47
16:50:09.671875,10.79
16:50:09.687500,10.90
16:50:09.703125,10.77
16:50:09.718750,10.42
16:50:09.734375,9.91
16:50:09.750000,9.32
16:50:09.765625,8.71
16:50:09.781250,8.16
16:50:09.796875,7.69
16:50:09.812500,7.29
16:50:09.828125,6.92
16:50:09.843750,6.49
16:50:09.859375,5.87
16:50:09.875000,4.99
16:50:09.890625,3.83
16:50:09.906250,2.40
16:50:09.921875,0.84
16:50:09.937500,-0.73
16:50:09.953125,-2.19
16:50:09.968750,-3.52
16:50:09.984375,-4.77
16:50:10,-6.05
16:50:10.015625,-7.50
16:50:10.031250,-9.14
16:50:10.046875,-10.93
16:50:10.062500,-12.68
16:50:10.078125,-14.13
16:50:10.093750,-15.06
16:50:10.109375,-15.32
16:50:10.125000,-14.90
16:50:10.140625,-13.92
16:50:10.156250,-12.57
16:50:10.171875,-11.06
16:50:10.187500,-9.55
16:50:10.203125,-8.15
16:50:10.218750,-6.86
16:50:10.234375,-5.63
16:50:10.250000,-4.40
16:50:10.265625,-3.14
16:50:10.281250,-1.86
16:50:10.296875,-0.61
16:50:10.312500,0.54
16:50:10.328125,1.52
16:50:10.343750,2.28
16:50:10.359375,2.82
16:50:10.375000,3.17
16:50:10.390625,3.43
16:50:10.406250,3.70
16:50:10.421875,4.13
16:50:10.437500,4.79
16:50:10.453125,5.67
16:50:10.468750,6.67
16:50:10.484375,7.63
16:50:10.500000,8.38
16:50:10.515625,8.84
16:50:10.531250,9.00
16:50:10.546875,8.92
16:50:10.562500,8.68
16:50:10.578125,8.31
16:50:10.593750,7.81
16:50:10.609375,7.19
16:50:10.625000,6.43
16:50:10.640625,5.61
16:50:10.656250,4.84
16:50:10.671875,4.27
16:50:10.687500,4.01
16:50:10.703125,4.04
16:50:10.718750,4.25
16:50:10.734375,4.44
16:50:10.750000,4.41
16:50:10.765625,4.07
16:50:10.781250,3.49
16:50:10.796875,2.90
16:50:10.812500,2.50
16:50:10.828125,2.38
16:50:10.843750,2.41
16:50:10.859375,2.32
16:50:10.875000,1.82
16:50:10.890625,0.74
16:50:10.906250,-0.87
16:50:10.921875,-2.85
16:50:10.937500,-4.92
16:50:10.953125,-6.92
16:50:10.968750,-8.74
16:50:10.984375,-10.32
16:50:11,-11.65
16:50:11.015625,-12.70
16:50:11.031250,-13.45
16:50:11.046875,-13.91
16:50:11.062500,-14.12
16:50:11.078125,-14.06
16:50:11.093750,-13.68
16:50:11.109375,-12.85
16:50:11.125000,-11.45
16:50:11.140625,-9.42
16:50:11.156250,-6.86
16:50:11.171875,-4.00
16:50:11.187500,-1.14
16:50:11.203125,1.39
16:50:11.218750,3.36
16:50:11.234375,4.64
16:50:11.250000,5.29
16:50:11.265625,5.49
16:50:11.281250,5.54
16:50:11.296875,5.71
16:50:11.312500,6.13
16:50:11.328125,6.66
16:50:11.343750,6.92
16:50:11.359375,6.37
16:50:11.375000,4.69
16:50:11.390625,1.92
16:50:11.406250,-1.43
16:50:11.421875,-4.53
16:50:11.437500,-6.55
16:50:11.453125,-7.01
16:50:11.468750,-5.90
16:50:11.484375,-3.68
