12:50:06,-0.00
12:50:06.015625,-0.00
12:50:06.031250,-0.00
12:50:06.046875,-0.00
12:50:06.062500,-0.00
12:50:06.078125,-0.00
12:50:06.093750,-0.00
12:50:06.109375,-0.00
12:50:06.125000,-0.00
12:50:06.140625,-0.00
12:50:06.156250,0.00
12:50:06.171875,0.01
12:50:06.187500,0.01
12:50:06.203125,-0.00
12:50:06.218750,-0.03
12:50:06.234375,-0.05
12:50:06.250000,-0.05
12:50:06.265625,0.00
12:50:06.281250,0.13
12:50:06.296875,0.36
12:50:06.312500,0.66
12:50:06.328125,1.01
12:50:06.343750,1.37
12:50:06.359375,1.72
12:50:06.375000,2.06
12:50:06.390625,2.40
12:50:06.406250,2.79
12:50:06.421875,3.24
12:50:06.437500,3.80
12:50:06.453125,4.42
12:50:06.468750,5.06
12:50:06.484375,5.66
12:50:06.500000,6.20
12:50:06.515625,6.68
12:50:06.531250,7.15
12:50:06.546875,7.68
12:50:06.562500,8.31
12:50:06.578125,9.14
12:50:06.593750,10.09
12:50:06.609375,11.04
12:50:06.625000,11.89
12:50:06.640625,12.57
12:50:06.656250,13.14
12:50:06.671875,13.76
12:50:06.687500,14.65
12:50:06.703125,15.96
12:50:06.718750,17.91
12:50:06.734375,20.31
12:50:06.750000,22.92
12:50:06.765625,25.42
12:50:06.781250,27.64
12:50:06.796875,29.62
12:50:06.812500,31.67
12:50:06.828125,34.19
12:50:06.843750,37.52
12:50:06.859375,42.05
12:50:06.875000,47.48
12:50:06.890625,53.31
12:50:06.906250,58.96
12:50:06.921875,64.08
12:50:06.937500,68.67
12:50:06.953125,73.19
12:50:06.968750,78.29
12:50:06.984375,84.51
12:50:07,92.40
12:50:07.015625,101.49
12:50:07.031250,111.04
12:50:07.046875,120.15
12:50:07.062500,128.23
12:50:07.078125,135.22
12:50:07.093750,141.68
12:50:07.109375,148.87
12:50:07.125000,155.53
12:50:07.140625,163.97
12:50:07.156250,174.92
12:50:07.171875,188.57
12:50:07.187500,203.74
12:50:07.203125,217.41
12:50:07.218750,225.07
12:50:07.234375,221.88
12:50:07.250000,204.34
12:50:07.265625,171.62
12:50:07.281250,126.31
12:50:07.296875,72.55
12:50:07.312500,14.92
12:50:07.328125,-43.29
12:50:07.343750,-100.72
12:50:07.359375,-157.49
12:50:07.375000,-214.16
12:50:07.390625,-270.69
12:50:07.406250,-326.15
12:50:07.421875,-378.68
12:50:07.437500,-426.77
12:50:07.453125,-469.23
12:50:07.468750,-505.34
12:50:07.484375,-534.52
12:50:07.500000,-556.03
12:50:07.515625,-568.81
12:50:07.531250,-571.54
12:50:07.546875,-563.03
12:50:07.562500,-542.48
12:50:07.578125,-510.27
12:50:07.593750,-467.82
12:50:07.609375,-417.48
12:50:07.625000,-362.13
12:50:07.640625,-304.64
12:50:07.656250,-247.51
12:50:07.671875,-192.79
12:50:07.687500,-142.20
12:50:07.703125,-96.92
12:50:07.718750,-57.49
12:50:07.734375,-23.13
12:50:07.750000,8.39
12:50:07.765625,40.22
12:50:07.781250,75.18
12:50:07.796875,114.39
12:50:07.812500,156.47
12:50:07.828125,197.78
12:50:07.843750,233.91
12:50:07.859375,261.29
12:50:07.875000,278.39
12:50:07.890625,285.82
12:50:07.906250,285.49
12:50:07.921875,279.50
12:50:07.937500,269.45
12:50:07.953125,256.37
12:50:07.968750,241.15
12:50:07.984375,224.85
12:50:08,208.64
12:50:08.015625,193.48
12:50:08.031250,179.75
12:50:08.046875,167.17
12:50:08.062500,155.03
12:50:08.078125,142.62
12:50:08.093750,129.66
12:50:08.109375,116.38
12:50:08.125000,103.40
12:50:08.140625,91.41
12:50:08.156250,80.86
12:50:08.171875,71.86
12:50:08.187500,64.12
12:50:08.203125,57.17
12:50:08.218750,50.50
12:50:08.234375,43.79
12:50:08.250000,36.92
12:50:08.265625,30.20
12:50:08.281250,23.96
12:50:08.296875,18.57
12:50:08.312500,14.33
12:50:08.328125,11.29
12:50:08.343750,9.21
12:50:08.359375,7.61
12:50:08.375000,6.00
12:50:08.390625,4.04
12:50:08.406250,1.71
12:50:08.421875,-0.75
12:50:08.437500,-2.96
12:50:08.453125,-4.56
12:50:08.468750,-5.50
12:50:08.484375,-5.94
12:50:08.500000,-6.21
12:50:08.515625,-6.58
12:50:08.531250,-7.14
12:50:08.546875,-7.77
12:50:08.562500,-8.31
12:50:08.578125,-8.61
12:50:08.593750,-8.69
12:50:08.609375,-8.67
12:50:08.625000,-8.68
12:50:08.640625,-8.73
12:50:08.656250,-8.68
12:50:08.671875,-8.35
12:50:08.687500,-7.65
12:50:08.703125,-6.66
12:50:08.718750,-5.63
12:50:08.734375,-4.84
12:50:08.750000,-4.39
12:50:08.765625,-4.20
12:50:08.781250,-4.02
12:50:08.796875,-3.66
12:50:08.812500,-3.09
12:50:08.828125,-2.49
12:50:08.843750,-2.15
12:50:08.859375,-2.23
12:50:08.875000,-2.75
12:50:08.890625,-3.51
12:50:08.906250,-4.23
12:50:08.921875,-4.70
12:50:08.937500,-4.87
12:50:08.953125,-4.83
12:50:08.968750,-4.66
12:50:08.984375,-4.43
12:50:09,-4.08
12:50:09.015625,-3.53
12:50:09.031250,-2.72
12:50:09.046875,-1.75
12:50:09.062500,-0.81
12:50:09.078125,-0.13
12:50:09.093750,0.15
12:50:09.109375,0.02
12:50:09.125000,-0.33
12:50:09.140625,-0.68
12:50:09.156250,-0.81
12:50:09.171875,-0.67
12:50:09.187500,-0.33
12:50:09.203125,0.03
12:50:09.218750,0.25
12:50:09.234375,0.23
12:50:09.250000,-0.01
12:50:09.265625,-0.34
12:50:09.281250,-0.62
12:50:09.296875,-0.73
12:50:09.312500,-0.61
12:50:09.328125,-0.31
12:50:09.343750,0.08
12:50:09.359375,0.44
12:50:09.375000,0.68
12:50:09.390625,0.80
12:50:09.406250,0.85
12:50:09.421875,0.85
12:50:09.437500,0.81
12:50:09.453125,0.71
12:50:09.468750,0.56
12:50:09.484375,0.46
12:50:09.500000,0.55
12:50:09.515625,0.96
12:50:09.531250,1.70
12:50:09.546875,2.61
12:50:09.562500,3.41
12:50:09.578125,3.91
12:50:09.593750,4.06
12:50:09.609375,3.97
12:50:09.625000,3.83
12:50:09.640625,3.73
12:50:09.656250,3.60
12:50:09.671875,3.27
12:50:09.687500,2.61
12:50:09.703125,1.66
12:50:09.718750,0.55
12:50:09.734375,-0.50
12:50:09.750000,-1.31
12:50:09.765625,-1.85
12:50:09.781250,-2.24
12:50:09.796875,-2.62
12:50:09.812500,-3.08
12:50:09.828125,-3.61
12:50:09.843750,-4.08
12:50:09.859375,-4.41
12:50:09.875000,-4.55
12:50:09.890625,-4.54
12:50:09.906250,-4.47
12:50:09.921875,-4.44
12:50:09.937500,-4.46
12:50:09.953125,-4.46
12:50:09.968750,-4.33
12:50:09.984375,-3.99
12:50:10,-3.47
12:50:10.015625,-2.87
12:50:10.031250,-2.40
12:50:10.046875,-2.18
12:50:10.062500,-2.25
12:50:10.078125,-2.54
12:50:10.093750,-2.89
12:50:10.109375,-3.16
12:50:10.125000,-3.27
12:50:10.140625,-3.28
12:50:10.156250,-3.22
12:50:10.171875,-3.19
12:50:10.187500,-3.20
12:50:10.203125,-3.22
12:50:10.218750,-3.19
12:50:10.234375,-3.09
12:50:10.250000,-2.90
12:50:10.265625,-2.62
12:50:10.281250,-2.30
12:50:10.296875,-1.97
12:50:10.312500,-1.68
12:50:10.328125,-1.46
12:50:10.343750,-1.37
12:50:10.359375,-1.44
12:50:10.375000,-1.66
12:50:10.390625,-1.95
12:50:10.406250,-2.20
12:50:10.421875,-2.27
12:50:10.437500,-2.04
12:50:10.453125,-1.54
12:50:10.468750,-0.84
12:50:10.484375,-0.11
12:50:10.500000,0.52
12:50:10.515625,1.01
12:50:10.531250,1.42
12:50:10.546875,1.85
12:50:10.562500,2.38
12:50:10.578125,2.96
12:50:10.593750,3.43
12:50:10.609375,3.68
12:50:10.625000,3.68
12:50:10.640625,3.53
12:50:10.656250,3.43
12:50:10.671875,3.53
12:50:10.687500,3.85
12:50:10.703125,4.25
12:50:10.718750,4.53
12:50:10.734375,4.52
12:50:10.750000,4.24
12:50:10.765625,3.78
12:50:10.781250,3.31
12:50:10.796875,2.91
12:50:10.812500,2.60
12:50:10.828125,2.31
12:50:10.843750,2.00
12:50:10.859375,1.66
12:50:10.875000,1.35
12:50:10.890625,1.08
12:50:10.906250,0.84
12:50:10.921875,0.55
12:50:10.937500,0.12
12:50:10.953125,-0.49
12:50:10.968750,-1.24
12:50:10.984375,-2.03
12:50:11,-2.71
12:50:11.015625,-3.17
12:50:11.031250,-3.42
12:50:11.046875,-3.53
12:50:11.062500,-3.68
12:50:11.078125,-4.03
12:50:11.093750,-4.70
12:50:11.109375,-5.62
12:50:11.125000,-6.63
12:50:11.140625,-7.43
12:50:11.156250,-7.76
12:50:11.171875,-7.43
12:50:11.187500,-6.44
12:50:11.203125,-4.93
12:50:11.218750,-3.13
12:50:11.234375,-1.31
12:50:11.250000,0.29
12:50:11.265625,1.54
12:50:11.281250,2.38
12:50:11.296875,2.85
12:50:11.312500,3.00
12:50:11.328125,2.94
12:50:11.343750,2.76
12:50:11.359375,2.59
12:50:11.375000,2.51
12:50:11.390625,2.55
12:50:11.406250,2.68
12:50:11.421875,2.81
12:50:11.437500,2.84
12:50:11.453125,2.72
12:50:11.468750,2.49
12:50:11.484375,2.29
12:50:11.500000,2.26
12:50:11.515625,2.46
12:50:11.531250,2.83
12:50:11.546875,3.16
12:50:11.562500,3.25
12:50:11.578125,2.99
12:50:11.593750,2.45
12:50:11.609375,1.79
12:50:11.625000,1.19
12:50:11.640625,0.68
12:50:11.656250,0.18
12:50:11.671875,-0.48
12:50:11.687500,-1.35
12:50:11.703125,-2.38
12:50:11.718750,-3.38
12:50:11.734375,-4.17
12:50:11.750000,-4.68
12:50:11.765625,-5.00
12:50:11.781250,-5.32
12:50:11.796875,-5.73
12:50:11.812500,-6.22
12:50:11.828125,-6.60
12:50:11.843750,-6.67
12:50:11.859375,-6.28
12:50:11.875000,-5.43
12:50:11.890625,-4.26
12:50:11.906250,-2.97
12:50:11.921875,-1.70
12:50:11.937500,-0.57
12:50:11.953125,0.42
12:50:11.968750,1.27
12:50:11.984375,1.98
12:50:12,2.54
12:50:12.015625,2.91
12:50:12.031250,3.09
12:50:12.046875,3.08
12:50:12.062500,2.94
12:50:12.078125,2.76
12:50:12.093750,2.64
12:50:12.109375,2.62
12:50:12.125000,2.70
12:50:12.140625,2.82
12:50:12.156250,2.92
12:50:12.171875,2.96
12:50:12.187500,2.95
12:50:12.203125,2.95
12:50:12.218750,3.02
12:50:12.234375,3.12
12:50:12.250000,3.16
12:50:12.265625,2.99
12:50:12.281250,2.54
12:50:12.296875,1.85
12:50:12.312500,1.09
12:50:12.328125,0.45
12:50:12.343750,0.06
12:50:12.359375,-0.13
12:50:12.375000,-0.29
12:50:12.390625,-0.65
12:50:12.406250,-1.31
12:50:12.421875,-2.25
12:50:12.437500,-3.30
12:50:12.453125,-4.29
12:50:12.468750,-5.09
12:50:12.484375,-5.64
12:50:12.500000,-5.96
12:50:12.515625,-6.08
12:50:12.531250,-6.01
12:50:12.546875,-5.70
12:50:12.562500,-5.18
12:50:12.578125,-4.45
12:50:12.593750,-3.54
12:50:12.609375,-2.51
12:50:12.625000,-1.43
12:50:12.640625,-0.35
12:50:12.656250,0.65
12:50:12.671875,1.50
12:50:12.687500,2.16
12:50:12.703125,2.65
12:50:12.718750,3.01
12:50:12.734375,3.28
12:50:12.750000,3.46
12:50:12.765625,3.53
12:50:12.781250,3.44
12:50:12.796875,3.22
12:50:12.812500,2.93
12:50:12.828125,2.70
12:50:12.843750,2.60
12:50:12.859375,2.67
12:50:12.875000,2.84
12:50:12.890625,2.99
12:50:12.906250,2.98
12:50:12.921875,2.72
12:50:12.937500,2.23
12:50:12.953125,1.59
12:50:12.968750,0.92
12:50:12.984375,0.33
12:50:13,-0.13
12:50:13.015625,-0.43
12:50:13.031250,-0.63
12:50:13.046875,-0.80
12:50:13.062500,-1.03
12:50:13.078125,-1.42
12:50:13.093750,-2.03
12:50:13.109375,-2.88
12:50:13.125000,-4.00
12:50:13.140625,-5.32
12:50:13.156250,-6.73
12:50:13.171875,-8.01
12:50:13.187500,-8.93
12:50:13.203125,-9.29
12:50:13.218750,-8.93
12:50:13.234375,-7.91
12:50:13.250000,-6.41
12:50:13.265625,-4.72
12:50:13.281250,-3.12
12:50:13.296875,-1.77
12:50:13.312500,-0.70
12:50:13.328125,0.18
12:50:13.343750,0.97
12:50:13.359375,1.72
12:50:13.375000,2.38
12:50:13.390625,2.92
12:50:13.406250,3.32
12:50:13.421875,3.62
12:50:13.437500,3.87
12:50:13.453125,4.07
12:50:13.468750,4.19
12:50:13.484375,4.13
12:50:13.500000,3.88
12:50:13.515625,3.50
12:50:13.531250,3.15
12:50:13.546875,3.00
12:50:13.562500,3.11
12:50:13.578125,3.44
12:50:13.593750,3.82
12:50:13.609375,4.08
12:50:13.625000,4.07
12:50:13.640625,3.74
12:50:13.656250,3.11
12:50:13.671875,2.27
12:50:13.687500,1.33
12:50:13.703125,0.39
12:50:13.718750,-0.46
12:50:13.734375,-1.16
12:50:13.750000,-1.72
12:50:13.765625,-2.22
12:50:13.781250,-2.76
12:50:13.796875,-3.44
12:50:13.812500,-4.29
12:50:13.828125,-5.29
12:50:13.843750,-6.34
12:50:13.859375,-7.30
12:50:13.875000,-8.01
12:50:13.890625,-8.33
12:50:13.906250,-8.15
12:50:13.921875,-7.45
12:50:13.937500,-6.33
12:50:13.953125,-4.93
12:50:13.968750,-3.47
12:50:13.984375,-2.13
12:50:14,-1.03
12:50:14.015625,-0.22
12:50:14.031250,0.35
12:50:14.046875,0.75
12:50:14.062500,1.10
12:50:14.078125,1.46
12:50:14.093750,1.89
12:50:14.109375,2.37
12:50:14.125000,2.86
12:50:14.140625,3.25
12:50:14.156250,3.43
12:50:14.171875,3.38
12:50:14.187500,3.14
12:50:14.203125,2.86
12:50:14.218750,2.71
12:50:14.234375,2.81
12:50:14.250000,3.18
12:50:14.265625,3.73
12:50:14.281250,4.29
12:50:14.296875,4.71
12:50:14.312500,4.89
12:50:14.328125,4.81
12:50:14.343750,4.50
12:50:14.359375,4.05
12:50:14.375000,3.53
12:50:14.390625,3.00
12:50:14.406250,2.49
12:50:14.421875,1.96
12:50:14.437500,1.38
12:50:14.453125,0.67
12:50:14.468750,-0.19
12:50:14.484375,-1.22
12:50:14.500000,-2.38
12:50:14.515625,-3.60
12:50:14.531250,-4.80
12:50:14.546875,-5.87
12:50:14.562500,-6.70
12:50:14.578125,-7.16
12:50:14.593750,-7.19
12:50:14.609375,-6.75
12:50:14.625000,-5.89
12:50:14.640625,-4.72
12:50:14.656250,-3.39
12:50:14.671875,-2.05
12:50:14.687500,-0.79
12:50:14.703125,0.28
12:50:14.718750,1.13
12:50:14.734375,1.73
12:50:14.750000,2.09
12:50:14.765625,2.23
12:50:14.781250,2.21
12:50:14.796875,2.10
12:50:14.812500,1.95
12:50:14.828125,1.81
12:50:14.843750,1.72
12:50:14.859375,1.69
12:50:14.875000,1.74
12:50:14.890625,1.88
12:50:14.906250,2.07
12:50:14.921875,2.31
12:50:14.937500,2.55
12:50:14.953125,2.74
12:50:14.968750,2.86
12:50:14.984375,2.90
12:50:15,2.86
12:50:15.015625,2.71
12:50:15.031250,2.46
12:50:15.046875,2.11
12:50:15.062500,1.70
12:50:15.078125,1.26
12:50:15.093750,0.88
12:50:15.109375,0.57
12:50:15.125000,0.31
12:50:15.140625,0.05
12:50:15.156250,-0.34
12:50:15.171875,-0.89
12:50:15.187500,-1.61
12:50:15.203125,-2.41
12:50:15.218750,-3.20
12:50:15.234375,-3.90
12:50:15.250000,-4.51
12:50:15.265625,-5.08
12:50:15.281250,-5.58
12:50:15.296875,-5.98
12:50:15.312500,-6.11
12:50:15.328125,-5.83
12:50:15.343750,-5.02
12:50:15.359375,-3.72
12:50:15.375000,-2.12
12:50:15.390625,-0.49
12:50:15.406250,0.94
12:50:15.421875,2.04
12:50:15.437500,2.80
12:50:15.453125,3.31
12:50:15.468750,3.67
12:50:15.484375,3.97
12:50:15.500000,4.25
12:50:15.515625,4.50
12:50:15.531250,4.73
12:50:15.546875,4.96
12:50:15.562500,5.20
12:50:15.578125,5.41
12:50:15.593750,5.57
12:50:15.609375,5.60
12:50:15.625000,5.45
12:50:15.640625,5.11
12:50:15.656250,4.65
12:50:15.671875,4.17
12:50:15.687500,3.77
12:50:15.703125,3.50
12:50:15.718750,3.35
12:50:15.734375,3.25
12:50:15.750000,3.11
12:50:15.765625,2.85
12:50:15.781250,2.45
12:50:15.796875,1.90
12:50:15.812500,1.22
12:50:15.828125,0.42
12:50:15.843750,-0.48
12:50:15.859375,-1.45
12:50:15.875000,-2.50
12:50:15.890625,-3.60
12:50:15.906250,-4.75
12:50:15.921875,-5.92
12:50:15.937500,-7.11
12:50:15.953125,-8.22
12:50:15.968750,-9.15
12:50:15.984375,-9.77
12:50:16,-9.98
12:50:16.015625,-9.74
12:50:16.031250,-9.05
12:50:16.046875,-7.95
12:50:16.062500,-6.53
12:50:16.078125,-4.93
12:50:16.093750,-3.31
12:50:16.109375,-1.83
12:50:16.125000,-0.64
12:50:16.140625,0.26
12:50:16.156250,0.93
12:50:16.171875,1.53
12:50:16.187500,2.19
12:50:16.203125,2.97
12:50:16.218750,3.78
12:50:16.234375,4.49
12:50:16.250000,4.96
12:50:16.265625,5.16
12:50:16.281250,5.14
12:50:16.296875,4.98
12:50:16.312500,4.79
12:50:16.328125,4.58
12:50:16.343750,4.31
12:50:16.359375,3.93
12:50:16.375000,3.48
12:50:16.390625,3.04
12:50:16.406250,2.76
12:50:16.421875,2.78
12:50:16.437500,3.15
12:50:16.453125,3.78
12:50:16.468750,4.48
12:50:16.484375,5.04
12:50:16.500000,5.22
12:50:16.515625,4.89
12:50:16.531250,4.04
12:50:16.546875,2.79
12:50:16.562500,1.35
12:50:16.578125,-0.08
12:50:16.593750,-1.34
12:50:16.609375,-2.38
12:50:16.625000,-3.25
12:50:16.640625,-4.04
12:50:16.656250,-4.83
12:50:16.671875,-5.67
12:50:16.687500,-6.51
12:50:16.703125,-7.26
12:50:16.718750,-7.77
12:50:16.734375,-7.93
12:50:16.750000,-7.70
12:50:16.765625,-7.10
12:50:16.781250,-6.21
12:50:16.796875,-5.15
12:50:16.812500,-4.00
12:50:16.828125,-2.83
12:50:16.843750,-1.68
12:50:16.859375,-0.56
12:50:16.875000,0.46
12:50:16.890625,1.34
12:50:16.906250,1.98
12:50:16.921875,2.39
12:50:16.937500,2.59
12:50:16.953125,2.72
12:50:16.968750,2.94
12:50:16.984375,3.38
12:50:17,4.12
12:50:17.015625,5.05
12:50:17.031250,5.98
12:50:17.046875,6.65
12:50:17.062500,6.88
12:50:17.078125,6.66
12:50:17.093750,6.15
12:50:17.109375,5.61
12:50:17.125000,5.22
12:50:17.140625,5.04
12:50:17.156250,4.95
12:50:17.171875,4.76
12:50:17.187500,4.28
12:50:17.203125,3.48
12:50:17.218750,2.45
12:50:17.234375,1.35
12:50:17.250000,0.32
12:50:17.265625,-0.57
12:50:17.281250,-1.35
12:50:17.296875,-2.08
12:50:17.312500,-2.87
12:50:17.328125,-3.78
12:50:17.343750,-4.81
12:50:17.359375,-5.91
12:50:17.375000,-6.96
12:50:17.390625,-7.80
12:50:17.406250,-8.31
12:50:17.421875,-8.43
12:50:17.437500,-8.13
12:50:17.453125,-7.45
12:50:17.468750,-6.45
12:50:17.484375,-5.19
12:50:17.500000,-3.78
12:50:17.515625,-2.34
12:50:17.531250,-0.98
12:50:17.546875,0.22
12:50:17.562500,1.26
12:50:17.578125,2.17
12:50:17.593750,3.00
12:50:17.609375,3.77
12:50:17.625000,4.43
12:50:17.640625,4.93
12:50:17.656250,5.19
12:50:17.671875,5.21
12:50:17.687500,5.04
12:50:17.703125,4.79
12:50:17.718750,4.59
12:50:17.734375,4.52
12:50:17.750000,4.56
12:50:17.765625,4.65
12:50:17.781250,4.70
12:50:17.796875,4.62
12:50:17.812500,4.39
12:50:17.828125,4.02
12:50:17.843750,3.57
12:50:17.859375,3.09
12:50:17.875000,2.58
12:50:17.890625,2.02
12:50:17.906250,1.32
12:50:17.921875,0.41
12:50:17.937500,-0.71
12:50:17.953125,-1.98
12:50:17.968750,-3.24
12:50:17.984375,-4.32
12:50:18,-5.08
12:50:18.015625,-5.43
12:50:18.031250,-5.42
12:50:18.046875,-5.24
12:50:18.062500,-5.14
12:50:18.078125,-5.34
12:50:18.093750,-5.95
12:50:18.109375,-6.90
12:50:18.125000,-7.96
12:50:18.140625,-8.82
12:50:18.156250,-9.16
12:50:18.171875,-8.78
12:50:18.187500,-7.65
12:50:18.203125,-5.91
12:50:18.218750,-3.87
12:50:18.234375,-1.82
12:50:18.250000,0.05
12:50:18.265625,1.68
12:50:18.281250,3.18
12:50:18.296875,4.69
12:50:18.312500,6.28
12:50:18.328125,7.86
12:50:18.343750,9.19
12:50:18.359375,10.03
12:50:18.375000,10.22
12:50:18.390625,9.85
12:50:18.406250,9.19
12:50:18.421875,8.56
12:50:18.437500,8.23
12:50:18.453125,8.25
12:50:18.468750,8.51
12:50:18.484375,8.81
12:50:18.500000,9.01
12:50:18.515625,9.09
12:50:18.531250,9.17
12:50:18.546875,9.41
12:50:18.562500,9.88
12:50:18.578125,10.47
12:50:18.593750,10.97
12:50:18.609375,11.07
12:50:18.625000,10.53
12:50:18.640625,9.22
12:50:18.656250,7.18
12:50:18.671875,4.54
12:50:18.687500,1.54
12:50:18.703125,-1.57
12:50:18.718750,-4.53
12:50:18.734375,-7.10
12:50:18.750000,-9.11
12:50:18.765625,-10.54
12:50:18.781250,-11.54
12:50:18.796875,-12.42
12:50:18.812500,-13.50
12:50:18.828125,-14.95
12:50:18.843750,-16.67
12:50:18.859375,-18.25
12:50:18.875000,-19.09
12:50:18.890625,-18.71
12:50:18.906250,-16.98
12:50:18.921875,-14.21
12:50:18.937500,-11.09
12:50:18.953125,-8.37
12:50:18.968750,-6.52
12:50:18.984375,-5.61
12:50:19,-5.25
12:50:19.015625,-4.92
12:50:19.031250,-4.18
12:50:19.046875,-2.95
12:50:19.062500,-1.48
12:50:19.078125,-0.19
12:50:19.093750,0.56
12:50:19.109375,0.66
12:50:19.125000,0.30
12:50:19.140625,-0.16
12:50:19.156250,-0.35
12:50:19.171875,-0.10
12:50:19.187500,0.57
12:50:19.203125,1.48
12:50:19.218750,2.41
12:50:19.234375,3.24
12:50:19.250000,3.97
12:50:19.265625,4.72
12:50:19.281250,5.64
12:50:19.296875,6.82
12:50:19.312500,8.20
12:50:19.328125,9.67
12:50:19.343750,11.04
12:50:19.359375,12.16
12:50:19.375000,12.92
12:50:19.390625,13.30
12:50:19.406250,13.32
12:50:19.421875,13.09
12:50:19.437500,12.73
12:50:19.453125,12.40
12:50:19.468750,12.21
12:50:19.484375,12.16
12:50:19.500000,12.21
12:50:19.515625,12.20
12:50:19.531250,12.00
12:50:19.546875,11.48
12:50:19.562500,10.56
12:50:19.578125,9.18
12:50:19.593750,7.35
12:50:19.609375,5.16
12:50:19.625000,2.80
12:50:19.640625,0.59
12:50:19.656250,-1.09
12:50:19.671875,-1.94
12:50:19.687500,-1.84
12:50:19.703125,-0.91
12:50:19.718750,0.48
12:50:19.734375,1.93
12:50:19.750000,3.17
12:50:19.765625,4.09
12:50:19.781250,4.78
12:50:19.796875,5.38
12:50:19.812500,6.03
12:50:19.828125,6.81
12:50:19.843750,7.72
12:50:19.859375,8.74
12:50:19.875000,9.82
12:50:19.890625,10.96
12:50:19.906250,12.16
12:50:19.921875,13.48
12:50:19.937500,14.97
12:50:19.953125,16.65
12:50:19.968750,18.47
12:50:19.984375,20.28
12:50:20,21.77
12:50:20.015625,22.62
12:50:20.031250,22.65
12:50:20.046875,21.86
12:50:20.062500,20.37
12:50:20.078125,18.33
12:50:20.093750,15.85
12:50:20.109375,13.00
12:50:20.125000,9.80
12:50:20.140625,6.15
12:50:20.156250,2.07
12:50:20.171875,-2.17
12:50:20.187500,-6.19
12:50:20.203125,-9.61
12:50:20.218750,-12.36
12:50:20.234375,-14.53
12:50:20.250000,-16.39
12:50:20.265625,-18.22
12:50:20.281250,-20.66
12:50:20.296875,-24.10
12:50:20.312500,-28.44
12:50:20.328125,-33.08
12:50:20.343750,-37.28
12:50:20.359375,-40.45
12:50:20.375000,-42.34
12:50:20.390625,-42.93
12:50:20.406250,-42.45
12:50:20.421875,-41.88
12:50:20.437500,-41.93
12:50:20.453125,-42.72
12:50:20.468750,-43.74
12:50:20.484375,-44.41
12:50:20.500000,-44.51
12:50:20.515625,-44.22
12:50:20.531250,-43.85
12:50:20.546875,-43.84
12:50:20.562500,-45.38
12:50:20.578125,-49.22
12:50:20.593750,-55.36
12:50:20.609375,-63.01
12:50:20.625000,-71.07
12:50:20.640625,-78.53
12:50:20.656250,-84.51
12:50:20.671875,-88.14
12:50:20.687500,-83.67
12:50:20.703125,-68.48
12:50:20.718750,-44.73
12:50:20.734375,-18.60
12:50:20.750000,3.86
12:50:20.765625,19.82
12:50:20.781250,29.60
12:50:20.796875,34.50
12:50:20.812500,37.09
12:50:20.828125,38.74
12:50:20.843750,39.02
12:50:20.859375,37.25
12:50:20.875000,33.46
12:50:20.890625,28.59
12:50:20.906250,24.14
12:50:20.921875,21.07
12:50:20.937500,19.64
12:50:20.953125,19.63
12:50:20.968750,20.34
12:50:20.984375,20.53
12:50:21,19.39
12:50:21.015625,16.96
12:50:21.031250,14.02
12:50:21.046875,11.47
12:50:21.062500,9.73
12:50:21.078125,8.81
12:50:21.093750,8.51
12:50:21.109375,8.53
12:50:21.125000,8.37
12:50:21.140625,7.80
12:50:21.156250,7.01
12:50:21.171875,6.49
12:50:21.187500,6.67
12:50:21.203125,7.65
12:50:21.218750,9.28
12:50:21.234375,11.32
12:50:21.250000,13.42
12:50:21.265625,15.10
12:50:21.281250,16.03
12:50:21.296875,16.10
12:50:21.312500,15.48
12:50:21.328125,14.46
12:50:21.343750,13.29
12:50:21.359375,12.16
12:50:21.375000,11.21
12:50:21.390625,10.45
12:50:21.406250,9.83
12:50:21.421875,9.27
12:50:21.437500,8.73
12:50:21.453125,8.22
12:50:21.468750,7.73
12:50:21.484375,7.24
12:50:21.500000,6.76
12:50:21.515625,6.30
12:50:21.531250,5.92
12:50:21.546875,5.60
12:50:21.562500,5.33
12:50:21.578125,5.01
12:50:21.593750,4.55
12:50:21.609375,3.94
12:50:21.625000,3.19
12:50:21.640625,2.38
12:50:21.656250,1.58
12:50:21.671875,0.79
12:50:21.687500,-0.04
12:50:21.703125,-0.99
12:50:21.718750,-2.14
12:50:21.734375,-3.47
12:50:21.750000,-4.93
12:50:21.765625,-6.42
12:50:21.781250,-7.80
12:50:21.796875,-8.86
12:50:21.812500,-9.40
12:50:21.828125,-9.24
12:50:21.843750,-8.31
12:50:21.859375,-6.65
12:50:21.875000,-4.50
12:50:21.890625,-2.19
12:50:21.906250,-0.01
12:50:21.921875,1.83
12:50:21.937500,3.31
12:50:21.953125,4.51
12:50:21.968750,5.57
12:50:21.984375,6.60
12:50:22,7.60
12:50:22.015625,8.52
12:50:22.031250,9.25
12:50:22.046875,9.74
12:50:22.062500,9.96
12:50:22.078125,9.97
12:50:22.093750,9.83
12:50:22.109375,9.66
12:50:22.125000,9.51
12:50:22.140625,9.42
12:50:22.156250,9.38
12:50:22.171875,9.33
12:50:22.187500,9.25
12:50:22.203125,9.13
12:50:22.218750,9.00
12:50:22.234375,8.87
12:50:22.250000,8.73
12:50:22.265625,8.49
12:50:22.281250,8.01
12:50:22.296875,7.20
12:50:22.312500,6.07
12:50:22.328125,4.71
12:50:22.343750,3.33
12:50:22.359375,2.10
12:50:22.375000,1.13
12:50:22.390625,0.39
12:50:22.406250,-0.18
12:50:22.421875,-0.69
12:50:22.437500,-1.21
12:50:22.453125,-1.79
12:50:22.468750,-2.49
12:50:22.484375,-3.37
12:50:22.500000,-4.42
12:50:22.515625,-5.57
12:50:22.531250,-6.63
12:50:22.546875,-7.34
12:50:22.562500,-7.50
12:50:22.578125,-7.04
12:50:22.593750,-6.06
12:50:22.609375,-4.78
12:50:22.625000,-3.41
12:50:22.640625,-2.08
12:50:22.656250,-0.81
12:50:22.671875,0.42
12:50:22.687500,1.61
12:50:22.703125,2.70
12:50:22.718750,3.61
12:50:22.734375,4.29
12:50:22.750000,4.80
12:50:22.765625,5.20
12:50:22.781250,5.60
12:50:22.796875,6.01
12:50:22.812500,6.40
12:50:22.828125,6.70
12:50:22.843750,6.90
12:50:22.859375,7.03
12:50:22.875000,7.13
12:50:22.890625,7.22
12:50:22.906250,7.27
12:50:22.921875,7.22
12:50:22.937500,7.04
12:50:22.953125,6.78
12:50:22.968750,6.50
12:50:22.984375,6.24
12:50:23,5.97
12:50:23.015625,5.60
12:50:23.031250,5.02
12:50:23.046875,4.23
12:50:23.062500,3.35
12:50:23.078125,2.51
12:50:23.093750,1.82
12:50:23.109375,1.28
12:50:23.125000,0.75
12:50:23.140625,0.09
12:50:23.156250,-0.76
12:50:23.171875,-1.77
12:50:23.187500,-2.78
12:50:23.203125,-3.68
12:50:23.218750,-4.39
12:50:23.234375,-4.93
12:50:23.250000,-5.31
12:50:23.265625,-5.50
12:50:23.281250,-5.40
12:50:23.296875,-4.93
12:50:23.312500,-4.03
12:50:23.328125,-2.77
12:50:23.343750,-1.26
12:50:23.359375,0.34
12:50:23.375000,1.91
12:50:23.390625,3.37
12:50:23.406250,4.64
12:50:23.421875,5.69
12:50:23.437500,6.48
12:50:23.453125,6.99
12:50:23.468750,7.28
12:50:23.484375,7.42
12:50:23.500000,7.46
12:50:23.515625,7.43
12:50:23.531250,7.30
12:50:23.546875,7.03
12:50:23.562500,6.61
12:50:23.578125,6.07
12:50:23.593750,5.52
12:50:23.609375,5.02
12:50:23.625000,4.61
12:50:23.640625,4.29
12:50:23.656250,4.06
12:50:23.671875,3.92
12:50:23.687500,3.89
12:50:23.703125,3.99
12:50:23.718750,4.19
12:50:23.734375,4.40
12:50:23.750000,4.51
12:50:23.765625,4.41
12:50:23.781250,4.09
12:50:23.796875,3.58
12:50:23.812500,2.98
12:50:23.828125,2.40
12:50:23.843750,1.87
12:50:23.859375,1.35
12:50:23.875000,0.75
12:50:23.890625,-0.01
12:50:23.906250,-0.99
12:50:23.921875,-2.21
12:50:23.937500,-3.65
12:50:23.953125,-5.26
12:50:23.968750,-6.94
12:50:23.984375,-8.51
12:50:24,-9.74
12:50:24.015625,-10.43
12:50:24.031250,-10.45
12:50:24.046875,-9.82
12:50:24.062500,-8.71
12:50:24.078125,-7.39
12:50:24.093750,-6.09
12:50:24.109375,-4.93
12:50:24.125000,-3.87
12:50:24.140625,-2.80
12:50:24.156250,-1.63
12:50:24.171875,-0.35
12:50:24.187500,0.97
12:50:24.203125,2.19
12:50:24.218750,3.23
12:50:24.234375,4.02
12:50:24.250000,4.59
12:50:24.265625,4.92
12:50:24.281250,5.01
12:50:24.296875,4.88
12:50:24.312500,4.60
12:50:24.328125,4.33
12:50:24.343750,4.23
12:50:24.359375,4.41
12:50:24.375000,4.88
12:50:24.390625,5.49
12:50:24.406250,6.06
12:50:24.421875,6.43
12:50:24.437500,6.50
12:50:24.453125,6.28
12:50:24.468750,5.83
12:50:24.484375,5.23
12:50:24.500000,4.55
12:50:24.515625,3.81
12:50:24.531250,3.00
12:50:24.546875,2.10
12:50:24.562500,1.13
12:50:24.578125,0.16
12:50:24.593750,-0.73
12:50:24.609375,-1.49
12:50:24.625000,-2.10
12:50:24.640625,-2.67
12:50:24.656250,-3.29
12:50:24.671875,-4.08
12:50:24.687500,-5.02
12:50:24.703125,-6.04
12:50:24.718750,-7.00
12:50:24.734375,-7.77
12:50:24.750000,-8.29
12:50:24.765625,-8.54
12:50:24.781250,-8.48
12:50:24.796875,-8.09
12:50:24.812500,-7.29
12:50:24.828125,-6.09
12:50:24.843750,-4.53
12:50:24.859375,-2.78
12:50:24.875000,-1.02
12:50:24.890625,0.57
12:50:24.906250,1.88
12:50:24.921875,2.86
12:50:24.937500,3.56
12:50:24.953125,4.03
12:50:24.968750,4.34
12:50:24.984375,4.47
12:50:25,4.40
12:50:25.015625,4.09
12:50:25.031250,3.56
12:50:25.046875,2.92
12:50:25.062500,2.34
12:50:25.078125,2.00
12:50:25.093750,1.94
12:50:25.109375,2.11
12:50:25.125000,2.35
12:50:25.140625,2.48
12:50:25.156250,2.43
12:50:25.171875,2.22
12:50:25.187500,1.95
12:50:25.203125,1.72
12:50:25.218750,1.55
12:50:25.234375,1.40
12:50:25.250000,1.25
12:50:25.265625,1.06
12:50:25.281250,0.86
12:50:25.296875,0.64
12:50:25.312500,0.34
12:50:25.328125,-0.11
12:50:25.343750,-0.81
12:50:25.359375,-1.72
12:50:25.375000,-2.75
12:50:25.390625,-3.74
12:50:25.406250,-4.57
12:50:25.421875,-5.23
12:50:25.437500,-5.79
12:50:25.453125,-6.31
12:50:25.468750,-6.79
12:50:25.484375,-7.09
12:50:25.500000,-7.03
12:50:25.515625,-6.44
12:50:25.531250,-5.32
12:50:25.546875,-3.87
12:50:25.562500,-2.37
12:50:25.578125,-1.11
12:50:25.593750,-0.19
12:50:25.609375,0.45
12:50:25.625000,1.01
12:50:25.640625,1.67
12:50:25.656250,2.48
12:50:25.671875,3.35
12:50:25.687500,4.09
12:50:25.703125,4.56
12:50:25.718750,4.72
12:50:25.734375,4.67
12:50:25.750000,4.55
12:50:25.765625,4.48
12:50:25.781250,4.52
12:50:25.796875,4.64
12:50:25.812500,4.78
12:50:25.828125,4.89
12:50:25.843750,4.91
12:50:25.859375,4.82
12:50:25.875000,4.59
12:50:25.890625,4.18
12:50:25.906250,3.61
12:50:25.921875,2.93
12:50:25.937500,2.23
12:50:25.953125,1.56
12:50:25.968750,0.94
12:50:25.984375,0.37
12:50:26,-0.18
12:50:26.015625,-0.73
12:50:26.031250,-1.27
12:50:26.046875,-1.79
12:50:26.062500,-2.31
12:50:26.078125,-2.83
12:50:26.093750,-3.39
12:50:26.109375,-4.01
12:50:26.125000,-4.70
12:50:26.140625,-5.45
12:50:26.156250,-6.20
12:50:26.171875,-6.88
12:50:26.187500,-7.42
12:50:26.203125,-7.66
12:50:26.218750,-7.49
12:50:26.234375,-6.84
12:50:26.250000,-5.74
12:50:26.265625,-4.38
12:50:26.281250,-2.98
12:50:26.296875,-1.77
12:50:26.312500,-0.84
12:50:26.328125,-0.12
12:50:26.343750,0.50
12:50:26.359375,1.13
12:50:26.375000,1.76
12:50:26.390625,2.28
12:50:26.406250,2.62
12:50:26.421875,2.79
12:50:26.437500,2.93
12:50:26.453125,3.23
12:50:26.468750,3.75
12:50:26.484375,4.39
12:50:26.500000,4.90
12:50:26.515625,5.05
12:50:26.531250,4.80
12:50:26.546875,4.29
12:50:26.562500,3.79
12:50:26.578125,3.51
12:50:26.593750,3.51
12:50:26.609375,3.64
12:50:26.625000,3.66
12:50:26.640625,3.38
12:50:26.656250,2.75
12:50:26.671875,1.84
12:50:26.687500,0.81
12:50:26.703125,-0.17
12:50:26.718750,-0.95
12:50:26.734375,-1.45
12:50:26.750000,-1.70
12:50:26.765625,-1.76
12:50:26.781250,-1.79
12:50:26.796875,-1.94
12:50:26.812500,-2.32
12:50:26.828125,-2.98
12:50:26.843750,-3.86
12:50:26.859375,-4.88
12:50:26.875000,-5.89
12:50:26.890625,-6.76
12:50:26.906250,-7.33
12:50:26.921875,-7.45
12:50:26.937500,-7.02
12:50:26.953125,-6.06
12:50:26.968750,-4.72
12:50:26.984375,-3.26
12:50:27,-1.96
12:50:27.015625,-1.03
12:50:27.031250,-0.49
12:50:27.046875,-0.21
12:50:27.062500,0.02
12:50:27.078125,0.35
12:50:27.093750,0.86
12:50:27.109375,1.50
12:50:27.125000,2.13
12:50:27.140625,2.60
12:50:27.156250,2.85
12:50:27.171875,2.90
12:50:27.187500,2.81
12:50:27.203125,2.66
12:50:27.218750,2.48
12:50:27.234375,2.28
12:50:27.250000,2.02
12:50:27.265625,1.72
12:50:27.281250,1.47
12:50:27.296875,1.40
12:50:27.312500,1.59
12:50:27.328125,2.01
12:50:27.343750,2.52
12:50:27.359375,2.88
12:50:27.375000,2.89
12:50:27.390625,2.50
12:50:27.406250,1.78
12:50:27.421875,0.89
12:50:27.437500,0.02
12:50:27.453125,-0.77
12:50:27.468750,-1.43
12:50:27.484375,-2.01
12:50:27.500000,-2.52
12:50:27.515625,-3.00
12:50:27.531250,-3.47
12:50:27.546875,-3.97
12:50:27.562500,-4.55
12:50:27.578125,-5.22
12:50:27.593750,-5.93
12:50:27.609375,-6.52
12:50:27.625000,-6.85
12:50:27.640625,-6.76
12:50:27.656250,-6.23
12:50:27.671875,-5.30
12:50:27.687500,-4.11
12:50:27.703125,-2.83
12:50:27.718750,-1.63
12:50:27.734375,-0.59
12:50:27.750000,0.22
12:50:27.765625,0.81
12:50:27.781250,1.24
12:50:27.796875,1.56
12:50:27.812500,1.84
12:50:27.828125,2.11
12:50:27.843750,2.38
12:50:27.859375,2.62
12:50:27.875000,2.81
12:50:27.890625,2.92
12:50:27.906250,2.93
12:50:27.921875,2.86
12:50:27.937500,2.76
12:50:27.953125,2.65
12:50:27.968750,2.53
12:50:27.984375,2.39
12:50:28,2.18
12:50:28.015625,1.85
12:50:28.031250,1.40
12:50:28.046875,0.87
12:50:28.062500,0.35
12:50:28.078125,-0.04
12:50:28.093750,-0.26
12:50:28.109375,-0.32
12:50:28.125000,-0.31
12:50:28.140625,-0.37
12:50:28.156250,-0.59
12:50:28.171875,-1.02
12:50:28.187500,-1.66
12:50:28.203125,-2.44
12:50:28.218750,-3.31
12:50:28.234375,-4.22
12:50:28.250000,-5.10
12:50:28.265625,-5.86
12:50:28.281250,-6.34
12:50:28.296875,-6.44
12:50:28.312500,-6.10
12:50:28.328125,-5.38
12:50:28.343750,-4.46
12:50:28.359375,-3.53
12:50:28.375000,-2.72
12:50:28.390625,-2.05
12:50:28.406250,-1.47
12:50:28.421875,-0.86
12:50:28.437500,-0.18
12:50:28.453125,0.56
12:50:28.468750,1.31
12:50:28.484375,2.01
12:50:28.500000,2.65
12:50:28.515625,3.21
12:50:28.531250,3.67
12:50:28.546875,3.97
12:50:28.562500,4.08
12:50:28.578125,3.98
12:50:28.593750,3.77
12:50:28.609375,3.56
12:50:28.625000,3.50
12:50:28.640625,3.61
12:50:28.656250,3.83
12:50:28.671875,4.01
12:50:28.687500,4.01
12:50:28.703125,3.78
12:50:28.718750,3.34
12:50:28.734375,2.79
12:50:28.750000,2.23
12:50:28.765625,1.68
12:50:28.781250,1.12
12:50:28.796875,0.50
12:50:28.812500,-0.17
12:50:28.828125,-0.83
12:50:28.843750,-1.42
12:50:28.859375,-1.94
12:50:28.875000,-2.42
12:50:28.890625,-2.96
12:50:28.906250,-3.63
12:50:28.921875,-4.43
12:50:28.937500,-5.30
12:50:28.953125,-6.13
12:50:28.968750,-6.85
12:50:28.984375,-7.46
12:50:29,-7.93
12:50:29.015625,-8.19
12:50:29.031250,-8.13
12:50:29.046875,-7.63
12:50:29.062500,-6.68
12:50:29.078125,-5.41
12:50:29.093750,-4.00
12:50:29.109375,-2.67
12:50:29.125000,-1.50
12:50:29.140625,-0.47
12:50:29.156250,0.51
12:50:29.171875,1.49
12:50:29.187500,2.42
12:50:29.203125,3.17
12:50:29.218750,3.65
12:50:29.234375,3.84
12:50:29.250000,3.79
12:50:29.265625,3.67
12:50:29.281250,3.63
12:50:29.296875,3.75
12:50:29.312500,4.02
12:50:29.328125,4.34
12:50:29.343750,4.60
12:50:29.359375,4.70
12:50:29.375000,4.57
12:50:29.390625,4.24
12:50:29.406250,3.75
12:50:29.421875,3.19
12:50:29.437500,2.66
12:50:29.453125,2.21
12:50:29.468750,1.89
12:50:29.484375,1.69
12:50:29.500000,1.57
12:50:29.515625,1.44
12:50:29.531250,1.19
12:50:29.546875,0.71
12:50:29.562500,-0.03
12:50:29.578125,-1.00
12:50:29.593750,-2.05
12:50:29.609375,-3.00
12:50:29.625000,-3.71
12:50:29.640625,-4.15
12:50:29.656250,-4.41
12:50:29.671875,-4.70
12:50:29.687500,-5.19
12:50:29.703125,-5.93
12:50:29.718750,-6.80
12:50:29.734375,-7.52
12:50:29.750000,-7.84
12:50:29.765625,-7.59
12:50:29.781250,-6.79
12:50:29.796875,-5.60
12:50:29.812500,-4.24
12:50:29.828125,-2.92
12:50:29.843750,-1.74
12:50:29.859375,-0.75
12:50:29.875000,0.05
12:50:29.890625,0.71
12:50:29.906250,1.31
12:50:29.921875,1.93
12:50:29.937500,2.62
12:50:29.953125,3.37
12:50:29.968750,4.09
12:50:29.984375,4.69
12:50:30,5.08
12:50:30.015625,5.25
12:50:30.031250,5.26
12:50:30.046875,5.23
12:50:30.062500,5.24
12:50:30.078125,5.31
12:50:30.093750,5.39
12:50:30.109375,5.40
12:50:30.125000,5.26
12:50:30.140625,4.92
12:50:30.156250,4.44
12:50:30.171875,3.93
12:50:30.187500,3.54
12:50:30.203125,3.35
12:50:30.218750,3.38
12:50:30.234375,3.49
12:50:30.250000,3.51
12:50:30.265625,3.31
12:50:30.281250,2.86
12:50:30.296875,2.23
12:50:30.312500,1.52
12:50:30.328125,0.82
12:50:30.343750,0.12
12:50:30.359375,-0.66
12:50:30.375000,-1.59
12:50:30.390625,-2.67
12:50:30.406250,-3.83
12:50:30.421875,-4.95
12:50:30.437500,-5.93
12:50:30.453125,-6.68
12:50:30.468750,-7.19
12:50:30.484375,-7.51
12:50:30.500000,-7.72
12:50:30.515625,-7.91
12:50:30.531250,-8.11
12:50:30.546875,-8.27
12:50:30.562500,-8.28
12:50:30.578125,-7.99
12:50:30.593750,-7.31
12:50:30.609375,-6.20
12:50:30.625000,-4.76
12:50:30.640625,-3.15
12:50:30.656250,-1.52
12:50:30.671875,-0.00
12:50:30.687500,1.35
12:50:30.703125,2.50
12:50:30.718750,3.42
12:50:30.734375,4.09
12:50:30.750000,4.52
12:50:30.765625,4.79
12:50:30.781250,4.97
12:50:30.796875,5.14
12:50:30.812500,5.34
12:50:30.828125,5.55
12:50:30.843750,5.70
12:50:30.859375,5.76
12:50:30.875000,5.76
12:50:30.890625,5.74
12:50:30.906250,5.77
12:50:30.921875,5.84
12:50:30.937500,5.88
12:50:30.953125,5.76
12:50:30.968750,5.39
12:50:30.984375,4.76
12:50:31,3.99
12:50:31.015625,3.29
12:50:31.031250,2.81
12:50:31.046875,2.63
12:50:31.062500,2.65
12:50:31.078125,2.67
12:50:31.093750,2.49
12:50:31.109375,2.02
12:50:31.125000,1.33
12:50:31.140625,0.57
12:50:31.156250,-0.07
12:50:31.171875,-0.52
12:50:31.187500,-0.80
12:50:31.203125,-1.04
12:50:31.218750,-1.40
12:50:31.234375,-1.98
12:50:31.250000,-2.81
12:50:31.265625,-3.86
12:50:31.281250,-5.00
12:50:31.296875,-6.08
12:50:31.312500,-6.94
12:50:31.328125,-7.42
12:50:31.343750,-7.46
12:50:31.359375,-7.03
12:50:31.375000,-6.20
12:50:31.390625,-5.08
12:50:31.406250,-3.81
12:50:31.421875,-2.50
12:50:31.437500,-1.26
12:50:31.453125,-0.18
12:50:31.468750,0.68
12:50:31.484375,1.32
12:50:31.500000,1.77
12:50:31.515625,2.12
12:50:31.531250,2.43
12:50:31.546875,2.72
12:50:31.562500,2.96
12:50:31.578125,3.03
12:50:31.593750,2.87
12:50:31.609375,2.48
12:50:31.625000,1.96
12:50:31.640625,1.50
12:50:31.656250,1.25
12:50:31.671875,1.25
12:50:31.687500,1.39
12:50:31.703125,1.53
12:50:31.718750,1.55
12:50:31.734375,1.45
12:50:31.750000,1.34
12:50:31.765625,1.34
12:50:31.781250,1.48
12:50:31.796875,1.70
12:50:31.812500,1.81
12:50:31.828125,1.68
12:50:31.843750,1.30
12:50:31.859375,0.77
12:50:31.875000,0.26
12:50:31.890625,-0.12
12:50:31.906250,-0.41
12:50:31.921875,-0.70
12:50:31.937500,-1.14
12:50:31.953125,-1.73
12:50:31.968750,-2.40
12:50:31.984375,-2.98
12:50:32,-3.36
12:50:32.015625,-3.56
12:50:32.031250,-3.71
12:50:32.046875,-4.03
12:50:32.062500,-4.68
12:50:32.078125,-5.65
12:50:32.093750,-6.74
12:50:32.109375,-7.62
12:50:32.125000,-7.98
12:50:32.140625,-7.62
12:50:32.156250,-6.60
12:50:32.171875,-5.15
12:50:32.187500,-3.57
12:50:32.203125,-2.13
12:50:32.218750,-0.98
12:50:32.234375,-0.12
12:50:32.250000,0.55
12:50:32.265625,1.19
12:50:32.281250,1.89
12:50:32.296875,2.74
12:50:32.312500,3.69
12:50:32.328125,4.64
12:50:32.343750,5.43
12:50:32.359375,5.94
12:50:32.375000,6.10
12:50:32.390625,5.94
12:50:32.406250,5.60
12:50:32.421875,5.23
12:50:32.437500,4.95
12:50:32.453125,4.82
12:50:32.468750,4.80
12:50:32.484375,4.86
12:50:32.500000,4.94
12:50:32.515625,5.00
12:50:32.531250,4.98
12:50:32.546875,4.82
12:50:32.562500,4.47
12:50:32.578125,3.95
12:50:32.593750,3.38
12:50:32.609375,2.92
12:50:32.625000,2.69
12:50:32.640625,2.66
12:50:32.656250,2.68
12:50:32.671875,2.52
12:50:32.687500,2.05
12:50:32.703125,1.29
12:50:32.718750,0.39
12:50:32.734375,-0.48
12:50:32.750000,-1.22
12:50:32.765625,-1.85
12:50:32.781250,-2.46
12:50:32.796875,-3.11
12:50:32.812500,-3.80
12:50:32.828125,-4.46
12:50:32.843750,-5.07
12:50:32.859375,-5.67
12:50:32.875000,-6.36
12:50:32.890625,-7.17
12:50:32.906250,-8.03
12:50:32.921875,-8.74
12:50:32.937500,-9.04
12:50:32.953125,-8.73
12:50:32.968750,-7.77
12:50:32.984375,-6.31
12:50:33,-4.59
12:50:33.015625,-2.89
12:50:33.031250,-1.44
12:50:33.046875,-0.34
12:50:33.062500,0.40
12:50:33.078125,0.86
12:50:33.093750,1.16
12:50:33.109375,1.44
12:50:33.125000,1.76
12:50:33.140625,2.16
12:50:33.156250,2.64
12:50:33.171875,3.15
12:50:33.187500,3.66
12:50:33.203125,4.10
12:50:33.218750,4.40
12:50:33.234375,4.52
12:50:33.250000,4.45
12:50:33.265625,4.25
12:50:33.281250,4.03
12:50:33.296875,3.91
12:50:33.312500,3.97
12:50:33.328125,4.15
12:50:33.343750,4.33
12:50:33.359375,4.34
12:50:33.375000,4.13
12:50:33.390625,3.71
12:50:33.406250,3.17
12:50:33.421875,2.57
12:50:33.437500,1.93
12:50:33.453125,1.23
12:50:33.468750,0.45
12:50:33.484375,-0.35
12:50:33.500000,-1.07
12:50:33.515625,-1.60
12:50:33.531250,-1.89
12:50:33.546875,-1.99
12:50:33.562500,-2.01
12:50:33.578125,-2.10
12:50:33.593750,-2.30
12:50:33.609375,-2.63
12:50:33.625000,-3.04
12:50:33.640625,-3.51
12:50:33.656250,-4.03
12:50:33.671875,-4.57
12:50:33.687500,-5.09
12:50:33.703125,-5.48
12:50:33.718750,-5.62
12:50:33.734375,-5.42
12:50:33.750000,-4.87
12:50:33.765625,-4.00
12:50:33.781250,-2.87
12:50:33.796875,-1.56
12:50:33.812500,-0.13
12:50:33.828125,1.34
12:50:33.843750,2.75
12:50:33.859375,4.02
12:50:33.875000,5.11
12:50:33.890625,6.01
12:50:33.906250,6.70
12:50:33.921875,7.16
12:50:33.937500,7.34
12:50:33.953125,7.21
12:50:33.968750,6.77
12:50:33.984375,6.12
12:50:34,5.44
12:50:34.015625,4.91
12:50:34.031250,4.61
12:50:34.046875,4.48
12:50:34.062500,4.42
12:50:34.078125,4.28
12:50:34.093750,4.05
12:50:34.109375,3.80
12:50:34.125000,3.64
12:50:34.140625,3.66
12:50:34.156250,3.82
12:50:34.171875,3.98
12:50:34.187500,3.94
12:50:34.203125,3.58
12:50:34.218750,2.95
12:50:34.234375,2.24
12:50:34.250000,1.77
12:50:34.265625,1.79
12:50:34.281250,2.35
12:50:34.296875,3.30
12:50:34.312500,4.36
12:50:34.328125,5.21
12:50:34.343750,5.67
12:50:34.359375,5.71
12:50:34.375000,5.41
12:50:34.390625,4.91
12:50:34.406250,4.33
12:50:34.421875,3.77
12:50:34.437500,3.34
12:50:34.453125,3.19
12:50:34.468750,3.42
12:50:34.484375,4.08
12:50:34.500000,5.08
12:50:34.515625,6.18
12:50:34.531250,7.09
12:50:34.546875,7.54
12:50:34.562500,7.30
12:50:34.578125,6.31
12:50:34.593750,4.59
12:50:34.609375,2.23
12:50:34.625000,-0.60
12:50:34.640625,-3.74
12:50:34.656250,-7.03
12:50:34.671875,-10.34
12:50:34.687500,-13.56
12:50:34.703125,-16.62
12:50:34.718750,-19.40
12:50:34.734375,-21.80
12:50:34.750000,-23.68
12:50:34.765625,-24.92
12:50:34.781250,-25.49
12:50:34.796875,-25.38
12:50:34.812500,-24.69
12:50:34.828125,-23.52
12:50:34.843750,-22.01
12:50:34.859375,-20.25
12:50:34.875000,-18.35
12:50:34.890625,-16.44
12:50:34.906250,-14.65
12:50:34.921875,-13.11
12:50:34.937500,-11.91
12:50:34.953125,-11.04
12:50:34.968750,-10.44
12:50:34.984375,-10.00
12:50:35,-9.61
12:50:35.015625,-9.22
12:50:35.031250,-8.79
12:50:35.046875,-8.28
12:50:35.062500,-7.66
12:50:35.078125,-6.86
12:50:35.093750,-5.80
12:50:35.109375,-4.49
12:50:35.125000,-2.99
12:50:35.140625,-1.45
12:50:35.156250,-0.06
12:50:35.171875,1.01
12:50:35.187500,1.68
12:50:35.203125,1.99
12:50:35.218750,2.10
12:50:35.234375,2.21
12:50:35.250000,2.52
12:50:35.265625,3.12
12:50:35.281250,3.98
12:50:35.296875,4.95
12:50:35.312500,5.86
12:50:35.328125,6.58
12:50:35.343750,7.06
12:50:35.359375,7.36
12:50:35.375000,7.53
12:50:35.390625,7.56
12:50:35.406250,7.37
12:50:35.421875,6.84
12:50:35.437500,5.94
12:50:35.453125,4.76
12:50:35.468750,3.55
12:50:35.484375,2.57
12:50:35.500000,2.03
12:50:35.515625,1.91
12:50:35.531250,2.04
12:50:35.546875,2.15
12:50:35.562500,1.98
12:50:35.578125,1.47
12:50:35.593750,0.66
12:50:35.609375,-0.27
12:50:35.625000,-1.16
12:50:35.640625,-1.92
12:50:35.656250,-2.50
12:50:35.671875,-2.92
12:50:35.687500,-3.17
12:50:35.703125,-3.25
12:50:35.718750,-3.15
12:50:35.734375,-2.87
12:50:35.750000,-2.46
12:50:35.765625,-1.96
12:50:35.781250,-1.43
12:50:35.796875,-0.93
12:50:35.812500,-0.54
12:50:35.828125,-0.31
12:50:35.843750,-0.26
12:50:35.859375,-0.40
12:50:35.875000,-0.66
12:50:35.890625,-0.99
12:50:35.906250,-1.32
12:50:35.921875,-1.66
12:50:35.937500,-1.99
12:50:35.953125,-2.26
12:50:35.968750,-2.35
12:50:35.984375,-2.10
12:50:36,-1.40
12:50:36.015625,-0.25
12:50:36.031250,1.17
12:50:36.046875,2.61
12:50:36.062500,3.79
12:50:36.078125,4.55
12:50:36.093750,4.92
12:50:36.109375,5.03
12:50:36.125000,5.08
12:50:36.140625,5.21
12:50:36.156250,5.48
12:50:36.171875,5.84
12:50:36.187500,6.19
12:50:36.203125,6.48
12:50:36.218750,6.69
12:50:36.234375,6.82
12:50:36.250000,6.94
12:50:36.265625,7.07
12:50:36.281250,7.21
12:50:36.296875,7.32
12:50:36.312500,7.31
12:50:36.328125,7.14
12:50:36.343750,6.76
12:50:36.359375,6.22
12:50:36.375000,5.64
12:50:36.390625,5.14
12:50:36.406250,4.83
12:50:36.421875,4.68
12:50:36.437500,4.57
12:50:36.453125,4.32
12:50:36.468750,3.81
12:50:36.484375,2.99
12:50:36.500000,1.93
12:50:36.515625,0.77
12:50:36.531250,-0.37
12:50:36.546875,-1.42
12:50:36.562500,-2.39
12:50:36.578125,-3.30
12:50:36.593750,-4.17
12:50:36.609375,-5.02
12:50:36.625000,-5.88
12:50:36.640625,-6.84
12:50:36.656250,-8.04
12:50:36.671875,-9.49
12:50:36.687500,-11.11
12:50:36.703125,-12.60
12:50:36.718750,-13.61
12:50:36.734375,-13.88
12:50:36.750000,-13.30
12:50:36.765625,-11.99
12:50:36.781250,-10.24
12:50:36.796875,-8.34
12:50:36.812500,-6.54
12:50:36.828125,-4.95
12:50:36.843750,-3.61
12:50:36.859375,-2.48
12:50:36.875000,-1.48
12:50:36.890625,-0.54
12:50:36.906250,0.45
12:50:36.921875,1.56
12:50:36.937500,2.79
12:50:36.953125,4.08
12:50:36.968750,5.32
12:50:36.984375,6.42
12:50:37,7.40
12:50:37.015625,8.30
12:50:37.031250,9.20
12:50:37.046875,10.09
12:50:37.062500,10.90
12:50:37.078125,11.54
12:50:37.093750,11.96
12:50:37.109375,12.25
12:50:37.125000,12.60
12:50:37.140625,13.19
12:50:37.156250,14.09
12:50:37.171875,15.21
12:50:37.187500,16.32
12:50:37.203125,17.12
12:50:37.218750,17.41
12:50:37.234375,17.12
12:50:37.250000,16.33
12:50:37.265625,15.15
12:50:37.281250,13.67
12:50:37.296875,11.94
12:50:37.312500,9.94
12:50:37.328125,7.69
12:50:37.343750,5.25
12:50:37.359375,2.77
12:50:37.375000,0.45
12:50:37.390625,-1.53
12:50:37.406250,-3.04
12:50:37.421875,-4.08
12:50:37.437500,-4.71
12:50:37.453125,-5.02
12:50:37.468750,-5.16
12:50:37.484375,-5.19
12:50:37.500000,-5.20
12:50:37.515625,-5.24
12:50:37.531250,-5.32
12:50:37.546875,-5.42
12:50:37.562500,-5.48
12:50:37.578125,-5.45
12:50:37.593750,-5.29
12:50:37.609375,-5.00
12:50:37.625000,-4.59
12:50:37.640625,-4.12
12:50:37.656250,-3.61
12:50:37.671875,-3.10
12:50:37.687500,-2.62
12:50:37.703125,-2.23
12:50:37.718750,-1.95
12:50:37.734375,-1.80
12:50:37.750000,-1.75
12:50:37.765625,-1.78
12:50:37.781250,-1.86
12:50:37.796875,-2.01
12:50:37.812500,-2.25
12:50:37.828125,-2.62
12:50:37.843750,-3.11
12:50:37.859375,-3.64
12:50:37.875000,-4.16
12:50:37.890625,-4.63
12:50:37.906250,-5.08
12:50:37.921875,-5.55
12:50:37.937500,-6.06
12:50:37.953125,-6.57
12:50:37.968750,-6.96
12:50:37.984375,-7.12
12:50:38,-6.97
12:50:38.015625,-6.51
12:50:38.031250,-5.82
12:50:38.046875,-5.01
12:50:38.062500,-4.15
12:50:38.078125,-3.32
12:50:38.093750,-2.60
12:50:38.109375,-2.09
12:50:38.125000,-1.92
12:50:38.140625,-2.16
12:50:38.156250,-2.73
12:50:38.171875,-3.38
12:50:38.187500,-3.73
12:50:38.203125,-3.46
12:50:38.218750,-2.42
12:50:38.234375,-0.74
12:50:38.250000,1.25
12:50:38.265625,3.13
12:50:38.281250,4.57
12:50:38.296875,5.45
12:50:38.312500,5.84
12:50:38.328125,5.94
12:50:38.343750,5.97
12:50:38.359375,6.13
12:50:38.375000,6.45
12:50:38.390625,6.86
12:50:38.406250,7.24
12:50:38.421875,7.44
12:50:38.437500,7.34
12:50:38.453125,6.93
12:50:38.468750,6.28
12:50:38.484375,5.54
12:50:38.500000,4.91
12:50:38.515625,4.55
12:50:38.531250,4.51
12:50:38.546875,4.79
12:50:38.562500,5.29
12:50:38.578125,5.91
12:50:38.593750,6.48
12:50:38.609375,6.88
12:50:38.625000,6.95
12:50:38.640625,6.59
12:50:38.656250,5.78
12:50:38.671875,4.67
12:50:38.687500,3.51
12:50:38.703125,2.66
12:50:38.718750,2.42
12:50:38.734375,2.91
12:50:38.750000,4.02
12:50:38.765625,5.41
12:50:38.781250,6.61
12:50:38.796875,7.19
12:50:38.812500,6.90
12:50:38.828125,5.70
12:50:38.843750,3.81
12:50:38.859375,1.57
12:50:38.875000,-0.66
12:50:38.890625,-2.61
12:50:38.906250,-4.19
12:50:38.921875,-5.44
12:50:38.937500,-6.47
12:50:38.953125,-7.37
12:50:38.968750,-8.07
12:50:38.984375,-8.47
12:50:39,-8.42
12:50:39.015625,-7.89
12:50:39.031250,-6.98
12:50:39.046875,-5.88
12:50:39.062500,-4.82
12:50:39.078125,-3.90
12:50:39.093750,-3.12
12:50:39.109375,-2.39
12:50:39.125000,-1.63
12:50:39.140625,-0.80
12:50:39.156250,0.03
12:50:39.171875,0.73
12:50:39.187500,1.24
12:50:39.203125,1.52
12:50:39.218750,1.60
12:50:39.234375,1.51
12:50:39.250000,1.24
12:50:39.265625,0.75
12:50:39.281250,0.03
12:50:39.296875,-0.88
12:50:39.312500,-1.85
12:50:39.328125,-2.75
12:50:39.343750,-3.42
12:50:39.359375,-3.81
12:50:39.375000,-3.94
12:50:39.390625,-3.86
12:50:39.406250,-3.64
12:50:39.421875,-3.29
12:50:39.437500,-2.80
12:50:39.453125,-2.21
12:50:39.468750,-1.56
12:50:39.484375,-0.96
12:50:39.500000,-0.52
12:50:39.515625,-0.27
12:50:39.531250,-0.17
12:50:39.546875,-0.15
12:50:39.562500,-0.15
12:50:39.578125,-0.12
12:50:39.593750,-0.10
12:50:39.609375,-0.14
12:50:39.625000,-0.31
12:50:39.640625,-0.68
12:50:39.656250,-1.30
12:50:39.671875,-2.15
12:50:39.687500,-3.13
12:50:39.703125,-4.08
12:50:39.718750,-4.79
12:50:39.734375,-5.10
12:50:39.750000,-4.92
12:50:39.765625,-4.32
12:50:39.781250,-3.40
12:50:39.796875,-2.30
12:50:39.812500,-1.12
12:50:39.828125,0.09
12:50:39.843750,1.29
12:50:39.859375,2.40
12:50:39.875000,3.32
12:50:39.890625,3.98
12:50:39.906250,4.35
12:50:39.921875,4.56
12:50:39.937500,4.74
12:50:39.953125,5.04
12:50:39.968750,5.51
12:50:39.984375,6.09
12:50:40,6.62
12:50:40.015625,6.97
12:50:40.031250,7.06
12:50:40.046875,6.87
12:50:40.062500,6.51
12:50:40.078125,6.09
12:50:40.093750,5.71
12:50:40.109375,5.39
12:50:40.125000,5.12
12:50:40.140625,4.82
12:50:40.156250,4.43
12:50:40.171875,3.92
12:50:40.187500,3.33
12:50:40.203125,2.71
12:50:40.218750,2.14
12:50:40.234375,1.65
12:50:40.250000,1.22
12:50:40.265625,0.78
12:50:40.281250,0.28
12:50:40.296875,-0.30
12:50:40.312500,-0.97
12:50:40.328125,-1.69
12:50:40.343750,-2.41
12:50:40.359375,-3.09
12:50:40.375000,-3.72
12:50:40.390625,-4.31
12:50:40.406250,-4.87
12:50:40.421875,-5.41
12:50:40.437500,-5.96
12:50:40.453125,-6.53
12:50:40.468750,-7.08
12:50:40.484375,-7.53
12:50:40.500000,-7.75
12:50:40.515625,-7.57
12:50:40.531250,-6.91
12:50:40.546875,-5.79
12:50:40.562500,-4.36
12:50:40.578125,-2.88
12:50:40.593750,-1.59
12:50:40.609375,-0.69
12:50:40.625000,-0.25
12:50:40.640625,-0.21
12:50:40.656250,-0.44
12:50:40.671875,-0.76
12:50:40.687500,-1.02
12:50:40.703125,-1.10
12:50:40.718750,-1.00
12:50:40.734375,-0.74
12:50:40.750000,-0.38
12:50:40.765625,0.05
12:50:40.781250,0.53
12:50:40.796875,1.08
12:50:40.812500,1.72
12:50:40.828125,2.43
12:50:40.843750,3.11
12:50:40.859375,3.63
12:50:40.875000,3.90
12:50:40.890625,3.90
12:50:40.906250,3.67
12:50:40.921875,3.34
12:50:40.937500,2.99
12:50:40.953125,2.64
12:50:40.968750,2.31
12:50:40.984375,1.95
12:50:41,1.56
12:50:41.015625,1.13
12:50:41.031250,0.64
12:50:41.046875,0.03
12:50:41.062500,-0.81
12:50:41.078125,-1.94
12:50:41.093750,-3.33
12:50:41.109375,-4.86
12:50:41.125000,-6.37
12:50:41.140625,-7.74
12:50:41.156250,-8.95
12:50:41.171875,-10.07
12:50:41.187500,-11.14
12:50:41.203125,-12.09
12:50:41.218750,-12.73
12:50:41.234375,-12.82
12:50:41.250000,-12.19
12:50:41.265625,-10.86
12:50:41.281250,-9.06
12:50:41.296875,-7.11
12:50:41.312500,-5.29
12:50:41.328125,-3.75
12:50:41.343750,-2.46
12:50:41.359375,-1.29
12:50:41.375000,-0.10
12:50:41.390625,1.15
12:50:41.406250,2.40
12:50:41.421875,3.53
12:50:41.437500,4.44
12:50:41.453125,5.11
12:50:41.468750,5.63
12:50:41.484375,6.10
12:50:41.500000,6.62
12:50:41.515625,7.21
12:50:41.531250,7.77
12:50:41.546875,8.18
12:50:41.562500,8.30
12:50:41.578125,8.07
12:50:41.593750,7.58
12:50:41.609375,7.00
12:50:41.625000,6.52
12:50:41.640625,6.29
12:50:41.656250,6.31
12:50:41.671875,6.46
12:50:41.687500,6.51
12:50:41.703125,6.29
12:50:41.718750,5.73
12:50:41.734375,4.87
12:50:41.750000,3.86
12:50:41.765625,2.82
12:50:41.781250,1.83
12:50:41.796875,0.94
12:50:41.812500,0.18
12:50:41.828125,-0.42
12:50:41.843750,-0.86
12:50:41.859375,-1.18
12:50:41.875000,-1.52
12:50:41.890625,-2.04
12:50:41.906250,-2.81
12:50:41.921875,-3.79
12:50:41.937500,-4.79
12:50:41.953125,-5.58
12:50:41.968750,-5.95
12:50:41.984375,-5.85
12:50:42,-5.34
12:50:42.015625,-4.54
12:50:42.031250,-3.63
12:50:42.046875,-2.75
12:50:42.062500,-2.01
12:50:42.078125,-1.48
12:50:42.093750,-1.11
12:50:42.109375,-0.85
12:50:42.125000,-0.60
12:50:42.140625,-0.27
12:50:42.156250,0.11
12:50:42.171875,0.50
12:50:42.187500,0.80
12:50:42.203125,0.98
12:50:42.218750,1.04
12:50:42.234375,1.03
12:50:42.250000,0.98
12:50:42.265625,0.88
12:50:42.281250,0.69
12:50:42.296875,0.38
12:50:42.312500,-0.00
12:50:42.328125,-0.35
12:50:42.343750,-0.53
12:50:42.359375,-0.49
12:50:42.375000,-0.27
12:50:42.390625,-0.03
12:50:42.406250,0.05
12:50:42.421875,-0.15
12:50:42.437500,-0.61
12:50:42.453125,-1.21
12:50:42.468750,-1.80
12:50:42.484375,-2.24
12:50:42.500000,-2.49
12:50:42.515625,-2.61
12:50:42.531250,-2.68
12:50:42.546875,-2.77
12:50:42.562500,-2.93
12:50:42.578125,-3.16
12:50:42.593750,-3.50
12:50:42.609375,-4.01
12:50:42.625000,-4.71
12:50:42.640625,-5.56
12:50:42.656250,-6.38
12:50:42.671875,-6.93
12:50:42.687500,-6.97
12:50:42.703125,-6.39
12:50:42.718750,-5.26
12:50:42.734375,-3.81
12:50:42.750000,-2.34
12:50:42.765625,-1.08
12:50:42.781250,-0.15
12:50:42.796875,0.50
12:50:42.812500,0.96
12:50:42.828125,1.30
12:50:42.843750,1.57
12:50:42.859375,1.71
12:50:42.875000,1.70
12:50:42.890625,1.57
12:50:42.906250,1.38
12:50:42.921875,1.23
12:50:42.937500,1.19
12:50:42.953125,1.27
12:50:42.968750,1.45
12:50:42.984375,1.69
12:50:43,1.95
12:50:43.015625,2.21
12:50:43.031250,2.42
12:50:43.046875,2.54
12:50:43.062500,2.49
12:50:43.078125,2.24
12:50:43.093750,1.83
12:50:43.109375,1.38
12:50:43.125000,1.02
12:50:43.140625,0.81
12:50:43.156250,0.72
12:50:43.171875,0.62
12:50:43.187500,0.36
12:50:43.203125,-0.16
12:50:43.218750,-0.91
12:50:43.234375,-1.80
12:50:43.250000,-2.71
12:50:43.265625,-3.60
12:50:43.281250,-4.48
12:50:43.296875,-5.40
12:50:43.312500,-6.36
12:50:43.328125,-7.23
12:50:43.343750,-7.86
12:50:43.359375,-8.07
12:50:43.375000,-7.82
12:50:43.390625,-7.16
12:50:43.406250,-6.22
12:50:43.421875,-5.11
12:50:43.437500,-3.91
12:50:43.453125,-2.64
12:50:43.468750,-1.31
12:50:43.484375,-0.00
12:50:43.500000,1.19
12:50:43.515625,2.14
12:50:43.531250,2.75
12:50:43.546875,3.02
12:50:43.562500,2.98
12:50:43.578125,2.77
12:50:43.593750,2.53
12:50:43.609375,2.39
12:50:43.625000,2.43
12:50:43.640625,2.67
12:50:43.656250,3.04
12:50:43.671875,3.42
12:50:43.687500,3.72
12:50:43.703125,3.86
12:50:43.718750,3.85
12:50:43.734375,3.75
12:50:43.750000,3.63
12:50:43.765625,3.53
12:50:43.781250,3.48
12:50:43.796875,3.48
12:50:43.812500,3.52
12:50:43.828125,3.57
12:50:43.843750,3.58
12:50:43.859375,3.47
12:50:43.875000,3.16
12:50:43.890625,2.62
12:50:43.906250,1.86
12:50:43.921875,0.97
12:50:43.937500,0.08
12:50:43.953125,-0.70
12:50:43.968750,-1.37
12:50:43.984375,-1.97
12:50:44,-2.61
12:50:44.015625,-3.37
12:50:44.031250,-4.23
12:50:44.046875,-5.11
12:50:44.062500,-5.84
12:50:44.078125,-6.25
12:50:44.093750,-6.22
12:50:44.109375,-5.72
12:50:44.125000,-4.82
12:50:44.140625,-3.68
12:50:44.156250,-2.46
12:50:44.171875,-1.34
12:50:44.187500,-0.42
12:50:44.203125,0.27
12:50:44.218750,0.80
12:50:44.234375,1.26
12:50:44.250000,1.78
12:50:44.265625,2.36
12:50:44.281250,2.94
12:50:44.296875,3.40
12:50:44.312500,3.64
12:50:44.328125,3.62
12:50:44.343750,3.46
12:50:44.359375,3.29
12:50:44.375000,3.26
12:50:44.390625,3.41
12:50:44.406250,3.68
12:50:44.421875,3.95
12:50:44.437500,4.08
12:50:44.453125,4.02
12:50:44.468750,3.83
12:50:44.484375,3.60
12:50:44.500000,3.41
12:50:44.515625,3.26
12:50:44.531250,3.06
12:50:44.546875,2.65
12:50:44.562500,1.93
12:50:44.578125,0.92
12:50:44.593750,-0.26
12:50:44.609375,-1.37
12:50:44.625000,-2.21
12:50:44.640625,-2.70
12:50:44.656250,-2.90
12:50:44.671875,-2.98
12:50:44.687500,-3.13
12:50:44.703125,-3.47
12:50:44.718750,-4.04
12:50:44.734375,-4.78
12:50:44.750000,-5.62
12:50:44.765625,-6.46
12:50:44.781250,-7.18
12:50:44.796875,-7.65
12:50:44.812500,-7.76
12:50:44.828125,-7.42
12:50:44.843750,-6.66
12:50:44.859375,-5.58
12:50:44.875000,-4.34
12:50:44.890625,-3.12
12:50:44.906250,-2.00
12:50:44.921875,-1.02
12:50:44.937500,-0.15
12:50:44.953125,0.63
12:50:44.968750,1.34
12:50:44.984375,2.00
12:50:45,2.65
12:50:45.015625,3.32
12:50:45.031250,4.01
12:50:45.046875,4.65
12:50:45.062500,5.13
12:50:45.078125,5.34
12:50:45.093750,5.22
12:50:45.109375,4.83
12:50:45.125000,4.33
12:50:45.140625,3.87
12:50:45.156250,3.58
12:50:45.171875,3.54
12:50:45.187500,3.71
12:50:45.203125,4.03
12:50:45.218750,4.41
12:50:45.234375,4.75
12:50:45.250000,4.92
12:50:45.265625,4.83
12:50:45.281250,4.42
12:50:45.296875,3.76
12:50:45.312500,2.95
12:50:45.328125,2.18
12:50:45.343750,1.58
12:50:45.359375,1.15
12:50:45.375000,0.81
12:50:45.390625,0.41
12:50:45.406250,-0.14
12:50:45.421875,-0.81
12:50:45.437500,-1.49
12:50:45.453125,-2.08
12:50:45.468750,-2.58
12:50:45.484375,-3.06
12:50:45.500000,-3.62
12:50:45.515625,-4.29
12:50:45.531250,-4.98
12:50:45.546875,-5.51
12:50:45.562500,-5.72
12:50:45.578125,-5.54
12:50:45.593750,-5.06
12:50:45.609375,-4.43
12:50:45.625000,-3.79
12:50:45.640625,-3.16
12:50:45.656250,-2.47
12:50:45.671875,-1.62
12:50:45.687500,-0.56
12:50:45.703125,0.64
12:50:45.718750,1.85
12:50:45.734375,2.87
12:50:45.750000,3.61
12:50:45.765625,4.06
12:50:45.781250,4.30
12:50:45.796875,4.49
12:50:45.812500,4.70
12:50:45.828125,4.96
12:50:45.843750,5.22
12:50:45.859375,5.38
12:50:45.875000,5.38
12:50:45.890625,5.22
12:50:45.906250,4.99
12:50:45.921875,4.79
12:50:45.937500,4.67
12:50:45.953125,4.65
12:50:45.968750,4.64
12:50:45.984375,4.53
12:50:46,4.27
12:50:46.015625,3.83
12:50:46.031250,3.30
12:50:46.046875,2.77
12:50:46.062500,2.31
12:50:46.078125,1.91
12:50:46.093750,1.52
12:50:46.109375,1.07
12:50:46.125000,0.56
12:50:46.140625,0.02
12:50:46.156250,-0.46
12:50:46.171875,-0.78
12:50:46.187500,-0.95
12:50:46.203125,-1.05
12:50:46.218750,-1.18
12:50:46.234375,-1.45
12:50:46.250000,-1.92
12:50:46.265625,-2.57
12:50:46.281250,-3.37
12:50:46.296875,-4.26
12:50:46.312500,-5.18
12:50:46.328125,-6.04
12:50:46.343750,-6.73
12:50:46.359375,-7.08
12:50:46.375000,-6.98
12:50:46.390625,-6.35
12:50:46.406250,-5.23
12:50:46.421875,-3.72
12:50:46.437500,-2.03
12:50:46.453125,-0.37
12:50:46.468750,1.04
12:50:46.484375,2.11
12:50:46.500000,2.82
12:50:46.515625,3.25
12:50:46.531250,3.52
12:50:46.546875,3.74
12:50:46.562500,3.96
12:50:46.578125,4.18
12:50:46.593750,4.34
12:50:46.609375,4.42
12:50:46.625000,4.44
12:50:46.640625,4.42
12:50:46.656250,4.40
12:50:46.671875,4.38
12:50:46.687500,4.34
12:50:46.703125,4.24
12:50:46.718750,4.08
12:50:46.734375,3.92
12:50:46.750000,3.84
12:50:46.765625,3.88
12:50:46.781250,4.01
12:50:46.796875,4.15
12:50:46.812500,4.19
12:50:46.828125,4.03
12:50:46.843750,3.65
12:50:46.859375,3.09
12:50:46.875000,2.42
12:50:46.890625,1.72
12:50:46.906250,1.02
12:50:46.921875,0.37
12:50:46.937500,-0.23
12:50:46.953125,-0.74
12:50:46.968750,-1.18
12:50:46.984375,-1.57
12:50:47,-1.96
12:50:47.015625,-2.43
12:50:47.031250,-2.98
12:50:47.046875,-3.61
12:50:47.062500,-4.30
12:50:47.078125,-5.01
12:50:47.093750,-5.75
12:50:47.109375,-6.52
12:50:47.125000,-7.27
12:50:47.140625,-7.92
12:50:47.156250,-8.32
12:50:47.171875,-8.29
12:50:47.187500,-7.74
12:50:47.203125,-6.66
12:50:47.218750,-5.15
12:50:47.234375,-3.41
12:50:47.250000,-1.66
12:50:47.265625,-0.16
12:50:47.281250,0.93
12:50:47.296875,1.50
12:50:47.312500,1.64
12:50:47.328125,1.51
12:50:47.343750,1.38
12:50:47.359375,1.46
12:50:47.375000,1.84
12:50:47.390625,2.45
12:50:47.406250,3.10
12:50:47.421875,3.60
12:50:47.437500,3.83
12:50:47.453125,3.79
12:50:47.468750,3.57
12:50:47.484375,3.29
12:50:47.500000,3.01
12:50:47.515625,2.77
12:50:47.531250,2.58
12:50:47.546875,2.44
12:50:47.562500,2.35
12:50:47.578125,2.29
12:50:47.593750,2.21
12:50:47.609375,2.01
12:50:47.625000,1.63
12:50:47.640625,1.03
12:50:47.656250,0.27
12:50:47.671875,-0.52
12:50:47.687500,-1.23
12:50:47.703125,-1.80
12:50:47.718750,-2.30
12:50:47.734375,-2.80
12:50:47.750000,-3.38
12:50:47.765625,-4.06
12:50:47.781250,-4.78
12:50:47.796875,-5.45
12:50:47.812500,-6.01
12:50:47.828125,-6.50
12:50:47.843750,-7.03
12:50:47.859375,-7.66
12:50:47.875000,-8.42
12:50:47.890625,-9.20
12:50:47.906250,-9.83
12:50:47.921875,-10.16
12:50:47.937500,-10.12
12:50:47.953125,-9.73
12:50:47.968750,-9.06
12:50:47.984375,-8.17
12:50:48,-7.06
12:50:48.015625,-5.68
12:50:48.031250,-3.97
12:50:48.046875,-1.96
12:50:48.062500,0.23
12:50:48.078125,2.36
12:50:48.093750,4.23
12:50:48.109375,5.68
12:50:48.125000,6.69
12:50:48.140625,7.33
12:50:48.156250,7.66
12:50:48.171875,7.74
12:50:48.187500,7.61
12:50:48.203125,7.35
12:50:48.218750,7.08
12:50:48.234375,6.94
12:50:48.250000,7.07
12:50:48.265625,7.45
12:50:48.281250,7.92
12:50:48.296875,8.27
12:50:48.312500,8.29
12:50:48.328125,7.92
12:50:48.343750,7.26
12:50:48.359375,6.52
12:50:48.375000,5.92
12:50:48.390625,5.54
12:50:48.406250,5.35
12:50:48.421875,5.18
12:50:48.437500,4.87
12:50:48.453125,4.29
12:50:48.468750,3.43
12:50:48.484375,2.42
12:50:48.500000,1.45
12:50:48.515625,0.64
12:50:48.531250,0.06
12:50:48.546875,-0.38
12:50:48.562500,-0.83
12:50:48.578125,-1.42
12:50:48.593750,-2.20
12:50:48.609375,-3.08
12:50:48.625000,-3.95
12:50:48.640625,-4.74
12:50:48.656250,-5.41
12:50:48.671875,-6.01
12:50:48.687500,-6.53
12:50:48.703125,-6.91
12:50:48.718750,-7.02
12:50:48.734375,-6.73
12:50:48.750000,-6.02
12:50:48.765625,-5.00
12:50:48.781250,-3.87
12:50:48.796875,-2.85
12:50:48.812500,-2.05
12:50:48.828125,-1.43
12:50:48.843750,-0.88
12:50:48.859375,-0.26
12:50:48.875000,0.46
12:50:48.890625,1.24
12:50:48.906250,1.94
12:50:48.921875,2.44
12:50:48.937500,2.66
12:50:48.953125,2.64
12:50:48.968750,2.49
12:50:48.984375,2.37
12:50:49,2.39
12:50:49.015625,2.60
12:50:49.031250,2.95
12:50:49.046875,3.34
12:50:49.062500,3.68
12:50:49.078125,3.93
12:50:49.093750,4.07
12:50:49.109375,4.14
12:50:49.125000,4.16
12:50:49.140625,4.14
12:50:49.156250,4.04
12:50:49.171875,3.81
12:50:49.187500,3.45
12:50:49.203125,2.97
12:50:49.218750,2.45
12:50:49.234375,1.99
12:50:49.250000,1.63
12:50:49.265625,1.35
12:50:49.281250,1.08
12:50:49.296875,0.69
12:50:49.312500,0.11
12:50:49.328125,-0.65
12:50:49.343750,-1.50
12:50:49.359375,-2.33
12:50:49.375000,-3.07
12:50:49.390625,-3.73
12:50:49.406250,-4.38
12:50:49.421875,-5.11
12:50:49.437500,-5.93
12:50:49.453125,-6.73
12:50:49.468750,-7.33
12:50:49.484375,-7.54
12:50:49.500000,-7.28
12:50:49.515625,-6.60
12:50:49.531250,-5.66
12:50:49.546875,-4.68
12:50:49.562500,-3.81
12:50:49.578125,-3.10
12:50:49.593750,-2.49
12:50:49.609375,-1.84
12:50:49.625000,-1.07
12:50:49.640625,-0.15
12:50:49.656250,0.82
12:50:49.671875,1.71
12:50:49.687500,2.38
12:50:49.703125,2.80
12:50:49.718750,3.03
12:50:49.734375,3.14
12:50:49.750000,3.25
12:50:49.765625,3.39
12:50:49.781250,3.56
12:50:49.796875,3.70
12:50:49.812500,3.83
12:50:49.828125,3.94
12:50:49.843750,4.05
12:50:49.859375,4.17
12:50:49.875000,4.24
12:50:49.890625,4.19
12:50:49.906250,3.98
12:50:49.921875,3.63
12:50:49.937500,3.24
12:50:49.953125,2.91
12:50:49.968750,2.67
12:50:49.984375,2.48
12:50:50,2.20
12:50:50.015625,1.73
12:50:50.031250,1.06
12:50:50.046875,0.24
12:50:50.062500,-0.58
12:50:50.078125,-1.30
12:50:50.093750,-1.86
12:50:50.109375,-2.30
12:50:50.125000,-2.70
12:50:50.140625,-3.13
12:50:50.156250,-3.65
12:50:50.171875,-4.24
12:50:50.187500,-4.88
12:50:50.203125,-5.55
12:50:50.218750,-6.21
12:50:50.234375,-6.82
12:50:50.250000,-7.29
12:50:50.265625,-7.49
12:50:50.281250,-7.32
12:50:50.296875,-6.71
12:50:50.312500,-5.72
12:50:50.328125,-4.49
12:50:50.343750,-3.18
12:50:50.359375,-1.95
12:50:50.375000,-0.89
12:50:50.390625,0.01
12:50:50.406250,0.77
12:50:50.421875,1.42
12:50:50.437500,1.99
12:50:50.453125,2.45
12:50:50.468750,2.82
12:50:50.484375,3.12
12:50:50.500000,3.35
12:50:50.515625,3.54
12:50:50.531250,3.67
12:50:50.546875,3.73
12:50:50.562500,3.73
12:50:50.578125,3.71
12:50:50.593750,3.72
12:50:50.609375,3.79
12:50:50.625000,3.90
12:50:50.640625,3.99
12:50:50.656250,3.99
12:50:50.671875,3.87
12:50:50.687500,3.65
12:50:50.703125,3.41
12:50:50.718750,3.24
12:50:50.734375,3.18
12:50:50.750000,3.20
12:50:50.765625,3.22
12:50:50.781250,3.08
12:50:50.796875,2.68
12:50:50.812500,2.00
12:50:50.828125,1.10
12:50:50.843750,0.12
12:50:50.859375,-0.81
12:50:50.875000,-1.64
12:50:50.890625,-2.38
12:50:50.906250,-3.12
12:50:50.921875,-3.91
12:50:50.937500,-4.78
12:50:50.953125,-5.64
12:50:50.968750,-6.37
12:50:50.984375,-6.90
12:50:51,-7.22
12:50:51.015625,-7.38
12:50:51.031250,-7.47
12:50:51.046875,-7.51
12:50:51.062500,-7.46
12:50:51.078125,-7.19
12:50:51.093750,-6.58
12:50:51.109375,-5.61
12:50:51.125000,-4.36
12:50:51.140625,-2.99
12:50:51.156250,-1.69
12:50:51.171875,-0.59
12:50:51.187500,0.27
12:50:51.203125,0.94
12:50:51.218750,1.50
12:50:51.234375,2.00
12:50:51.250000,2.43
12:50:51.265625,2.77
12:50:51.281250,3.00
12:50:51.296875,3.15
12:50:51.312500,3.29
12:50:51.328125,3.49
12:50:51.343750,3.77
12:50:51.359375,4.10
12:50:51.375000,4.40
12:50:51.390625,4.61
12:50:51.406250,4.74
12:50:51.421875,4.80
12:50:51.437500,4.84
12:50:51.453125,4.81
12:50:51.468750,4.67
12:50:51.484375,4.36
12:50:51.500000,3.90
12:50:51.515625,3.39
12:50:51.531250,2.91
12:50:51.546875,2.50
12:50:51.562500,2.11
12:50:51.578125,1.62
12:50:51.593750,0.96
12:50:51.609375,0.18
12:50:51.625000,-0.60
12:50:51.640625,-1.24
12:50:51.656250,-1.69
12:50:51.671875,-2.00
12:50:51.687500,-2.32
12:50:51.703125,-2.79
12:50:51.718750,-3.47
12:50:51.734375,-4.32
12:50:51.750000,-5.26
12:50:51.765625,-6.16
12:50:51.781250,-6.95
12:50:51.796875,-7.54
12:50:51.812500,-7.85
12:50:51.828125,-7.84
12:50:51.843750,-7.47
12:50:51.859375,-6.76
12:50:51.875000,-5.74
12:50:51.890625,-4.53
12:50:51.906250,-3.24
12:50:51.921875,-2.00
12:50:51.937500,-0.94
12:50:51.953125,-0.09
12:50:51.968750,0.56
12:50:51.984375,1.11
12:50:52,1.65
12:50:52.015625,2.25
12:50:52.031250,2.88
12:50:52.046875,3.46
12:50:52.062500,3.90
12:50:52.078125,4.18
12:50:52.093750,4.33
12:50:52.109375,4.44
12:50:52.125000,4.58
12:50:52.140625,4.75
12:50:52.156250,4.92
12:50:52.171875,5.03
12:50:52.187500,5.07
12:50:52.203125,5.06
12:50:52.218750,5.03
12:50:52.234375,4.93
12:50:52.250000,4.71
12:50:52.265625,4.30
12:50:52.281250,3.68
12:50:52.296875,2.98
12:50:52.312500,2.33
12:50:52.328125,1.92
12:50:52.343750,1.79
12:50:52.359375,1.86
12:50:52.375000,1.96
12:50:52.390625,1.88
12:50:52.406250,1.50
12:50:52.421875,0.80
12:50:52.437500,-0.14
12:50:52.453125,-1.17
12:50:52.468750,-2.15
12:50:52.484375,-3.02
12:50:52.500000,-3.77
12:50:52.515625,-4.45
12:50:52.531250,-5.12
12:50:52.546875,-5.83
12:50:52.562500,-6.57
12:50:52.578125,-7.29
12:50:52.593750,-7.85
12:50:52.609375,-8.12
12:50:52.625000,-8.02
12:50:52.640625,-7.51
12:50:52.656250,-6.67
12:50:52.671875,-5.60
12:50:52.687500,-4.42
12:50:52.703125,-3.25
12:50:52.718750,-2.15
12:50:52.734375,-1.20
12:50:52.750000,-0.42
12:50:52.765625,0.21
12:50:52.781250,0.75
12:50:52.796875,1.27
12:50:52.812500,1.83
12:50:52.828125,2.46
12:50:52.843750,3.11
12:50:52.859375,3.68
12:50:52.875000,4.09
12:50:52.890625,4.31
12:50:52.906250,4.36
12:50:52.921875,4.29
12:50:52.937500,4.18
12:50:52.953125,4.08
12:50:52.968750,4.03
12:50:52.984375,4.03
12:50:53,4.07
12:50:53.015625,4.14
12:50:53.031250,4.24
12:50:53.046875,4.34
12:50:53.062500,4.42
12:50:53.078125,4.44
12:50:53.093750,4.34
12:50:53.109375,4.07
12:50:53.125000,3.59
12:50:53.140625,2.90
12:50:53.156250,2.05
12:50:53.171875,1.11
12:50:53.187500,0.17
12:50:53.203125,-0.69
12:50:53.218750,-1.40
12:50:53.234375,-1.95
12:50:53.250000,-2.36
12:50:53.265625,-2.68
12:50:53.281250,-2.99
12:50:53.296875,-3.35
12:50:53.312500,-3.83
12:50:53.328125,-4.40
12:50:53.343750,-5.04
12:50:53.359375,-5.71
12:50:53.375000,-6.37
12:50:53.390625,-7.00
12:50:53.406250,-7.55
12:50:53.421875,-7.91
12:50:53.437500,-7.96
12:50:53.453125,-7.56
12:50:53.468750,-6.69
12:50:53.484375,-5.48
12:50:53.500000,-4.16
12:50:53.515625,-2.96
12:50:53.531250,-2.04
12:50:53.546875,-1.40
12:50:53.562500,-0.95
12:50:53.578125,-0.56
12:50:53.593750,-0.17
12:50:53.609375,0.19
12:50:53.625000,0.46
12:50:53.640625,0.57
12:50:53.656250,0.52
12:50:53.671875,0.36
12:50:53.687500,0.18
12:50:53.703125,0.03
12:50:53.718750,-0.08
12:50:53.734375,-0.17
12:50:53.750000,-0.24
12:50:53.765625,-0.30
12:50:53.781250,-0.32
12:50:53.796875,-0.25
12:50:53.812500,-0.04
12:50:53.828125,0.34
12:50:53.843750,0.89
12:50:53.859375,1.58
12:50:53.875000,2.39
12:50:53.890625,3.28
12:50:53.906250,4.22
12:50:53.921875,5.16
12:50:53.937500,6.01
12:50:53.953125,6.63
12:50:53.968750,6.90
12:50:53.984375,6.72
12:50:54,6.08
12:50:54.015625,5.09
12:50:54.031250,3.92
12:50:54.046875,2.77
12:50:54.062500,1.80
12:50:54.078125,1.08
12:50:54.093750,0.57
12:50:54.109375,0.17
12:50:54.125000,-0.24
12:50:54.140625,-0.73
12:50:54.156250,-1.31
12:50:54.171875,-1.91
12:50:54.187500,-2.45
12:50:54.203125,-2.86
12:50:54.218750,-3.16
12:50:54.234375,-3.39
12:50:54.250000,-3.59
12:50:54.265625,-3.75
12:50:54.281250,-3.77
12:50:54.296875,-3.54
12:50:54.312500,-2.98
12:50:54.328125,-2.13
12:50:54.343750,-1.13
12:50:54.359375,-0.15
12:50:54.375000,0.68
12:50:54.390625,1.34
12:50:54.406250,1.94
12:50:54.421875,2.59
12:50:54.437500,3.35
12:50:54.453125,4.17
12:50:54.468750,4.89
12:50:54.484375,5.33
12:50:54.500000,5.40
12:50:54.515625,5.12
12:50:54.531250,4.63
12:50:54.546875,4.10
12:50:54.562500,3.65
12:50:54.578125,3.33
12:50:54.593750,3.14
12:50:54.609375,3.02
12:50:54.625000,2.97
12:50:54.640625,2.99
12:50:54.656250,3.11
12:50:54.671875,3.31
12:50:54.687500,3.54
12:50:54.703125,3.70
12:50:54.718750,3.69
12:50:54.734375,3.47
12:50:54.750000,3.05
12:50:54.765625,2.50
12:50:54.781250,1.89
12:50:54.796875,1.27
12:50:54.812500,0.62
12:50:54.828125,-0.08
12:50:54.843750,-0.87
12:50:54.859375,-1.69
12:50:54.875000,-2.46
12:50:54.890625,-3.10
12:50:54.906250,-3.61
12:50:54.921875,-4.03
12:50:54.937500,-4.50
12:50:54.953125,-5.11
12:50:54.968750,-5.84
12:50:54.984375,-6.60
12:50:55,-7.26
12:50:55.015625,-7.71
12:50:55.031250,-7.89
12:50:55.046875,-7.82
12:50:55.062500,-7.55
12:50:55.078125,-7.05
12:50:55.093750,-6.32
12:50:55.109375,-5.36
12:50:55.125000,-4.24
12:50:55.140625,-3.10
12:50:55.156250,-2.08
12:50:55.171875,-1.28
12:50:55.187500,-0.66
12:50:55.203125,-0.10
12:50:55.218750,0.52
12:50:55.234375,1.23
12:50:55.250000,1.99
12:50:55.265625,2.62
12:50:55.281250,3.02
12:50:55.296875,3.15
12:50:55.312500,3.14
12:50:55.328125,3.22
12:50:55.343750,3.57
12:50:55.359375,4.25
12:50:55.375000,5.14
12:50:55.390625,5.99
12:50:55.406250,6.58
12:50:55.421875,6.81
12:50:55.437500,6.72
12:50:55.453125,6.46
12:50:55.468750,6.14
12:50:55.484375,5.81
12:50:55.500000,5.44
12:50:55.515625,4.96
12:50:55.531250,4.39
12:50:55.546875,3.79
12:50:55.562500,3.27
12:50:55.578125,2.92
12:50:55.593750,2.70
12:50:55.609375,2.52
12:50:55.625000,2.25
12:50:55.640625,1.80
12:50:55.656250,1.19
12:50:55.671875,0.48
12:50:55.687500,-0.24
12:50:55.703125,-0.93
12:50:55.718750,-1.60
12:50:55.734375,-2.30
12:50:55.750000,-3.05
12:50:55.765625,-3.87
12:50:55.781250,-4.73
12:50:55.796875,-5.59
12:50:55.812500,-6.40
12:50:55.828125,-7.10
12:50:55.843750,-7.64
12:50:55.859375,-7.93
12:50:55.875000,-7.91
12:50:55.890625,-7.55
12:50:55.906250,-6.87
12:50:55.921875,-5.94
12:50:55.937500,-4.83
12:50:55.953125,-3.59
12:50:55.968750,-2.28
12:50:55.984375,-0.99
12:50:56,0.15
12:50:56.015625,1.01
12:50:56.031250,1.51
12:50:56.046875,1.67
12:50:56.062500,1.61
12:50:56.078125,1.48
12:50:56.093750,1.42
12:50:56.109375,1.48
12:50:56.125000,1.66
12:50:56.140625,1.93
12:50:56.156250,2.27
12:50:56.171875,2.67
12:50:56.187500,3.09
12:50:56.203125,3.46
12:50:56.218750,3.72
12:50:56.234375,3.77
12:50:56.250000,3.65
12:50:56.265625,3.42
12:50:56.281250,3.17
12:50:56.296875,2.98
12:50:56.312500,2.86
12:50:56.328125,2.79
12:50:56.343750,2.70
12:50:56.359375,2.55
12:50:56.375000,2.30
12:50:56.390625,1.96
12:50:56.406250,1.52
12:50:56.421875,1.01
12:50:56.437500,0.45
12:50:56.453125,-0.12
12:50:56.468750,-0.67
12:50:56.484375,-1.16
12:50:56.500000,-1.54
12:50:56.515625,-1.82
12:50:56.531250,-2.05
12:50:56.546875,-2.36
12:50:56.562500,-2.85
12:50:56.578125,-3.58
12:50:56.593750,-4.51
12:50:56.609375,-5.51
12:50:56.625000,-6.42
12:50:56.640625,-7.10
12:50:56.656250,-7.50
12:50:56.671875,-7.61
12:50:56.687500,-7.47
12:50:56.703125,-7.11
12:50:56.718750,-6.50
12:50:56.734375,-5.66
12:50:56.750000,-4.59
12:50:56.765625,-3.34
12:50:56.781250,-1.98
12:50:56.796875,-0.61
12:50:56.812500,0.69
12:50:56.828125,1.83
12:50:56.843750,2.71
12:50:56.859375,3.26
12:50:56.875000,3.42
12:50:56.890625,3.18
12:50:56.906250,2.65
12:50:56.921875,1.99
12:50:56.937500,1.40
12:50:56.953125,1.12
12:50:56.968750,1.29
12:50:56.984375,1.96
12:50:57,3.02
12:50:57.015625,4.25
12:50:57.031250,5.40
12:50:57.046875,6.24
12:50:57.062500,6.70
12:50:57.078125,6.82
12:50:57.093750,6.72
12:50:57.109375,6.53
12:50:57.125000,6.33
12:50:57.140625,6.15
12:50:57.156250,6.00
12:50:57.171875,5.88
12:50:57.187500,5.85
12:50:57.203125,5.88
12:50:57.218750,5.90
12:50:57.234375,5.80
12:50:57.250000,5.47
12:50:57.265625,4.86
12:50:57.281250,4.04
12:50:57.296875,3.16
12:50:57.312500,2.33
12:50:57.328125,1.59
12:50:57.343750,0.87
12:50:57.359375,0.06
12:50:57.375000,-0.90
12:50:57.390625,-2.01
12:50:57.406250,-3.15
12:50:57.421875,-4.17
12:50:57.437500,-4.96
12:50:57.453125,-5.44
12:50:57.468750,-5.60
12:50:57.484375,-5.39
12:50:57.500000,-4.80
12:50:57.515625,-3.80
12:50:57.531250,-2.49
12:50:57.546875,-1.04
12:50:57.562500,0.31
12:50:57.578125,1.34
12:50:57.593750,1.98
12:50:57.609375,2.30
12:50:57.625000,2.48
12:50:57.640625,2.69
12:50:57.656250,2.99
12:50:57.671875,3.30
12:50:57.687500,3.48
12:50:57.703125,3.42
12:50:57.718750,3.15
12:50:57.734375,2.80
12:50:57.750000,2.55
12:50:57.765625,2.52
12:50:57.781250,2.72
12:50:57.796875,3.07
12:50:57.812500,3.44
12:50:57.828125,3.75
12:50:57.843750,3.96
12:50:57.859375,4.08
12:50:57.875000,4.12
12:50:57.890625,4.04
12:50:57.906250,3.82
12:50:57.921875,3.44
12:50:57.937500,2.94
12:50:57.953125,2.39
12:50:57.968750,1.89
12:50:57.984375,1.48
12:50:58,1.15
12:50:58.015625,0.88
12:50:58.031250,0.64
12:50:58.046875,0.46
12:50:58.062500,0.43
12:50:58.078125,0.63
12:50:58.093750,1.10
12:50:58.109375,1.83
12:50:58.125000,2.70
12:50:58.140625,3.57
12:50:58.156250,4.34
12:50:58.171875,4.96
12:50:58.187500,5.51
12:50:58.203125,6.11
12:50:58.218750,6.91
12:50:58.234375,7.97
12:50:58.250000,9.24
12:50:58.265625,10.59
12:50:58.281250,11.81
12:50:58.296875,12.70
12:50:58.312500,13.16
12:50:58.328125,13.18
12:50:58.343750,12.84
12:50:58.359375,12.21
12:50:58.375000,11.37
12:50:58.390625,10.33
12:50:58.406250,9.11
12:50:58.421875,7.71
12:50:58.437500,6.18
12:50:58.453125,4.49
12:50:58.468750,2.63
12:50:58.484375,0.51
12:50:58.500000,-1.89
12:50:58.515625,-4.50
12:50:58.531250,-7.18
12:50:58.546875,-9.72
12:50:58.562500,-11.94
12:50:58.578125,-13.78
12:50:58.593750,-15.33
12:50:58.609375,-16.74
12:50:58.625000,-18.16
12:50:58.640625,-19.66
12:50:58.656250,-21.15
12:50:58.671875,-22.50
12:50:58.687500,-23.55
12:50:58.703125,-24.23
12:50:58.718750,-24.52
12:50:58.734375,-24.48
12:50:58.750000,-24.25
12:50:58.765625,-23.98
12:50:58.781250,-23.85
12:50:58.796875,-24.01
12:50:58.812500,-24.52
12:50:58.828125,-25.28
12:50:58.843750,-26.07
12:50:58.859375,-26.56
12:50:58.875000,-26.39
12:50:58.890625,-25.31
12:50:58.906250,-23.22
12:50:58.921875,-20.23
12:50:58.937500,-16.67
12:50:58.953125,-13.01
12:50:58.968750,-9.77
12:50:58.984375,-7.40
12:50:59,-6.14
12:50:59.015625,-5.92
12:50:59.031250,-6.44
12:50:59.046875,-7.24
12:50:59.062500,-7.88
12:50:59.078125,-8.12
12:50:59.093750,-7.91
12:50:59.109375,-7.34
12:50:59.125000,-6.47
12:50:59.140625,-5.24
12:50:59.156250,-3.48
12:50:59.171875,-1.00
12:50:59.187500,2.20
12:50:59.203125,5.87
12:50:59.218750,9.53
12:50:59.234375,12.68
12:50:59.250000,14.92
12:50:59.265625,16.15
12:50:59.281250,16.49
12:50:59.296875,16.25
12:50:59.312500,15.76
12:50:59.328125,15.20
12:50:59.343750,14.60
12:50:59.359375,13.89
12:50:59.375000,12.93
12:50:59.390625,11.69
12:50:59.406250,10.18
12:50:59.421875,8.49
12:50:59.437500,6.70
12:50:59.453125,4.85
12:50:59.468750,2.90
12:50:59.484375,0.81
12:50:59.500000,-1.40
12:50:59.515625,-3.56
12:50:59.531250,-5.41
12:50:59.546875,-6.68
12:50:59.562500,-7.25
12:50:59.578125,-7.20
12:50:59.593750,-6.80
12:50:59.609375,-6.29
12:50:59.625000,-5.79
12:50:59.640625,-5.25
12:50:59.656250,-4.50
12:50:59.671875,-3.40
12:50:59.687500,-1.92
12:50:59.703125,-0.17
12:50:59.718750,1.66
12:50:59.734375,3.41
12:50:59.750000,4.99
12:50:59.765625,6.35
12:50:59.781250,7.47
12:50:59.796875,8.29
12:50:59.812500,8.82
12:50:59.828125,9.09
12:50:59.843750,9.20
12:50:59.859375,9.26
12:50:59.875000,9.32
12:50:59.890625,9.36
12:50:59.906250,9.29
12:50:59.921875,8.98
12:50:59.937500,8.34
12:50:59.953125,7.34
12:50:59.968750,6.03
12:50:59.984375,4.54
12:51:00,3.06
12:51:00.015625,1.81
12:51:00.031250,0.96
12:51:00.046875,0.62
12:51:00.062500,0.81
12:51:00.078125,1.42
12:51:00.093750,2.28
12:51:00.109375,3.21
12:51:00.125000,4.00
12:51:00.140625,4.50
12:51:00.156250,4.58
12:51:00.171875,4.19
12:51:00.187500,3.35
12:51:00.203125,2.19
12:51:00.218750,0.89
12:51:00.234375,-0.29
12:51:00.250000,-1.10
12:51:00.265625,-1.37
12:51:00.281250,-1.01
12:51:00.296875,-0.06
12:51:00.312500,1.32
12:51:00.328125,2.83
12:51:00.343750,4.17
12:51:00.359375,5.07
12:51:00.375000,5.42
12:51:00.390625,5.25
12:51:00.406250,4.76
12:51:00.421875,4.19
12:51:00.437500,3.70
12:51:00.453125,3.37
12:51:00.468750,3.15
12:51:00.484375,2.96
12:51:00.500000,2.68
12:51:00.515625,2.27
12:51:00.531250,1.75
12:51:00.546875,1.21
12:51:00.562500,0.75
12:51:00.578125,0.49
12:51:00.593750,0.51
12:51:00.609375,0.87
12:51:00.625000,1.54
12:51:00.640625,2.44
12:51:00.656250,3.42
12:51:00.671875,4.34
12:51:00.687500,5.06
12:51:00.703125,5.49
12:51:00.718750,5.60
12:51:00.734375,5.38
12:51:00.750000,4.86
12:51:00.765625,4.11
12:51:00.781250,3.20
12:51:00.796875,2.25
12:51:00.812500,1.31
12:51:00.828125,0.39
12:51:00.843750,-0.56
12:51:00.859375,-1.60
12:51:00.875000,-2.71
12:51:00.890625,-3.80
12:51:00.906250,-4.67
12:51:00.921875,-5.15
12:51:00.937500,-5.13
12:51:00.953125,-4.64
12:51:00.968750,-3.77
12:51:00.984375,-2.68
12:51:01,-1.47
12:51:01.015625,-0.27
12:51:01.031250,0.82
12:51:01.046875,1.67
12:51:01.062500,2.21
12:51:01.078125,2.45
12:51:01.093750,2.48
12:51:01.109375,2.46
12:51:01.125000,2.49
12:51:01.140625,2.59
12:51:01.156250,2.68
12:51:01.171875,2.67
12:51:01.187500,2.55
12:51:01.203125,2.36
12:51:01.218750,2.24
12:51:01.234375,2.31
12:51:01.250000,2.58
12:51:01.265625,2.96
12:51:01.281250,3.26
12:51:01.296875,3.33
12:51:01.312500,3.10
12:51:01.328125,2.65
12:51:01.343750,2.10
12:51:01.359375,1.60
12:51:01.375000,1.22
12:51:01.390625,0.97
12:51:01.406250,0.76
12:51:01.421875,0.51
12:51:01.437500,0.10
12:51:01.453125,-0.52
12:51:01.468750,-1.38
12:51:01.484375,-2.46
12:51:01.500000,-3.66
12:51:01.515625,-4.86
12:51:01.531250,-5.92
12:51:01.546875,-6.74
12:51:01.562500,-7.28
12:51:01.578125,-7.52
12:51:01.593750,-7.49
12:51:01.609375,-7.16
12:51:01.625000,-6.49
12:51:01.640625,-5.47
12:51:01.656250,-4.19
12:51:01.671875,-2.80
12:51:01.687500,-1.53
12:51:01.703125,-0.54
12:51:01.718750,0.10
12:51:01.734375,0.41
12:51:01.750000,0.52
12:51:01.765625,0.52
12:51:01.781250,0.46
12:51:01.796875,0.36
12:51:01.812500,0.19
12:51:01.828125,-0.06
12:51:01.843750,-0.35
12:51:01.859375,-0.63
12:51:01.875000,-0.84
12:51:01.890625,-0.97
12:51:01.906250,-1.01
12:51:01.921875,-1.01
12:51:01.937500,-0.97
12:51:01.953125,-0.86
12:51:01.968750,-0.62
12:51:01.984375,-0.17
12:51:02,0.54
12:51:02.015625,1.44
12:51:02.031250,2.41
12:51:02.046875,3.27
12:51:02.062500,3.84
12:51:02.078125,4.08
12:51:02.093750,4.03
12:51:02.109375,3.78
12:51:02.125000,3.43
12:51:02.140625,2.96
12:51:02.156250,2.30
12:51:02.171875,1.34
12:51:02.187500,0.08
12:51:02.203125,-1.37
12:51:02.218750,-2.78
12:51:02.234375,-3.90
12:51:02.250000,-4.58
12:51:02.265625,-4.75
12:51:02.281250,-4.48
12:51:02.296875,-3.88
12:51:02.312500,-3.05
12:51:02.328125,-2.08
12:51:02.343750,-1.00
12:51:02.359375,0.10
12:51:02.375000,1.17
12:51:02.390625,2.11
12:51:02.406250,2.91
12:51:02.421875,3.58
12:51:02.437500,4.17
12:51:02.453125,4.75
12:51:02.468750,5.32
12:51:02.484375,5.84
12:51:02.500000,6.25
12:51:02.515625,6.47
12:51:02.531250,6.48
12:51:02.546875,6.33
12:51:02.562500,6.09
12:51:02.578125,5.91
12:51:02.593750,5.86
12:51:02.609375,5.98
12:51:02.625000,6.23
12:51:02.640625,6.49
12:51:02.656250,6.61
12:51:02.671875,6.48
12:51:02.687500,6.04
12:51:02.703125,5.32
12:51:02.718750,4.38
12:51:02.734375,3.33
12:51:02.750000,2.24
12:51:02.765625,1.21
12:51:02.781250,0.26
12:51:02.796875,-0.57
12:51:02.812500,-1.32
12:51:02.828125,-2.01
12:51:02.843750,-2.68
12:51:02.859375,-3.33
12:51:02.875000,-3.97
12:51:02.890625,-4.56
12:51:02.906250,-5.08
12:51:02.921875,-5.49
12:51:02.937500,-5.81
12:51:02.953125,-5.99
12:51:02.968750,-6.00
12:51:02.984375,-5.77
12:51:03,-5.26
12:51:03.015625,-4.49
12:51:03.031250,-3.54
12:51:03.046875,-2.48
12:51:03.062500,-1.39
12:51:03.078125,-0.30
12:51:03.093750,0.79
12:51:03.109375,1.84
12:51:03.125000,2.79
12:51:03.140625,3.59
12:51:03.156250,4.23
12:51:03.171875,4.75
12:51:03.187500,5.19
12:51:03.203125,5.59
12:51:03.218750,5.92
12:51:03.234375,6.07
12:51:03.250000,5.97
12:51:03.265625,5.59
12:51:03.281250,5.00
12:51:03.296875,4.34
12:51:03.312500,3.73
12:51:03.328125,3.21
12:51:03.343750,2.73
12:51:03.359375,2.15
12:51:03.375000,1.36
12:51:03.390625,0.34
12:51:03.406250,-0.84
12:51:03.421875,-2.04
12:51:03.437500,-3.13
12:51:03.453125,-4.04
12:51:03.468750,-4.79
12:51:03.484375,-5.45
12:51:03.500000,-6.09
12:51:03.515625,-6.74
12:51:03.531250,-7.38
12:51:03.546875,-7.97
12:51:03.562500,-8.50
12:51:03.578125,-8.99
12:51:03.593750,-9.43
12:51:03.609375,-9.83
12:51:03.625000,-10.11
12:51:03.640625,-10.14
12:51:03.656250,-9.82
12:51:03.671875,-9.08
12:51:03.687500,-7.99
12:51:03.703125,-6.67
12:51:03.718750,-5.32
12:51:03.734375,-4.07
12:51:03.750000,-2.99
12:51:03.765625,-2.07
12:51:03.781250,-1.25
12:51:03.796875,-0.45
12:51:03.812500,0.40
12:51:03.828125,1.39
12:51:03.843750,2.64
12:51:03.859375,4.33
12:51:03.875000,6.61
12:51:03.890625,9.54
12:51:03.906250,12.97
12:51:03.921875,16.54
12:51:03.937500,19.76
12:51:03.953125,22.15
12:51:03.968750,23.34
12:51:03.984375,23.24
12:51:04,21.99
12:51:04.015625,19.91
12:51:04.031250,17.33
12:51:04.046875,14.58
12:51:04.062500,11.86
12:51:04.078125,9.33
12:51:04.093750,7.06
12:51:04.109375,5.09
12:51:04.125000,3.37
12:51:04.140625,1.79
12:51:04.156250,0.21
12:51:04.171875,-1.45
12:51:04.187500,-3.25
12:51:04.203125,-5.13
12:51:04.218750,-7.03
12:51:04.234375,-8.91
12:51:04.250000,-10.74
12:51:04.265625,-12.52
12:51:04.281250,-14.12
12:51:04.296875,-15.37
12:51:04.312500,-15.99
12:51:04.328125,-15.82
12:51:04.343750,-14.87
12:51:04.359375,-13.37
12:51:04.375000,-11.70
12:51:04.390625,-10.25
12:51:04.406250,-9.25
12:51:04.421875,-8.73
12:51:04.437500,-8.49
12:51:04.453125,-8.30
12:51:04.468750,-8.00
12:51:04.484375,-7.57
12:51:04.500000,-7.10
12:51:04.515625,-6.70
12:51:04.531250,-6.41
12:51:04.546875,-6.10
12:51:04.562500,-5.60
12:51:04.578125,-4.76
12:51:04.593750,-3.59
12:51:04.609375,-2.27
12:51:04.625000,-1.04
12:51:04.640625,-0.09
12:51:04.656250,0.54
12:51:04.671875,0.99
12:51:04.687500,1.45
12:51:04.703125,2.06
12:51:04.718750,2.82
12:51:04.734375,3.59
12:51:04.750000,4.24
12:51:04.765625,4.61
12:51:04.781250,4.65
12:51:04.796875,4.34
12:51:04.812500,3.69
12:51:04.828125,2.76
12:51:04.843750,1.68
12:51:04.859375,0.66
12:51:04.875000,-0.10
12:51:04.890625,-0.51
12:51:04.906250,-0.66
12:51:04.921875,-0.82
12:51:04.937500,-1.28
12:51:04.953125,-2.22
12:51:04.968750,-3.58
12:51:04.984375,-5.09
12:51:05,-6.35
12:51:05.015625,-7.08
12:51:05.031250,-7.15
12:51:05.046875,-6.68
12:51:05.062500,-5.89
12:51:05.078125,-5.03
12:51:05.093750,-4.23
12:51:05.109375,-3.49
12:51:05.125000,-2.74
12:51:05.140625,-1.90
12:51:05.156250,-0.97
12:51:05.171875,-0.04
12:51:05.187500,0.76
12:51:05.203125,1.35
12:51:05.218750,1.77
12:51:05.234375,2.11
12:51:05.250000,2.50
12:51:05.265625,2.99
12:51:05.281250,3.55
12:51:05.296875,4.04
12:51:05.312500,4.32
12:51:05.328125,4.34
12:51:05.343750,4.12
12:51:05.359375,3.80
12:51:05.375000,3.50
12:51:05.390625,3.33
12:51:05.406250,3.29
12:51:05.421875,3.34
12:51:05.437500,3.38
12:51:05.453125,3.33
12:51:05.468750,3.14
12:51:05.484375,2.82
12:51:05.500000,2.36
12:51:05.515625,1.79
12:51:05.531250,1.09
12:51:05.546875,0.27
12:51:05.562500,-0.66
12:51:05.578125,-1.63
12:51:05.593750,-2.57
12:51:05.609375,-3.38
12:51:05.625000,-3.98
12:51:05.640625,-4.39
12:51:05.656250,-4.64
12:51:05.671875,-4.86
12:51:05.687500,-5.17
12:51:05.703125,-5.60
12:51:05.718750,-6.11
12:51:05.734375,-6.55
12:51:05.750000,-6.77
12:51:05.765625,-6.64
12:51:05.781250,-6.21
12:51:05.796875,-5.58
12:51:05.812500,-4.90
12:51:05.828125,-4.26
12:51:05.843750,-3.62
12:51:05.859375,-2.89
12:51:05.875000,-2.00
12:51:05.890625,-0.95
12:51:05.906250,0.14
12:51:05.921875,1.14
12:51:05.937500,1.91
12:51:05.953125,2.40
12:51:05.968750,2.67
12:51:05.984375,2.83
12:51:06,3.00
12:51:06.015625,3.29
12:51:06.031250,3.74
12:51:06.046875,4.30
12:51:06.062500,4.84
12:51:06.078125,5.21
12:51:06.093750,5.28
12:51:06.109375,5.05
12:51:06.125000,4.63
12:51:06.140625,4.20
12:51:06.156250,3.90
12:51:06.171875,3.78
12:51:06.187500,3.80
12:51:06.203125,3.83
12:51:06.218750,3.79
12:51:06.234375,3.63
12:51:06.250000,3.38
12:51:06.265625,3.05
12:51:06.281250,2.62
12:51:06.296875,2.05
12:51:06.312500,1.28
12:51:06.328125,0.33
12:51:06.343750,-0.71
12:51:06.359375,-1.68
12:51:06.375000,-2.47
12:51:06.390625,-3.00
12:51:06.406250,-3.37
12:51:06.421875,-3.72
12:51:06.437500,-4.20
12:51:06.453125,-4.89
12:51:06.468750,-5.74
12:51:06.484375,-6.59
12:51:06.500000,-7.23
12:51:06.515625,-7.48
12:51:06.531250,-7.26
12:51:06.546875,-6.61
12:51:06.562500,-5.65
12:51:06.578125,-4.51
12:51:06.593750,-3.30
12:51:06.609375,-2.05
12:51:06.625000,-0.81
12:51:06.640625,0.37
12:51:06.656250,1.44
12:51:06.671875,2.29
12:51:06.687500,2.87
12:51:06.703125,3.19
12:51:06.718750,3.29
12:51:06.734375,3.27
12:51:06.750000,3.22
12:51:06.765625,3.21
12:51:06.781250,3.29
12:51:06.796875,3.47
12:51:06.812500,3.72
12:51:06.828125,4.01
12:51:06.843750,4.32
12:51:06.859375,4.65
12:51:06.875000,5.04
12:51:06.890625,5.46
12:51:06.906250,5.85
12:51:06.921875,6.05
12:51:06.937500,5.92
12:51:06.953125,5.38
12:51:06.968750,4.51
12:51:06.984375,3.50
12:51:07,2.60
12:51:07.015625,1.95
12:51:07.031250,1.53
12:51:07.046875,1.22
12:51:07.062500,0.83
12:51:07.078125,0.28
12:51:07.093750,-0.40
12:51:07.109375,-1.10
12:51:07.125000,-1.72
12:51:07.140625,-2.21
12:51:07.156250,-2.61
12:51:07.171875,-3.00
12:51:07.187500,-3.42
12:51:07.203125,-3.90
12:51:07.218750,-4.44
12:51:07.234375,-5.09
12:51:07.250000,-5.92
12:51:07.265625,-6.99
12:51:07.281250,-8.23
12:51:07.296875,-9.44
12:51:07.312500,-10.29
12:51:07.328125,-10.49
12:51:07.343750,-9.85
12:51:07.359375,-8.43
12:51:07.375000,-6.47
12:51:07.390625,-4.29
12:51:07.406250,-2.21
12:51:07.421875,-0.42
12:51:07.437500,0.98
12:51:07.453125,2.02
12:51:07.468750,2.74
12:51:07.484375,3.22
12:51:07.500000,3.54
12:51:07.515625,3.81
12:51:07.531250,4.06
12:51:07.546875,4.35
12:51:07.562500,4.66
12:51:07.578125,4.93
12:51:07.593750,5.13
12:51:07.609375,5.23
12:51:07.625000,5.25
12:51:07.640625,5.28
12:51:07.656250,5.39
12:51:07.671875,5.64
12:51:07.687500,6.03
12:51:07.703125,6.49
12:51:07.718750,6.87
12:51:07.734375,7.06
12:51:07.750000,6.96
12:51:07.765625,6.59
12:51:07.781250,6.04
12:51:07.796875,5.44
12:51:07.812500,4.88
12:51:07.828125,4.41
12:51:07.843750,3.96
12:51:07.859375,3.45
12:51:07.875000,2.81
12:51:07.890625,2.01
12:51:07.906250,1.10
12:51:07.921875,0.16
12:51:07.937500,-0.72
12:51:07.953125,-1.46
12:51:07.968750,-2.04
12:51:07.984375,-2.51
12:51:08,-2.96
12:51:08.015625,-3.48
12:51:08.031250,-4.18
12:51:08.046875,-5.11
12:51:08.062500,-6.21
12:51:08.078125,-7.36
12:51:08.093750,-8.35
12:51:08.109375,-9.00
12:51:08.125000,-9.13
12:51:08.140625,-8.67
12:51:08.156250,-7.66
12:51:08.171875,-6.25
12:51:08.187500,-4.67
12:51:08.203125,-3.10
12:51:08.218750,-1.68
12:51:08.234375,-0.44
12:51:08.250000,0.69
12:51:08.265625,1.79
12:51:08.281250,2.89
12:51:08.296875,3.92
12:51:08.312500,4.73
12:51:08.328125,5.12
12:51:08.343750,4.97
12:51:08.359375,4.27
12:51:08.375000,3.22
12:51:08.390625,2.16
12:51:08.406250,1.48
12:51:08.421875,1.50
12:51:08.437500,2.38
12:51:08.453125,4.04
12:51:08.468750,6.18
12:51:08.484375,8.37
12:51:08.500000,10.15
12:51:08.515625,11.22
12:51:08.531250,11.51
12:51:08.546875,11.16
12:51:08.562500,10.50
12:51:08.578125,9.82
12:51:08.593750,9.33
12:51:08.609375,8.99
12:51:08.625000,8.61
12:51:08.640625,7.93
12:51:08.656250,6.76
12:51:08.671875,5.09
12:51:08.687500,3.07
12:51:08.703125,0.92
12:51:08.718750,-1.10
12:51:08.734375,-2.86
12:51:08.750000,-4.30
12:51:08.765625,-5.48
12:51:08.781250,-6.52
12:51:08.796875,-7.52
12:51:08.812500,-8.59
12:51:08.828125,-9.79
12:51:08.843750,-11.09
12:51:08.859375,-12.36
12:51:08.875000,-13.41
12:51:08.890625,-14.02
12:51:08.906250,-14.06
12:51:08.921875,-13.47
12:51:08.937500,-12.35
12:51:08.953125,-10.84
12:51:08.968750,-9.07
12:51:08.984375,-7.19
12:51:09,-5.25
12:51:09.015625,-3.31
12:51:09.031250,-1.44
12:51:09.046875,0.28
12:51:09.062500,1.78
12:51:09.078125,3.00
12:51:09.093750,3.93
12:51:09.109375,4.56
12:51:09.125000,4.88
12:51:09.140625,4.90
12:51:09.156250,4.63
12:51:09.171875,4.20
12:51:09.187500,3.73
12:51:09.203125,3.39
12:51:09.218750,3.27
12:51:09.234375,3.42
12:51:09.250000,3.77
12:51:09.265625,4.23
12:51:09.281250,4.67
12:51:09.296875,4.98
12:51:09.312500,5.06
12:51:09.328125,4.87
12:51:09.343750,4.41
12:51:09.359375,3.80
12:51:09.375000,3.22
12:51:09.390625,2.82
12:51:09.406250,2.64
12:51:09.421875,2.61
12:51:09.437500,2.55
12:51:09.453125,2.29
12:51:09.468750,1.74
12:51:09.484375,0.97
12:51:09.500000,0.11
12:51:09.515625,-0.69
12:51:09.531250,-1.31
12:51:09.546875,-1.77
12:51:09.562500,-2.14
12:51:09.578125,-2.53
12:51:09.593750,-3.06
12:51:09.609375,-3.81
12:51:09.625000,-4.78
12:51:09.640625,-5.89
12:51:09.656250,-6.99
12:51:09.671875,-7.87
12:51:09.687500,-8.36
12:51:09.703125,-8.34
12:51:09.718750,-7.77
12:51:09.734375,-6.69
12:51:09.750000,-5.20
12:51:09.765625,-3.42
12:51:09.781250,-1.52
12:51:09.796875,0.31
12:51:09.812500,1.90
12:51:09.828125,3.15
12:51:09.843750,4.00
12:51:09.859375,4.52
12:51:09.875000,4.82
12:51:09.890625,4.98
12:51:09.906250,5.08
12:51:09.921875,5.10
12:51:09.937500,5.02
12:51:09.953125,4.83
12:51:09.968750,4.52
12:51:09.984375,4.16
12:51:10,3.80
12:51:10.015625,3.49
12:51:10.031250,3.23
12:51:10.046875,3.01
12:51:10.062500,2.83
12:51:10.078125,2.70
12:51:10.093750,2.60
12:51:10.109375,2.52
12:51:10.125000,2.41
12:51:10.140625,2.20
12:51:10.156250,1.88
12:51:10.171875,1.47
12:51:10.187500,1.02
12:51:10.203125,0.57
12:51:10.218750,0.09
12:51:10.234375,-0.44
12:51:10.250000,-1.11
12:51:10.265625,-1.94
12:51:10.281250,-2.93
12:51:10.296875,-3.99
12:51:10.312500,-5.04
12:51:10.328125,-5.97
12:51:10.343750,-6.74
12:51:10.359375,-7.37
12:51:10.375000,-7.94
12:51:10.390625,-8.48
12:51:10.406250,-9.01
12:51:10.421875,-9.42
12:51:10.437500,-9.59
12:51:10.453125,-9.39
12:51:10.468750,-8.80
12:51:10.484375,-7.85
12:51:10.500000,-6.68
12:51:10.515625,-5.42
12:51:10.531250,-4.15
12:51:10.546875,-2.91
12:51:10.562500,-1.69
12:51:10.578125,-0.51
12:51:10.593750,0.57
12:51:10.609375,1.46
12:51:10.625000,2.11
12:51:10.640625,2.51
12:51:10.656250,2.70
12:51:10.671875,2.76
12:51:10.687500,2.74
12:51:10.703125,2.73
12:51:10.718750,2.79
12:51:10.734375,2.98
12:51:10.750000,3.33
12:51:10.765625,3.78
12:51:10.781250,4.24
12:51:10.796875,4.56
12:51:10.812500,4.64
12:51:10.828125,4.43
12:51:10.843750,3.98
12:51:10.859375,3.37
12:51:10.875000,2.67
12:51:10.890625,1.98
12:51:10.906250,1.36
12:51:10.921875,0.86
12:51:10.937500,0.54
12:51:10.953125,0.38
12:51:10.968750,0.33
12:51:10.984375,0.25
12:51:11,0.02
12:51:11.015625,-0.43
12:51:11.031250,-1.09
12:51:11.046875,-1.92
12:51:11.062500,-2.88
12:51:11.078125,-3.94
12:51:11.093750,-5.11
12:51:11.109375,-6.32
12:51:11.125000,-7.41
12:51:11.140625,-8.14
12:51:11.156250,-8.27
12:51:11.171875,-7.71
12:51:11.187500,-6.54
12:51:11.203125,-5.03
12:51:11.218750,-3.49
12:51:11.234375,-2.17
12:51:11.250000,-1.15
12:51:11.265625,-0.32
12:51:11.281250,0.50
12:51:11.296875,1.45
12:51:11.312500,2.54
12:51:11.328125,3.64
12:51:11.343750,4.55
12:51:11.359375,5.11
12:51:11.375000,5.28
12:51:11.390625,5.13
12:51:11.406250,4.79
12:51:11.421875,4.38
12:51:11.437500,4.01
12:51:11.453125,3.70
12:51:11.468750,3.50
12:51:11.484375,3.40
12:51:11.500000,3.38
12:51:11.515625,3.38
12:51:11.531250,3.30
12:51:11.546875,3.05
12:51:11.562500,2.60
12:51:11.578125,1.99
12:51:11.593750,1.31
12:51:11.609375,0.65
12:51:11.625000,0.01
12:51:11.640625,-0.63
12:51:11.656250,-1.31
12:51:11.671875,-2.02
12:51:11.687500,-2.69
12:51:11.703125,-3.24
12:51:11.718750,-3.66
12:51:11.734375,-4.04
12:51:11.750000,-4.54
12:51:11.765625,-5.29
12:51:11.781250,-6.36
12:51:11.796875,-7.63
12:51:11.812500,-8.86
12:51:11.828125,-9.81
12:51:11.843750,-10.26
12:51:11.859375,-10.14
12:51:11.875000,-9.49
12:51:11.890625,-8.43
12:51:11.906250,-7.03
12:51:11.921875,-5.39
12:51:11.937500,-3.59
12:51:11.953125,-1.72
12:51:11.968750,0.07
12:51:11.984375,1.63
12:51:12,2.84
12:51:12.015625,3.69
12:51:12.031250,4.26
12:51:12.046875,4.66
12:51:12.062500,4.96
12:51:12.078125,5.18
12:51:12.093750,5.27
12:51:12.109375,5.23
12:51:12.125000,5.09
12:51:12.140625,4.98
12:51:12.156250,4.99
12:51:12.171875,5.13
12:51:12.187500,5.32
12:51:12.203125,5.39
12:51:12.218750,5.25
12:51:12.234375,4.88
12:51:12.250000,4.42
12:51:12.265625,4.02
12:51:12.281250,3.81
12:51:12.296875,3.78
12:51:12.312500,3.78
12:51:12.328125,3.60
12:51:12.343750,3.11
12:51:12.359375,2.30
12:51:12.375000,1.31
12:51:12.390625,0.33
12:51:12.406250,-0.48
12:51:12.421875,-1.11
12:51:12.437500,-1.67
12:51:12.453125,-2.26
12:51:12.468750,-2.99
12:51:12.484375,-3.87
12:51:12.500000,-4.81
12:51:12.515625,-5.78
12:51:12.531250,-6.74
12:51:12.546875,-7.63
12:51:12.562500,-8.34
12:51:12.578125,-8.70
12:51:12.593750,-8.50
12:51:12.609375,-7.65
12:51:12.625000,-6.28
12:51:12.640625,-4.68
12:51:12.656250,-3.20
12:51:12.671875,-2.06
12:51:12.687500,-1.25
12:51:12.703125,-0.60
12:51:12.718750,0.12
12:51:12.734375,1.03
12:51:12.750000,2.11
12:51:12.765625,3.20
12:51:12.781250,4.12
12:51:12.796875,4.74
12:51:12.812500,5.06
12:51:12.828125,5.12
12:51:12.843750,5.04
12:51:12.859375,4.92
12:51:12.875000,4.85
12:51:12.890625,4.89
12:51:12.906250,5.03
12:51:12.921875,5.25
12:51:12.937500,5.48
12:51:12.953125,5.66
12:51:12.968750,5.74
12:51:12.984375,5.70
12:51:13,5.54
12:51:13.015625,5.26
12:51:13.031250,4.87
12:51:13.046875,4.36
12:51:13.062500,3.76
12:51:13.078125,3.08
12:51:13.093750,2.34
12:51:13.109375,1.55
12:51:13.125000,0.70
12:51:13.140625,-0.19
12:51:13.156250,-1.05
12:51:13.171875,-1.82
12:51:13.187500,-2.44
12:51:13.203125,-2.98
12:51:13.218750,-3.58
12:51:13.234375,-4.43
12:51:13.250000,-5.61
12:51:13.265625,-7.05
12:51:13.281250,-8.46
12:51:13.296875,-9.45
12:51:13.312500,-9.68
12:51:13.328125,-9.02
12:51:13.343750,-7.59
12:51:13.359375,-5.72
12:51:13.375000,-3.83
12:51:13.390625,-2.20
12:51:13.406250,-0.95
12:51:13.421875,0.00
12:51:13.437500,0.82
12:51:13.453125,1.62
12:51:13.468750,2.43
12:51:13.484375,3.18
12:51:13.500000,3.76
12:51:13.515625,4.15
12:51:13.531250,4.40
12:51:13.546875,4.62
12:51:13.562500,4.90
12:51:13.578125,5.23
12:51:13.593750,5.53
12:51:13.609375,5.66
12:51:13.625000,5.54
12:51:13.640625,5.14
12:51:13.656250,4.57
12:51:13.671875,3.96
12:51:13.687500,3.44
12:51:13.703125,3.11
12:51:13.718750,2.92
12:51:13.734375,2.77
12:51:13.750000,2.51
12:51:13.765625,2.06
12:51:13.781250,1.45
12:51:13.796875,0.80
12:51:13.812500,0.26
12:51:13.828125,-0.08
12:51:13.843750,-0.23
12:51:13.859375,-0.32
12:51:13.875000,-0.51
12:51:13.890625,-0.90
12:51:13.906250,-1.53
12:51:13.921875,-2.38
12:51:13.937500,-3.37
12:51:13.953125,-4.46
12:51:13.968750,-5.60
12:51:13.984375,-6.73
12:51:14,-7.75
12:51:14.015625,-8.56
12:51:14.031250,-9.02
12:51:14.046875,-9.04
12:51:14.062500,-8.58
12:51:14.078125,-7.66
12:51:14.093750,-6.37
12:51:14.109375,-4.83
12:51:14.125000,-3.21
12:51:14.140625,-1.62
12:51:14.156250,-0.17
12:51:14.171875,1.10
12:51:14.187500,2.20
12:51:14.203125,3.13
12:51:14.218750,3.89
12:51:14.234375,4.42
12:51:14.250000,4.69
12:51:14.265625,4.69
12:51:14.281250,4.48
12:51:14.296875,4.18
12:51:14.312500,3.93
12:51:14.328125,3.82
12:51:14.343750,3.88
12:51:14.359375,4.05
12:51:14.375000,4.22
12:51:14.390625,4.32
12:51:14.406250,4.32
12:51:14.421875,4.27
12:51:14.437500,4.22
12:51:14.453125,4.19
12:51:14.468750,4.13
12:51:14.484375,3.96
12:51:14.500000,3.61
12:51:14.515625,3.12
12:51:14.531250,2.60
12:51:14.546875,2.17
12:51:14.562500,1.93
12:51:14.578125,1.85
12:51:14.593750,1.78
12:51:14.609375,1.57
12:51:14.625000,1.12
12:51:14.640625,0.44
12:51:14.656250,-0.39
12:51:14.671875,-1.26
12:51:14.687500,-2.09
12:51:14.703125,-2.85
12:51:14.718750,-3.55
12:51:14.734375,-4.25
12:51:14.750000,-4.97
12:51:14.765625,-5.74
12:51:14.781250,-6.54
12:51:14.796875,-7.30
12:51:14.812500,-7.92
12:51:14.828125,-8.25
12:51:14.843750,-8.13
12:51:14.859375,-7.52
12:51:14.875000,-6.44
12:51:14.890625,-5.03
12:51:14.906250,-3.44
12:51:14.921875,-1.85
12:51:14.937500,-0.36
12:51:14.953125,0.93
12:51:14.968750,1.97
12:51:14.984375,2.72
12:51:15,3.19
12:51:15.015625,3.43
12:51:15.031250,3.57
12:51:15.046875,3.70
12:51:15.062500,3.95
12:51:15.078125,4.34
12:51:15.093750,4.85
12:51:15.109375,5.41
12:51:15.125000,5.91
12:51:15.140625,6.23
12:51:15.156250,6.30
12:51:15.171875,6.08
12:51:15.187500,5.67
12:51:15.203125,5.17
12:51:15.218750,4.72
12:51:15.234375,4.38
12:51:15.250000,4.16
12:51:15.265625,3.94
12:51:15.281250,3.62
12:51:15.296875,3.15
12:51:15.312500,2.53
12:51:15.328125,1.83
12:51:15.343750,1.15
12:51:15.359375,0.56
12:51:15.375000,0.09
12:51:15.390625,-0.31
12:51:15.406250,-0.69
12:51:15.421875,-1.14
12:51:15.437500,-1.67
12:51:15.453125,-2.26
12:51:15.468750,-2.82
12:51:15.484375,-3.29
12:51:15.500000,-3.67
12:51:15.515625,-3.99
12:51:15.531250,-4.39
12:51:15.546875,-4.99
12:51:15.562500,-5.89
12:51:15.578125,-7.05
12:51:15.593750,-8.36
12:51:15.609375,-9.57
12:51:15.625000,-10.40
12:51:15.640625,-10.58
12:51:15.656250,-9.95
12:51:15.671875,-8.54
12:51:15.687500,-6.56
12:51:15.703125,-4.33
12:51:15.718750,-2.22
12:51:15.734375,-0.49
12:51:15.750000,0.77
12:51:15.765625,1.64
12:51:15.781250,2.24
12:51:15.796875,2.71
12:51:15.812500,3.14
12:51:15.828125,3.54
12:51:15.843750,3.90
12:51:15.859375,4.22
12:51:15.875000,4.49
12:51:15.890625,4.74
12:51:15.906250,4.99
12:51:15.921875,5.20
12:51:15.937500,5.37
12:51:15.953125,5.44
12:51:15.968750,5.38
12:51:15.984375,5.17
12:51:16,4.86
12:51:16.015625,4.53
12:51:16.031250,4.26
12:51:16.046875,4.12
12:51:16.062500,4.12
12:51:16.078125,4.20
12:51:16.093750,4.27
12:51:16.109375,4.21
12:51:16.125000,4.00
12:51:16.140625,3.65
12:51:16.156250,3.24
12:51:16.171875,2.80
12:51:16.187500,2.34
12:51:16.203125,1.81
12:51:16.218750,1.19
12:51:16.234375,0.46
12:51:16.250000,-0.30
12:51:16.265625,-1.02
12:51:16.281250,-1.68
12:51:16.296875,-2.32
12:51:16.312500,-3.08
12:51:16.328125,-4.07
12:51:16.343750,-5.31
12:51:16.359375,-6.70
12:51:16.375000,-8.06
12:51:16.390625,-9.18
12:51:16.406250,-9.94
12:51:16.421875,-10.29
12:51:16.437500,-10.25
12:51:16.453125,-9.84
12:51:16.468750,-9.07
12:51:16.484375,-7.94
12:51:16.500000,-6.49
12:51:16.515625,-4.82
12:51:16.531250,-3.08
12:51:16.546875,-1.42
12:51:16.562500,0.04
12:51:16.578125,1.25
12:51:16.593750,2.20
12:51:16.609375,2.90
12:51:16.625000,3.35
12:51:16.640625,3.58
12:51:16.656250,3.64
12:51:16.671875,3.63
12:51:16.687500,3.65
12:51:16.703125,3.79
12:51:16.718750,4.10
12:51:16.734375,4.58
12:51:16.750000,5.18
12:51:16.765625,5.79
12:51:16.781250,6.31
12:51:16.796875,6.65
12:51:16.812500,6.76
12:51:16.828125,6.64
12:51:16.843750,6.31
12:51:16.859375,5.84
12:51:16.875000,5.29
12:51:16.890625,4.75
12:51:16.906250,4.25
12:51:16.921875,3.84
12:51:16.937500,3.51
12:51:16.953125,3.21
12:51:16.968750,2.91
12:51:16.984375,2.54
12:51:17,2.08
12:51:17.015625,1.53
12:51:17.031250,0.87
12:51:17.046875,0.13
12:51:17.062500,-0.71
12:51:17.078125,-1.62
12:51:17.093750,-2.56
12:51:17.109375,-3.44
12:51:17.125000,-4.16
12:51:17.140625,-4.70
12:51:17.156250,-5.12
12:51:17.171875,-5.55
12:51:17.187500,-6.15
12:51:17.203125,-7.02
12:51:17.218750,-8.09
12:51:17.234375,-9.14
12:51:17.250000,-9.89
12:51:17.265625,-10.09
12:51:17.281250,-9.62
12:51:17.296875,-8.55
12:51:17.312500,-7.10
12:51:17.328125,-5.50
12:51:17.343750,-3.93
12:51:17.359375,-2.50
12:51:17.375000,-1.26
12:51:17.390625,-0.24
12:51:17.406250,0.55
12:51:17.421875,1.10
12:51:17.437500,1.47
12:51:17.453125,1.79
12:51:17.468750,2.18
12:51:17.484375,2.75
12:51:17.500000,3.47
12:51:17.515625,4.25
12:51:17.531250,4.93
12:51:17.546875,5.40
12:51:17.562500,5.63
12:51:17.578125,5.67
12:51:17.593750,5.64
12:51:17.609375,5.61
12:51:17.625000,5.58
12:51:17.640625,5.53
12:51:17.656250,5.37
12:51:17.671875,5.03
12:51:17.687500,4.48
12:51:17.703125,3.74
12:51:17.718750,2.90
12:51:17.734375,2.09
12:51:17.750000,1.44
12:51:17.765625,1.02
12:51:17.781250,0.83
12:51:17.796875,0.81
12:51:17.812500,0.87
12:51:17.828125,0.91
12:51:17.843750,0.85
12:51:17.859375,0.66
12:51:17.875000,0.31
12:51:17.890625,-0.20
12:51:17.906250,-0.87
12:51:17.921875,-1.65
12:51:17.937500,-2.46
12:51:17.953125,-3.19
12:51:17.968750,-3.79
12:51:17.984375,-4.28
12:51:18,-4.74
12:51:18.015625,-5.29
12:51:18.031250,-6.01
12:51:18.046875,-6.81
12:51:18.062500,-7.54
12:51:18.078125,-7.96
12:51:18.093750,-7.87
12:51:18.109375,-7.20
12:51:18.125000,-6.04
12:51:18.140625,-4.61
12:51:18.156250,-3.16
12:51:18.171875,-1.91
12:51:18.187500,-0.97
12:51:18.203125,-0.29
12:51:18.218750,0.24
12:51:18.234375,0.77
12:51:18.250000,1.41
12:51:18.265625,2.14
12:51:18.281250,2.84
12:51:18.296875,3.35
12:51:18.312500,3.57
12:51:18.328125,3.52
12:51:18.343750,3.33
12:51:18.359375,3.21
12:51:18.375000,3.32
12:51:18.390625,3.70
12:51:18.406250,4.25
12:51:18.421875,4.84
12:51:18.437500,5.30
12:51:18.453125,5.54
12:51:18.468750,5.56
12:51:18.484375,5.39
12:51:18.500000,5.09
12:51:18.515625,4.70
12:51:18.531250,4.23
12:51:18.546875,3.71
12:51:18.562500,3.16
12:51:18.578125,2.63
12:51:18.593750,2.14
12:51:18.609375,1.73
12:51:18.625000,1.40
12:51:18.640625,1.13
12:51:18.656250,0.87
12:51:18.671875,0.55
12:51:18.687500,0.06
12:51:18.703125,-0.67
12:51:18.718750,-1.62
12:51:18.734375,-2.72
12:51:18.750000,-3.85
12:51:18.765625,-4.88
12:51:18.781250,-5.73
12:51:18.796875,-6.41
12:51:18.812500,-7.02
12:51:18.828125,-7.64
12:51:18.843750,-8.30
12:51:18.859375,-8.92
12:51:18.875000,-9.29
12:51:18.890625,-9.22
12:51:18.906250,-8.56
12:51:18.921875,-7.31
12:51:18.937500,-5.63
12:51:18.953125,-3.75
12:51:18.968750,-1.94
12:51:18.984375,-0.38
12:51:19,0.80
12:51:19.015625,1.59
12:51:19.031250,2.04
12:51:19.046875,2.22
12:51:19.062500,2.24
12:51:19.078125,2.19
12:51:19.093750,2.14
12:51:19.109375,2.13
12:51:19.125000,2.18
12:51:19.140625,2.27
12:51:19.156250,2.39
12:51:19.171875,2.52
12:51:19.187500,2.65
12:51:19.203125,2.74
12:51:19.218750,2.78
12:51:19.234375,2.78
12:51:19.250000,2.79
12:51:19.265625,2.86
12:51:19.281250,3.02
12:51:19.296875,3.18
12:51:19.312500,3.19
12:51:19.328125,2.92
12:51:19.343750,2.36
12:51:19.359375,1.58
12:51:19.375000,0.76
12:51:19.390625,0.05
12:51:19.406250,-0.51
12:51:19.421875,-1.01
12:51:19.437500,-1.56
12:51:19.453125,-2.26
12:51:19.468750,-3.07
12:51:19.484375,-3.90
12:51:19.500000,-4.67
12:51:19.515625,-5.39
12:51:19.531250,-6.12
12:51:19.546875,-6.94
12:51:19.562500,-7.82
12:51:19.578125,-8.62
12:51:19.593750,-9.13
12:51:19.609375,-9.15
12:51:19.625000,-8.65
12:51:19.640625,-7.70
12:51:19.656250,-6.50
12:51:19.671875,-5.25
12:51:19.687500,-4.06
12:51:19.703125,-2.94
12:51:19.718750,-1.85
12:51:19.734375,-0.74
12:51:19.750000,0.38
12:51:19.765625,1.43
12:51:19.781250,2.29
12:51:19.796875,2.84
12:51:19.812500,3.01
12:51:19.828125,2.86
12:51:19.843750,2.52
12:51:19.859375,2.23
12:51:19.875000,2.23
12:51:19.890625,2.64
12:51:19.906250,3.41
12:51:19.921875,4.33
12:51:19.937500,5.12
12:51:19.953125,5.59
12:51:19.968750,5.67
12:51:19.984375,5.48
12:51:20,5.17
12:51:20.015625,4.90
12:51:20.031250,4.73
12:51:20.046875,4.59
12:51:20.062500,4.43
12:51:20.078125,4.15
12:51:20.093750,3.73
12:51:20.109375,3.15
12:51:20.125000,2.42
12:51:20.140625,1.59
12:51:20.156250,0.74
12:51:20.171875,-0.05
12:51:20.187500,-0.71
12:51:20.203125,-1.27
12:51:20.218750,-1.79
12:51:20.234375,-2.41
12:51:20.250000,-3.22
12:51:20.265625,-4.23
12:51:20.281250,-5.38
12:51:20.296875,-6.53
12:51:20.312500,-7.52
12:51:20.328125,-8.19
12:51:20.343750,-8.41
12:51:20.359375,-8.11
12:51:20.375000,-7.28
12:51:20.390625,-6.00
12:51:20.406250,-4.36
12:51:20.421875,-2.55
12:51:20.437500,-0.70
12:51:20.453125,1.04
12:51:20.468750,2.55
12:51:20.484375,3.76
12:51:20.500000,4.60
12:51:20.515625,5.09
12:51:20.531250,5.32
12:51:20.546875,5.40
12:51:20.562500,5.45
12:51:20.578125,5.54
12:51:20.593750,5.66
12:51:20.609375,5.75
12:51:20.625000,5.75
12:51:20.640625,5.65
12:51:20.656250,5.52
12:51:20.671875,5.41
12:51:20.687500,5.38
12:51:20.703125,5.38
12:51:20.718750,5.34
12:51:20.734375,5.20
12:51:20.750000,4.95
12:51:20.765625,4.64
12:51:20.781250,4.34
12:51:20.796875,4.07
12:51:20.812500,3.75
12:51:20.828125,3.25
12:51:20.843750,2.51
12:51:20.859375,1.54
12:51:20.875000,0.48
12:51:20.890625,-0.47
12:51:20.906250,-1.16
12:51:20.921875,-1.59
12:51:20.937500,-1.90
12:51:20.953125,-2.25
12:51:20.968750,-2.78
12:51:20.984375,-3.49
12:51:21,-4.32
12:51:21.015625,-5.18
12:51:21.031250,-6.02
12:51:21.046875,-6.79
12:51:21.062500,-7.41
12:51:21.078125,-7.74
12:51:21.093750,-7.56
12:51:21.109375,-6.70
12:51:21.125000,-5.14
12:51:21.140625,-3.04
12:51:21.156250,-0.74
12:51:21.171875,1.46
12:51:21.187500,3.37
12:51:21.203125,4.97
12:51:21.218750,6.37
12:51:21.234375,7.67
12:51:21.250000,8.87
12:51:21.265625,9.87
12:51:21.281250,10.58
12:51:21.296875,10.94
12:51:21.312500,11.01
12:51:21.328125,10.92
12:51:21.343750,10.79
12:51:21.359375,10.69
12:51:21.375000,10.60
12:51:21.390625,10.43
12:51:21.406250,10.12
12:51:21.421875,9.62
12:51:21.437500,8.98
12:51:21.453125,8.31
12:51:21.468750,7.76
12:51:21.484375,7.44
12:51:21.500000,7.38
12:51:21.515625,7.49
12:51:21.531250,7.56
12:51:21.546875,7.33
12:51:21.562500,6.61
12:51:21.578125,5.35
12:51:21.593750,3.65
12:51:21.609375,1.75
12:51:21.625000,-0.11
12:51:21.640625,-1.73
12:51:21.656250,-3.04
12:51:21.671875,-4.02
12:51:21.687500,-4.69
12:51:21.703125,-5.08
12:51:21.718750,-5.24
12:51:21.734375,-5.25
12:51:21.750000,-5.25
12:51:21.765625,-5.39
12:51:21.781250,-5.73
12:51:21.796875,-6.17
12:51:21.812500,-6.49
12:51:21.828125,-6.37
12:51:21.843750,-5.49
12:51:21.859375,-3.69
12:51:21.875000,-1.00
12:51:21.890625,2.39
12:51:21.906250,6.14
12:51:21.921875,9.85
12:51:21.937500,13.16
12:51:21.953125,15.80
12:51:21.968750,17.63
12:51:21.984375,18.67
12:51:22,19.16
12:51:22.015625,19.45
12:51:22.031250,19.93
12:51:22.046875,20.82
12:51:22.062500,22.12
12:51:22.078125,23.63
12:51:22.093750,24.95
12:51:22.109375,25.73
12:51:22.125000,25.72
12:51:22.140625,24.87
12:51:22.156250,23.24
12:51:22.171875,21.01
12:51:22.187500,18.37
12:51:22.203125,15.49
12:51:22.218750,12.53
12:51:22.234375,9.54
12:51:22.250000,6.49
12:51:22.265625,3.23
12:51:22.281250,-0.52
12:51:22.296875,-5.01
12:51:22.312500,-10.37
12:51:22.328125,-16.54
12:51:22.343750,-23.19
12:51:22.359375,-29.79
12:51:22.375000,-35.78
12:51:22.390625,-40.68
12:51:22.406250,-44.32
12:51:22.421875,-46.85
12:51:22.437500,-48.75
12:51:22.453125,-50.56
12:51:22.468750,-52.75
12:51:22.484375,-55.47
12:51:22.500000,-58.51
12:51:22.515625,-61.36
12:51:22.531250,-63.37
12:51:22.546875,-63.95
12:51:22.562500,-62.73
12:51:22.578125,-59.64
12:51:22.593750,-54.85
12:51:22.609375,-48.71
12:51:22.625000,-41.70
12:51:22.640625,-34.32
12:51:22.656250,-27.09
12:51:22.671875,-20.46
12:51:22.687500,-14.74
12:51:22.703125,-10.03
12:51:22.718750,-6.16
12:51:22.734375,-2.87
12:51:22.750000,0.15
12:51:22.765625,3.07
12:51:22.781250,5.85
12:51:22.796875,8.34
12:51:22.812500,10.40
12:51:22.828125,12.03
12:51:22.843750,13.43
12:51:22.859375,14.88
12:51:22.875000,16.57
12:51:22.890625,18.49
12:51:22.906250,20.38
12:51:22.921875,21.89
12:51:22.937500,22.73
12:51:22.953125,22.85
12:51:22.968750,22.45
12:51:22.984375,21.93
12:51:23,21.68
12:51:23.015625,21.97
12:51:23.031250,22.80
12:51:23.046875,23.97
12:51:23.062500,25.18
12:51:23.078125,26.11
12:51:23.093750,26.59
12:51:23.109375,26.54
12:51:23.125000,25.97
12:51:23.140625,24.93
12:51:23.156250,23.46
12:51:23.171875,21.61
12:51:23.187500,19.51
12:51:23.203125,17.33
12:51:23.218750,15.20
12:51:23.234375,13.22
12:51:23.250000,11.31
12:51:23.265625,9.35
12:51:23.281250,7.18
12:51:23.296875,4.78
12:51:23.312500,2.30
12:51:23.328125,0.06
12:51:23.343750,-1.57
12:51:23.359375,-2.31
12:51:23.375000,-2.12
12:51:23.390625,-1.16
12:51:23.406250,0.22
12:51:23.421875,1.60
12:51:23.437500,2.60
12:51:23.453125,2.94
12:51:23.468750,2.56
12:51:23.484375,1.51
12:51:23.500000,0.04
12:51:23.515625,-1.61
12:51:23.531250,-3.18
12:51:23.546875,-4.54
12:51:23.562500,-5.67
12:51:23.578125,-6.60
12:51:23.593750,-7.43
12:51:23.609375,-8.20
12:51:23.625000,-8.94
12:51:23.640625,-9.64
12:51:23.656250,-10.29
12:51:23.671875,-10.91
12:51:23.687500,-11.47
12:51:23.703125,-11.98
12:51:23.718750,-12.40
12:51:23.734375,-12.67
12:51:23.750000,-12.76
12:51:23.765625,-12.63
12:51:23.781250,-12.27
12:51:23.796875,-11.70
12:51:23.812500,-10.91
12:51:23.828125,-9.91
12:51:23.843750,-8.68
12:51:23.859375,-7.29
12:51:23.875000,-5.84
12:51:23.890625,-4.54
12:51:23.906250,-3.64
12:51:23.921875,-3.32
12:51:23.937500,-3.65
12:51:23.953125,-4.51
12:51:23.968750,-5.61
12:51:23.984375,-6.59
12:51:24,-7.09
12:51:24.015625,-6.92
12:51:24.031250,-6.00
12:51:24.046875,-4.40
12:51:24.062500,-2.30
12:51:24.078125,0.09
12:51:24.093750,2.53
12:51:24.109375,4.79
12:51:24.125000,6.68
12:51:24.140625,8.10
12:51:24.156250,9.04
12:51:24.171875,9.64
12:51:24.187500,10.07
12:51:24.203125,10.47
12:51:24.218750,10.96
12:51:24.234375,11.53
12:51:24.250000,12.11
12:51:24.265625,12.56
12:51:24.281250,12.76
12:51:24.296875,12.67
12:51:24.312500,12.32
12:51:24.328125,11.85
12:51:24.343750,11.41
12:51:24.359375,11.13
12:51:24.375000,11.11
12:51:24.390625,11.32
12:51:24.406250,11.73
12:51:24.421875,12.26
12:51:24.437500,12.80
12:51:24.453125,13.26
12:51:24.468750,13.52
12:51:24.484375,13.50
12:51:24.500000,13.10
12:51:24.515625,12.28
12:51:24.531250,11.04
12:51:24.546875,9.43
12:51:24.562500,7.53
12:51:24.578125,5.43
12:51:24.593750,3.24
12:51:24.609375,1.11
12:51:24.625000,-0.83
12:51:24.640625,-2.45
12:51:24.656250,-3.66
12:51:24.671875,-4.46
12:51:24.687500,-4.84
12:51:24.703125,-4.87
12:51:24.718750,-4.62
12:51:24.734375,-4.19
12:51:24.750000,-3.71
12:51:24.765625,-3.30
12:51:24.781250,-3.04
12:51:24.796875,-2.92
12:51:24.812500,-2.86
12:51:24.828125,-2.72
12:51:24.843750,-2.44
12:51:24.859375,-2.02
12:51:24.875000,-1.56
12:51:24.890625,-1.21
12:51:24.906250,-1.07
12:51:24.921875,-1.18
12:51:24.937500,-1.45
12:51:24.953125,-1.78
12:51:24.968750,-2.07
12:51:24.984375,-2.23
12:51:25,-2.25
12:51:25.015625,-2.13
12:51:25.031250,-1.90
12:51:25.046875,-1.60
12:51:25.062500,-1.30
12:51:25.078125,-1.08
12:51:25.093750,-1.07
12:51:25.109375,-1.36
12:51:25.125000,-1.97
12:51:25.140625,-2.86
12:51:25.156250,-3.87
12:51:25.171875,-4.81
12:51:25.187500,-5.53
12:51:25.203125,-5.97
12:51:25.218750,-6.20
12:51:25.234375,-6.37
12:51:25.250000,-6.62
12:51:25.265625,-7.02
12:51:25.281250,-7.57
12:51:25.296875,-8.19
12:51:25.312500,-8.82
12:51:25.328125,-9.43
12:51:25.343750,-9.97
12:51:25.359375,-10.37
12:51:25.375000,-10.49
12:51:25.390625,-10.17
12:51:25.406250,-9.26
12:51:25.421875,-7.74
12:51:25.437500,-5.74
12:51:25.453125,-3.50
12:51:25.468750,-1.33
12:51:25.484375,0.52
12:51:25.500000,1.92
12:51:25.515625,2.86
12:51:25.531250,3.40
12:51:25.546875,3.68
12:51:25.562500,3.79
12:51:25.578125,3.81
12:51:25.593750,3.77
12:51:25.609375,3.72
12:51:25.625000,3.70
12:51:25.640625,3.78
12:51:25.656250,3.98
12:51:25.671875,4.23
12:51:25.687500,4.44
12:51:25.703125,4.45
12:51:25.718750,4.18
12:51:25.734375,3.67
12:51:25.750000,3.04
12:51:25.765625,2.48
12:51:25.781250,2.14
12:51:25.796875,2.01
12:51:25.812500,1.99
12:51:25.828125,1.93
12:51:25.843750,1.75
12:51:25.859375,1.44
12:51:25.875000,1.08
12:51:25.890625,0.74
12:51:25.906250,0.42
12:51:25.921875,0.06
12:51:25.937500,-0.44
12:51:25.953125,-1.10
12:51:25.968750,-1.85
12:51:25.984375,-2.62
12:51:26,-3.33
12:51:26.015625,-3.97
12:51:26.031250,-4.56
12:51:26.046875,-5.13
12:51:26.062500,-5.62
12:51:26.078125,-5.90
12:51:26.093750,-5.85
12:51:26.109375,-5.42
12:51:26.125000,-4.67
12:51:26.140625,-3.71
12:51:26.156250,-2.69
12:51:26.171875,-1.66
12:51:26.187500,-0.66
12:51:26.203125,0.29
12:51:26.218750,1.16
12:51:26.234375,1.90
12:51:26.250000,2.47
12:51:26.265625,2.87
12:51:26.281250,3.13
12:51:26.296875,3.27
12:51:26.312500,3.30
12:51:26.328125,3.24
12:51:26.343750,3.13
12:51:26.359375,3.07
12:51:26.375000,3.14
12:51:26.390625,3.40
12:51:26.406250,3.80
12:51:26.421875,4.21
12:51:26.437500,4.48
12:51:26.453125,4.51
12:51:26.468750,4.36
12:51:26.484375,4.12
12:51:26.500000,3.94
12:51:26.515625,3.90
12:51:26.531250,3.94
12:51:26.546875,3.94
12:51:26.562500,3.79
12:51:26.578125,3.41
12:51:26.593750,2.84
12:51:26.609375,2.18
12:51:26.625000,1.52
12:51:26.640625,0.88
12:51:26.656250,0.24
12:51:26.671875,-0.43
12:51:26.687500,-1.15
12:51:26.703125,-1.88
12:51:26.718750,-2.61
12:51:26.734375,-3.34
12:51:26.750000,-4.08
12:51:26.765625,-4.80
12:51:26.781250,-5.35
12:51:26.796875,-5.57
12:51:26.812500,-5.29
12:51:26.828125,-4.47
12:51:26.843750,-3.24
12:51:26.859375,-1.85
12:51:26.875000,-0.56
12:51:26.890625,0.47
12:51:26.906250,1.20
12:51:26.921875,1.69
12:51:26.937500,2.01
12:51:26.953125,2.19
12:51:26.968750,2.25
12:51:26.984375,2.18
12:51:27,2.03
12:51:27.015625,1.86
12:51:27.031250,1.77
12:51:27.046875,1.85
12:51:27.062500,2.16
12:51:27.078125,2.69
12:51:27.093750,3.37
12:51:27.109375,4.01
12:51:27.125000,4.40
12:51:27.140625,4.41
12:51:27.156250,4.02
12:51:27.171875,3.41
12:51:27.187500,2.81
12:51:27.203125,2.44
12:51:27.218750,2.35
12:51:27.234375,2.44
12:51:27.250000,2.50
12:51:27.265625,2.36
12:51:27.281250,1.98
12:51:27.296875,1.44
12:51:27.312500,0.89
12:51:27.328125,0.42
12:51:27.343750,0.02
12:51:27.359375,-0.31
12:51:27.375000,-0.62
12:51:27.390625,-0.85
12:51:27.406250,-0.92
12:51:27.421875,-0.78
12:51:27.437500,-0.49
12:51:27.453125,-0.18
12:51:27.468750,-0.10
12:51:27.484375,-0.37
12:51:27.500000,-1.02
12:51:27.515625,-1.87
12:51:27.531250,-2.67
12:51:27.546875,-3.18
12:51:27.562500,-3.26
12:51:27.578125,-2.94
12:51:27.593750,-2.34
12:51:27.609375,-1.62
12:51:27.625000,-0.89
12:51:27.640625,-0.19
12:51:27.656250,0.46
12:51:27.671875,1.06
12:51:27.687500,1.59
12:51:27.703125,2.01
12:51:27.718750,2.35
12:51:27.734375,2.67
12:51:27.750000,3.09
12:51:27.765625,3.66
12:51:27.781250,4.34
12:51:27.796875,4.97
12:51:27.812500,5.36
12:51:27.828125,5.37
12:51:27.843750,4.99
12:51:27.859375,4.39
12:51:27.875000,3.75
12:51:27.890625,3.24
12:51:27.906250,2.91
12:51:27.921875,2.69
12:51:27.937500,2.45
12:51:27.953125,2.12
12:51:27.968750,1.68
12:51:27.984375,1.24
12:51:28,0.87
12:51:28.015625,0.61
12:51:28.031250,0.42
12:51:28.046875,0.25
12:51:28.062500,0.03
12:51:28.078125,-0.23
12:51:28.093750,-0.50
12:51:28.109375,-0.74
12:51:28.125000,-0.92
12:51:28.140625,-1.07
12:51:28.156250,-1.24
12:51:28.171875,-1.48
12:51:28.187500,-1.82
12:51:28.203125,-2.28
12:51:28.218750,-2.83
12:51:28.234375,-3.42
12:51:28.250000,-3.98
12:51:28.265625,-4.43
12:51:28.281250,-4.73
12:51:28.296875,-4.91
12:51:28.312500,-4.98
12:51:28.328125,-4.96
12:51:28.343750,-4.81
12:51:28.359375,-4.43
12:51:28.375000,-3.80
12:51:28.390625,-2.97
12:51:28.406250,-2.09
12:51:28.421875,-1.33
12:51:28.437500,-0.80
12:51:28.453125,-0.46
12:51:28.468750,-0.20
12:51:28.484375,0.09
12:51:28.500000,0.44
12:51:28.515625,0.72
12:51:28.531250,0.81
12:51:28.546875,0.62
12:51:28.562500,0.19
12:51:28.578125,-0.28
12:51:28.593750,-0.60
12:51:28.609375,-0.63
12:51:28.625000,-0.40
12:51:28.640625,-0.01
12:51:28.656250,0.36
12:51:28.671875,0.60
12:51:28.687500,0.70
12:51:28.703125,0.71
12:51:28.718750,0.70
12:51:28.734375,0.72
12:51:28.750000,0.77
12:51:28.765625,0.82
12:51:28.781250,0.85
12:51:28.796875,0.87
12:51:28.812500,0.91
12:51:28.828125,0.96
12:51:28.843750,0.96
12:51:28.859375,0.84
12:51:28.875000,0.53
12:51:28.890625,0.04
12:51:28.906250,-0.52
12:51:28.921875,-1.02
12:51:28.937500,-1.29
12:51:28.953125,-1.29
12:51:28.968750,-1.10
12:51:28.984375,-0.88
12:51:29,-0.82
12:51:29.015625,-1.09
12:51:29.031250,-1.72
12:51:29.046875,-2.63
12:51:29.062500,-3.63
12:51:29.078125,-4.49
12:51:29.093750,-5.03
12:51:29.109375,-5.15
12:51:29.125000,-4.85
12:51:29.140625,-4.23
12:51:29.156250,-3.41
12:51:29.171875,-2.49
12:51:29.187500,-1.54
12:51:29.203125,-0.61
12:51:29.218750,0.24
12:51:29.234375,0.97
12:51:29.250000,1.54
12:51:29.265625,1.94
12:51:29.281250,2.18
12:51:29.296875,2.33
12:51:29.312500,2.46
12:51:29.328125,2.68
12:51:29.343750,2.99
12:51:29.359375,3.37
12:51:29.375000,3.72
12:51:29.390625,3.92
12:51:29.406250,3.89
12:51:29.421875,3.63
12:51:29.437500,3.20
12:51:29.453125,2.73
12:51:29.468750,2.34
12:51:29.484375,2.13
12:51:29.500000,2.12
12:51:29.515625,2.24
12:51:29.531250,2.39
12:51:29.546875,2.47
12:51:29.562500,2.42
12:51:29.578125,2.23
12:51:29.593750,1.97
12:51:29.609375,1.69
12:51:29.625000,1.45
12:51:29.640625,1.27
12:51:29.656250,1.08
12:51:29.671875,0.80
12:51:29.687500,0.32
12:51:29.703125,-0.39
12:51:29.718750,-1.29
12:51:29.734375,-2.24
12:51:29.750000,-3.09
12:51:29.765625,-3.67
12:51:29.781250,-3.97
12:51:29.796875,-4.08
12:51:29.812500,-4.18
12:51:29.828125,-4.48
12:51:29.843750,-5.09
12:51:29.859375,-5.95
12:51:29.875000,-6.87
12:51:29.890625,-7.59
12:51:29.906250,-7.91
12:51:29.921875,-7.72
12:51:29.937500,-7.08
12:51:29.953125,-6.17
12:51:29.968750,-5.19
12:51:29.984375,-4.30
12:51:30,-3.56
12:51:30.015625,-2.92
12:51:30.031250,-2.30
12:51:30.046875,-1.58
12:51:30.062500,-0.75
12:51:30.078125,0.13
12:51:30.093750,0.96
12:51:30.109375,1.65
12:51:30.125000,2.16
12:51:30.140625,2.54
12:51:30.156250,2.85
12:51:30.171875,3.14
12:51:30.187500,3.40
12:51:30.203125,3.59
12:51:30.218750,3.68
12:51:30.234375,3.67
12:51:30.250000,3.63
12:51:30.265625,3.65
12:51:30.281250,3.76
12:51:30.296875,3.95
12:51:30.312500,4.14
12:51:30.328125,4.23
12:51:30.343750,4.12
12:51:30.359375,3.81
12:51:30.375000,3.32
12:51:30.390625,2.74
12:51:30.406250,2.16
12:51:30.421875,1.64
12:51:30.437500,1.23
12:51:30.453125,0.93
12:51:30.468750,0.68
12:51:30.484375,0.44
12:51:30.500000,0.15
12:51:30.515625,-0.21
12:51:30.531250,-0.62
12:51:30.546875,-1.01
12:51:30.562500,-1.34
12:51:30.578125,-1.55
12:51:30.593750,-1.68
12:51:30.609375,-1.81
12:51:30.625000,-2.06
12:51:30.640625,-2.55
12:51:30.656250,-3.29
12:51:30.671875,-4.20
12:51:30.687500,-5.17
12:51:30.703125,-6.05
12:51:30.718750,-6.70
12:51:30.734375,-7.02
12:51:30.750000,-6.90
12:51:30.765625,-6.28
12:51:30.781250,-5.16
12:51:30.796875,-3.64
12:51:30.812500,-1.88
12:51:30.828125,-0.15
12:51:30.843750,1.33
12:51:30.859375,2.40
12:51:30.875000,3.06
12:51:30.890625,3.41
12:51:30.906250,3.59
12:51:30.921875,3.69
12:51:30.937500,3.72
12:51:30.953125,3.64
12:51:30.968750,3.41
12:51:30.984375,3.10
12:51:31,2.85
12:51:31.015625,2.82
12:51:31.031250,3.04
12:51:31.046875,3.47
12:51:31.062500,3.94
12:51:31.078125,4.32
12:51:31.093750,4.53
12:51:31.109375,4.58
12:51:31.125000,4.51
12:51:31.140625,4.32
12:51:31.156250,3.94
12:51:31.171875,3.30
12:51:31.187500,2.41
12:51:31.203125,1.38
12:51:31.218750,0.43
12:51:31.234375,-0.23
12:51:31.250000,-0.49
12:51:31.265625,-0.46
12:51:31.281250,-0.31
12:51:31.296875,-0.28
12:51:31.312500,-0.51
12:51:31.328125,-1.01
12:51:31.343750,-1.67
12:51:31.359375,-2.32
12:51:31.375000,-2.86
12:51:31.390625,-3.23
12:51:31.406250,-3.49
12:51:31.421875,-3.73
12:51:31.437500,-3.99
12:51:31.453125,-4.28
12:51:31.468750,-4.57
12:51:31.484375,-4.81
12:51:31.500000,-5.02
12:51:31.515625,-5.23
12:51:31.531250,-5.46
12:51:31.546875,-5.63
12:51:31.562500,-5.60
12:51:31.578125,-5.18
12:51:31.593750,-4.28
12:51:31.609375,-2.95
12:51:31.625000,-1.43
12:51:31.640625,0.00
12:51:31.656250,1.12
12:51:31.671875,1.86
12:51:31.687500,2.29
12:51:31.703125,2.56
12:51:31.718750,2.83
12:51:31.734375,3.13
12:51:31.750000,3.43
12:51:31.765625,3.65
12:51:31.781250,3.76
12:51:31.796875,3.79
12:51:31.812500,3.80
12:51:31.828125,3.86
12:51:31.843750,4.00
12:51:31.859375,4.21
12:51:31.875000,4.40
12:51:31.890625,4.50
12:51:31.906250,4.44
12:51:31.921875,4.21
12:51:31.937500,3.84
12:51:31.953125,3.41
12:51:31.968750,3.03
12:51:31.984375,2.76
12:51:32,2.61
12:51:32.015625,2.54
12:51:32.031250,2.50
12:51:32.046875,2.41
12:51:32.062500,2.23
12:51:32.078125,1.93
12:51:32.093750,1.51
12:51:32.109375,0.97
12:51:32.125000,0.32
12:51:32.140625,-0.41
12:51:32.156250,-1.16
12:51:32.171875,-1.87
12:51:32.187500,-2.48
12:51:32.203125,-3.02
12:51:32.218750,-3.53
12:51:32.234375,-4.09
12:51:32.250000,-4.78
12:51:32.265625,-5.62
12:51:32.281250,-6.57
12:51:32.296875,-7.52
12:51:32.312500,-8.30
12:51:32.328125,-8.76
12:51:32.343750,-8.76
12:51:32.359375,-8.27
12:51:32.375000,-7.33
12:51:32.390625,-6.06
12:51:32.406250,-4.59
12:51:32.421875,-3.11
12:51:32.437500,-1.75
12:51:32.453125,-0.62
12:51:32.468750,0.25
12:51:32.484375,0.89
12:51:32.500000,1.39
12:51:32.515625,1.83
12:51:32.531250,2.26
12:51:32.546875,2.70
12:51:32.562500,3.12
12:51:32.578125,3.47
12:51:32.593750,3.73
12:51:32.609375,3.90
12:51:32.625000,3.96
12:51:32.640625,3.92
12:51:32.656250,3.79
12:51:32.671875,3.61
12:51:32.687500,3.42
12:51:32.703125,3.30
12:51:32.718750,3.30
12:51:32.734375,3.43
12:51:32.750000,3.62
12:51:32.765625,3.81
12:51:32.781250,3.91
12:51:32.796875,3.89
12:51:32.812500,3.73
12:51:32.828125,3.44
12:51:32.843750,3.01
12:51:32.859375,2.44
12:51:32.875000,1.79
12:51:32.890625,1.15
12:51:32.906250,0.62
12:51:32.921875,0.28
12:51:32.937500,0.13
12:51:32.953125,0.05
12:51:32.968750,-0.11
12:51:32.984375,-0.47
12:51:33,-1.09
12:51:33.015625,-1.91
12:51:33.031250,-2.82
12:51:33.046875,-3.72
12:51:33.062500,-4.56
12:51:33.078125,-5.38
12:51:33.093750,-6.20
12:51:33.109375,-6.98
12:51:33.125000,-7.57
12:51:33.140625,-7.76
12:51:33.156250,-7.40
12:51:33.171875,-6.51
12:51:33.187500,-5.25
12:51:33.203125,-3.90
12:51:33.218750,-2.73
12:51:33.234375,-1.85
12:51:33.250000,-1.24
12:51:33.265625,-0.77
12:51:33.281250,-0.30
12:51:33.296875,0.27
12:51:33.312500,0.90
12:51:33.328125,1.51
12:51:33.343750,2.02
12:51:33.359375,2.37
12:51:33.375000,2.58
12:51:33.390625,2.68
12:51:33.406250,2.70
12:51:33.421875,2.62
12:51:33.437500,2.45
12:51:33.453125,2.21
12:51:33.468750,1.95
12:51:33.484375,1.78
12:51:33.500000,1.81
