12:44:09,-0.00
12:44:09.015625,-0.00
12:44:09.031250,-0.00
12:44:09.046875,-0.00
12:44:09.062500,-0.00
12:44:09.078125,-0.00
12:44:09.093750,-0.00
12:44:09.109375,-0.00
12:44:09.125000,-0.00
12:44:09.140625,-0.00
12:44:09.156250,0.00
12:44:09.171875,0.01
12:44:09.187500,0.01
12:44:09.203125,-0.00
12:44:09.218750,-0.03
12:44:09.234375,-0.05
12:44:09.250000,-0.05
12:44:09.265625,0.00
12:44:09.281250,0.13
12:44:09.296875,0.36
12:44:09.312500,0.66
12:44:09.328125,1.01
12:44:09.343750,1.37
12:44:09.359375,1.72
12:44:09.375000,2.06
12:44:09.390625,2.40
12:44:09.406250,2.79
12:44:09.421875,3.24
12:44:09.437500,3.80
12:44:09.453125,4.42
12:44:09.468750,5.06
12:44:09.484375,5.66
12:44:09.500000,6.20
12:44:09.515625,6.68
12:44:09.531250,7.15
12:44:09.546875,7.68
12:44:09.562500,8.31
12:44:09.578125,9.14
12:44:09.593750,10.09
12:44:09.609375,11.04
12:44:09.625000,11.88
12:44:09.640625,12.56
12:44:09.656250,13.14
12:44:09.671875,13.76
12:44:09.687500,14.65
12:44:09.703125,15.96
12:44:09.718750,17.91
12:44:09.734375,20.32
12:44:09.750000,22.90
12:44:09.765625,25.38
12:44:09.781250,27.58
12:44:09.796875,29.57
12:44:09.812500,31.68
12:44:09.828125,34.32
12:44:09.843750,37.81
12:44:09.859375,42.54
12:44:09.875000,48.15
12:44:09.890625,54.10
12:44:09.906250,59.83
12:44:09.921875,64.97
12:44:09.937500,69.58
12:44:09.953125,74.14
12:44:09.968750,79.34
12:44:09.984375,85.71
12:44:10,93.76
12:44:10.015625,103.00
12:44:10.031250,112.62
12:44:10.046875,121.73
12:44:10.062500,129.77
12:44:10.078125,136.75
12:44:10.093750,143.30
12:44:10.109375,150.75
12:44:10.125000,157.77
12:44:10.140625,166.64
12:44:10.156250,177.95
12:44:10.171875,191.79
12:44:10.187500,206.97
12:44:10.203125,220.57
12:44:10.218750,228.25
12:44:10.234375,225.36
12:44:10.250000,208.53
12:44:10.265625,176.87
12:44:10.281250,132.76
12:44:10.296875,80.05
12:44:10.312500,23.07
12:44:10.328125,-34.94
12:44:10.343750,-92.44
12:44:10.359375,-149.16
12:44:10.375000,-205.23
12:44:10.390625,-260.37
12:44:10.406250,-313.74
12:44:10.421875,-363.86
12:44:10.437500,-409.81
12:44:10.453125,-450.87
12:44:10.468750,-486.45
12:44:10.484375,-515.66
12:44:10.500000,-537.12
12:44:10.515625,-549.07
12:44:10.531250,-549.77
12:44:10.546875,-538.13
12:44:10.562500,-513.91
12:44:10.578125,-478.32
12:44:10.593750,-433.46
12:44:10.609375,-381.97
12:44:10.625000,-326.47
12:44:10.640625,-269.23
12:44:10.656250,-211.95
12:44:10.671875,-155.90
12:44:10.687500,-102.12
12:44:10.703125,-51.46
12:44:10.718750,-4.90
12:44:10.734375,36.67
12:44:10.750000,72.62
12:44:10.765625,102.65
12:44:10.781250,126.92
12:44:10.796875,145.92
12:44:10.812500,160.38
12:44:10.828125,171.00
12:44:10.843750,178.40
12:44:10.859375,182.98
12:44:10.875000,185.03
12:44:10.890625,184.78
12:44:10.906250,182.49
12:44:10.921875,178.53
12:44:10.937500,173.30
12:44:10.953125,167.20
12:44:10.968750,160.59
12:44:10.984375,153.71
12:44:11,146.71
12:44:11.015625,139.65
12:44:11.031250,132.59
12:44:11.046875,125.56
12:44:11.062500,118.62
12:44:11.078125,111.85
12:44:11.093750,105.32
12:44:11.109375,99.07
12:44:11.125000,93.16
12:44:11.140625,87.58
12:44:11.156250,82.36
12:44:11.171875,77.49
12:44:11.187500,72.99
12:44:11.203125,68.87
12:44:11.218750,65.12
12:44:11.234375,61.77
12:44:11.250000,58.83
12:44:11.265625,56.28
12:44:11.281250,54.12
12:44:11.296875,52.34
12:44:11.312500,50.90
12:44:11.328125,49.76
12:44:11.343750,48.84
12:44:11.359375,48.02
12:44:11.375000,47.16
12:44:11.390625,46.09
12:44:11.406250,44.64
12:44:11.421875,42.63
12:44:11.437500,39.94
12:44:11.453125,36.45
12:44:11.468750,32.16
12:44:11.484375,27.11
12:44:11.500000,21.36
12:44:11.515625,15.10
12:44:11.531250,8.55
12:44:11.546875,1.98
12:44:11.562500,-4.34
12:44:11.578125,-10.16
12:44:11.593750,-15.27
12:44:11.609375,-19.48
12:44:11.625000,-22.71
12:44:11.640625,-24.91
12:44:11.656250,-26.11
12:44:11.671875,-26.38
12:44:11.687500,-25.86
12:44:11.703125,-24.68
12:44:11.718750,-23.00
12:44:11.734375,-20.97
12:44:11.750000,-18.70
12:44:11.765625,-16.30
12:44:11.781250,-13.84
12:44:11.796875,-11.35
12:44:11.812500,-8.88
12:44:11.828125,-6.45
12:44:11.843750,-4.06
12:44:11.859375,-1.71
12:44:11.875000,0.64
12:44:11.890625,2.98
12:44:11.906250,5.37
12:44:11.921875,7.81
12:44:11.937500,10.37
12:44:11.953125,13.02
12:44:11.968750,15.74
12:44:11.984375,18.53
12:44:12,21.42
12:44:12.015625,24.41
12:44:12.031250,27.54
12:44:12.046875,30.83
12:44:12.062500,34.34
12:44:12.078125,38.13
12:44:12.093750,42.11
12:44:12.109375,46.24
12:44:12.125000,50.49
12:44:12.140625,54.85
12:44:12.156250,59.32
12:44:12.171875,63.92
12:44:12.187500,68.68
12:44:12.203125,73.65
12:44:12.218750,78.94
12:44:12.234375,84.39
12:44:12.250000,89.94
12:44:12.265625,95.54
12:44:12.281250,101.18
12:44:12.296875,106.85
12:44:12.312500,112.56
12:44:12.328125,118.31
12:44:12.343750,124.13
12:44:12.359375,130.07
12:44:12.375000,135.83
12:44:12.390625,141.19
12:44:12.406250,145.92
12:44:12.421875,149.77
12:44:12.437500,152.46
12:44:12.453125,153.60
12:44:12.468750,152.72
12:44:12.484375,149.12
12:44:12.500000,144.13
12:44:12.515625,138.20
12:44:12.531250,131.69
12:44:12.546875,124.80
12:44:12.562500,117.72
12:44:12.578125,110.61
12:44:12.593750,103.57
12:44:12.609375,96.73
12:44:12.625000,90.21
12:44:12.640625,84.18
12:44:12.656250,78.45
12:44:12.671875,72.96
12:44:12.687500,67.65
12:44:12.703125,62.51
12:44:12.718750,57.53
12:44:12.734375,52.73
12:44:12.750000,48.16
12:44:12.765625,43.88
12:44:12.781250,39.98
12:44:12.796875,36.33
12:44:12.812500,32.87
12:44:12.828125,29.54
12:44:12.843750,26.34
12:44:12.859375,23.26
12:44:12.875000,20.32
12:44:12.890625,17.53
12:44:12.906250,14.95
12:44:12.921875,12.64
12:44:12.937500,10.50
12:44:12.953125,8.52
12:44:12.968750,6.67
12:44:12.984375,4.95
12:44:13,3.41
12:44:13.015625,2.04
12:44:13.031250,0.86
12:44:13.046875,-0.12
12:44:13.062500,-0.92
12:44:13.078125,-1.60
12:44:13.093750,-2.21
12:44:13.109375,-2.79
12:44:13.125000,-3.33
12:44:13.140625,-3.83
12:44:13.156250,-4.27
12:44:13.171875,-4.69
12:44:13.187500,-5.07
12:44:13.203125,-5.48
12:44:13.218750,-5.96
12:44:13.234375,-6.54
12:44:13.250000,-7.22
12:44:13.265625,-8.00
12:44:13.281250,-8.80
12:44:13.296875,-9.63
12:44:13.312500,-10.47
12:44:13.328125,-11.36
12:44:13.343750,-12.37
12:44:13.359375,-13.56
12:44:13.375000,-14.94
12:44:13.390625,-16.47
12:44:13.406250,-18.05
12:44:13.421875,-19.54
12:44:13.437500,-20.82
12:44:13.453125,-21.92
12:44:13.468750,-22.92
12:44:13.484375,-24.03
12:44:13.500000,-25.45
12:44:13.515625,-27.30
12:44:13.531250,-29.55
12:44:13.546875,-32.02
12:44:13.562500,-34.46
12:44:13.578125,-36.70
12:44:13.593750,-38.80
12:44:13.609375,-41.01
12:44:13.625000,-43.77
12:44:13.640625,-47.49
12:44:13.656250,-52.40
12:44:13.671875,-58.40
12:44:13.687500,-65.10
12:44:13.703125,-71.99
12:44:13.718750,-78.65
12:44:13.734375,-85.03
12:44:13.750000,-91.46
12:44:13.765625,-98.56
12:44:13.781250,-106.97
12:44:13.796875,-117.03
12:44:13.812500,-128.63
12:44:13.828125,-141.28
12:44:13.843750,-154.30
12:44:13.859375,-167.16
12:44:13.875000,-179.66
12:44:13.890625,-192.02
12:44:13.906250,-204.77
12:44:13.921875,-218.66
12:44:13.937500,-234.63
12:44:13.953125,-253.66
12:44:13.968750,-276.32
12:44:13.984375,-302.12
12:44:14,-328.95
12:44:14.015625,-353.09
12:44:14.031250,-370.07
12:44:14.046875,-376.17
12:44:14.062500,-369.77
12:44:14.078125,-351.98
12:44:14.093750,-326.04
12:44:14.109375,-295.99
12:44:14.125000,-265.26
12:44:14.140625,-235.88
12:44:14.156250,-208.65
12:44:14.171875,-183.74
12:44:14.187500,-161.30
12:44:14.203125,-141.51
12:44:14.218750,-124.35
12:44:14.234375,-109.30
12:44:14.250000,-95.41
12:44:14.265625,-81.70
12:44:14.281250,-67.68
12:44:14.296875,-53.56
12:44:14.312500,-40.09
12:44:14.328125,-28.19
12:44:14.343750,-18.53
12:44:14.359375,-11.35
12:44:14.375000,-6.40
12:44:14.390625,-3.09
12:44:14.406250,-0.64
12:44:14.421875,1.67
12:44:14.437500,4.37
12:44:14.453125,7.59
12:44:14.468750,11.04
12:44:14.484375,14.13
12:44:14.500000,16.22
12:44:14.515625,16.90
12:44:14.531250,16.18
12:44:14.546875,14.46
12:44:14.562500,12.34
12:44:14.578125,10.39
12:44:14.593750,8.85
12:44:14.609375,7.65
12:44:14.625000,6.49
12:44:14.640625,5.03
12:44:14.656250,3.01
12:44:14.671875,0.29
12:44:14.687500,-3.20
12:44:14.703125,-7.51
12:44:14.718750,-12.62
12:44:14.734375,-18.34
12:44:14.750000,-24.19
12:44:14.765625,-29.33
12:44:14.781250,-32.69
12:44:14.796875,-33.29
12:44:14.812500,-30.51
12:44:14.828125,-24.40
12:44:14.843750,-15.64
12:44:14.859375,-5.36
12:44:14.875000,5.26
12:44:14.890625,15.28
12:44:14.906250,24.19
12:44:14.921875,31.95
12:44:14.937500,38.74
12:44:14.953125,44.74
12:44:14.968750,49.97
12:44:14.984375,54.27
12:44:15,57.38
12:44:15.015625,59.15
12:44:15.031250,59.68
12:44:15.046875,59.34
12:44:15.062500,58.67
12:44:15.078125,58.12
12:44:15.093750,57.99
12:44:15.109375,58.27
12:44:15.125000,58.76
12:44:15.140625,59.16
12:44:15.156250,59.20
12:44:15.171875,58.73
12:44:15.187500,57.76
12:44:15.203125,56.42
12:44:15.218750,54.84
12:44:15.234375,53.12
12:44:15.250000,51.27
12:44:15.265625,49.21
12:44:15.281250,46.82
12:44:15.296875,43.99
12:44:15.312500,40.68
12:44:15.328125,37.01
12:44:15.343750,33.14
12:44:15.359375,29.29
12:44:15.375000,25.62
12:44:15.390625,22.18
12:44:15.406250,18.90
12:44:15.421875,15.69
12:44:15.437500,12.43
12:44:15.453125,9.08
12:44:15.468750,5.60
12:44:15.484375,1.99
12:44:15.500000,-1.78
12:44:15.515625,-5.75
12:44:15.531250,-9.91
12:44:15.546875,-14.21
12:44:15.562500,-18.55
12:44:15.578125,-22.86
12:44:15.593750,-27.13
12:44:15.609375,-31.54
12:44:15.625000,-36.37
12:44:15.640625,-41.86
12:44:15.656250,-48.00
12:44:15.671875,-54.28
12:44:15.687500,-59.69
12:44:15.703125,-62.89
12:44:15.718750,-62.66
12:44:15.734375,-58.29
12:44:15.750000,-49.86
12:44:15.765625,-38.28
12:44:15.781250,-25.02
12:44:15.796875,-11.65
12:44:15.812500,0.63
12:44:15.828125,11.23
12:44:15.843750,20.13
12:44:15.859375,27.69
12:44:15.875000,34.29
12:44:15.890625,40.07
12:44:15.906250,44.92
12:44:15.921875,48.57
12:44:15.937500,50.88
12:44:15.953125,51.96
12:44:15.968750,52.26
12:44:15.984375,52.31
12:44:16,52.53
12:44:16.015625,52.95
12:44:16.031250,53.24
12:44:16.046875,52.92
12:44:16.062500,51.65
12:44:16.078125,49.52
12:44:16.093750,47.05
12:44:16.109375,44.89
12:44:16.125000,43.51
12:44:16.140625,42.92
12:44:16.156250,42.69
12:44:16.171875,42.16
12:44:16.187500,40.78
12:44:16.203125,38.40
12:44:16.218750,35.23
12:44:16.234375,31.74
12:44:16.250000,28.37
12:44:16.265625,25.33
12:44:16.281250,22.57
12:44:16.296875,19.84
12:44:16.312500,16.91
12:44:16.328125,13.65
12:44:16.343750,10.03
12:44:16.359375,6.06
12:44:16.375000,1.73
12:44:16.390625,-2.96
12:44:16.406250,-7.93
12:44:16.421875,-12.98
12:44:16.437500,-17.83
12:44:16.453125,-22.21
12:44:16.468750,-26.02
12:44:16.484375,-29.49
12:44:16.500000,-32.97
12:44:16.515625,-36.89
12:44:16.531250,-41.49
12:44:16.546875,-46.79
12:44:16.562500,-52.55
12:44:16.578125,-58.31
12:44:16.593750,-63.40
12:44:16.609375,-66.92
12:44:16.625000,-67.86
12:44:16.640625,-65.31
12:44:16.656250,-58.87
12:44:16.671875,-48.91
12:44:16.687500,-36.59
12:44:16.703125,-23.55
12:44:16.718750,-11.31
12:44:16.734375,-0.80
12:44:16.750000,7.86
12:44:16.765625,15.15
12:44:16.781250,21.76
12:44:16.796875,28.08
12:44:16.812500,34.06
12:44:16.828125,39.29
12:44:16.843750,43.25
12:44:16.859375,45.67
12:44:16.875000,46.60
12:44:16.890625,46.49
12:44:16.906250,45.89
12:44:16.921875,45.32
12:44:16.937500,45.10
12:44:16.953125,45.30
12:44:16.968750,45.81
12:44:16.984375,46.42
12:44:17,46.88
12:44:17.015625,46.93
12:44:17.031250,46.34
12:44:17.046875,44.97
12:44:17.062500,42.83
12:44:17.078125,40.10
12:44:17.093750,37.18
12:44:17.109375,34.52
12:44:17.125000,32.49
12:44:17.140625,31.18
12:44:17.156250,30.32
12:44:17.171875,29.40
12:44:17.187500,27.82
12:44:17.203125,25.17
12:44:17.218750,21.39
12:44:17.234375,16.70
12:44:17.250000,11.64
12:44:17.265625,6.75
12:44:17.281250,2.47
12:44:17.296875,-1.08
12:44:17.312500,-4.09
12:44:17.328125,-6.92
12:44:17.343750,-9.94
12:44:17.359375,-13.38
12:44:17.375000,-17.25
12:44:17.390625,-21.37
12:44:17.406250,-25.51
12:44:17.421875,-29.49
12:44:17.437500,-33.25
12:44:17.453125,-36.89
12:44:17.468750,-40.58
12:44:17.484375,-44.53
12:44:17.500000,-48.86
12:44:17.515625,-53.54
12:44:17.531250,-58.31
12:44:17.546875,-62.54
12:44:17.562500,-65.36
12:44:17.578125,-65.79
12:44:17.593750,-63.05
12:44:17.609375,-56.86
12:44:17.625000,-47.57
12:44:17.640625,-36.09
12:44:17.656250,-23.65
12:44:17.671875,-11.41
12:44:17.687500,-0.19
12:44:17.703125,9.55
12:44:17.718750,17.76
12:44:17.734375,24.54
12:44:17.750000,30.03
12:44:17.765625,34.33
12:44:17.781250,37.51
12:44:17.796875,39.66
12:44:17.812500,40.94
12:44:17.828125,41.59
12:44:17.843750,41.85
12:44:17.859375,41.95
12:44:17.875000,42.03
12:44:17.890625,42.07
12:44:17.906250,41.96
12:44:17.921875,41.57
12:44:17.937500,40.89
12:44:17.953125,40.02
12:44:17.968750,39.25
12:44:17.984375,38.82
12:44:18,38.78
12:44:18.015625,38.93
12:44:18.031250,38.80
12:44:18.046875,37.87
12:44:18.062500,35.85
12:44:18.078125,32.85
12:44:18.093750,29.32
12:44:18.109375,25.91
12:44:18.125000,23.10
12:44:18.140625,20.95
12:44:18.156250,19.11
12:44:18.171875,17.03
12:44:18.187500,14.28
12:44:18.203125,10.81
12:44:18.218750,6.98
12:44:18.234375,3.28
12:44:18.250000,0.05
12:44:18.265625,-2.76
12:44:18.281250,-5.56
12:44:18.296875,-8.85
12:44:18.312500,-12.90
12:44:18.328125,-17.54
12:44:18.343750,-22.23
12:44:18.359375,-26.44
12:44:18.375000,-29.85
12:44:18.390625,-32.54
12:44:18.406250,-35.00
12:44:18.421875,-37.73
12:44:18.437500,-41.12
12:44:18.453125,-45.25
12:44:18.468750,-49.96
12:44:18.484375,-54.83
12:44:18.500000,-59.31
12:44:18.515625,-62.63
12:44:18.531250,-63.89
12:44:18.546875,-62.26
12:44:18.562500,-57.26
12:44:18.578125,-49.03
12:44:18.593750,-38.43
12:44:18.609375,-26.76
12:44:18.625000,-15.31
12:44:18.640625,-4.96
12:44:18.656250,3.98
12:44:18.671875,11.66
12:44:18.687500,18.33
12:44:18.703125,24.08
12:44:18.718750,28.84
12:44:18.734375,32.46
12:44:18.750000,34.94
12:44:18.765625,36.52
12:44:18.781250,37.52
12:44:18.796875,38.26
12:44:18.812500,38.91
12:44:18.828125,39.48
12:44:18.843750,39.95
12:44:18.859375,40.30
12:44:18.875000,40.51
12:44:18.890625,40.61
12:44:18.906250,40.51
12:44:18.921875,40.13
12:44:18.937500,39.38
12:44:18.953125,38.21
12:44:18.968750,36.60
12:44:18.984375,34.51
12:44:19,31.93
12:44:19.015625,28.90
12:44:19.031250,25.61
12:44:19.046875,22.32
12:44:19.062500,19.31
12:44:19.078125,16.71
12:44:19.093750,14.50
12:44:19.109375,12.44
12:44:19.125000,10.27
12:44:19.140625,7.86
12:44:19.156250,5.23
12:44:19.171875,2.57
12:44:19.187500,0.01
12:44:19.203125,-2.43
12:44:19.218750,-4.88
12:44:19.234375,-7.53
12:44:19.250000,-10.52
12:44:19.265625,-13.82
12:44:19.281250,-17.31
12:44:19.296875,-20.85
12:44:19.312500,-24.29
12:44:19.328125,-27.61
12:44:19.343750,-30.89
12:44:19.359375,-34.30
12:44:19.375000,-38.08
12:44:19.390625,-42.45
12:44:19.406250,-47.42
12:44:19.421875,-52.66
12:44:19.437500,-57.35
12:44:19.453125,-60.37
12:44:19.468750,-60.54
12:44:19.484375,-57.18
12:44:19.500000,-50.28
12:44:19.515625,-40.61
12:44:19.531250,-29.40
12:44:19.546875,-17.90
12:44:19.562500,-7.07
12:44:19.578125,2.64
12:44:19.593750,11.13
12:44:19.609375,18.46
12:44:19.625000,24.70
12:44:19.640625,29.80
12:44:19.656250,33.66
12:44:19.671875,36.19
12:44:19.687500,37.42
12:44:19.703125,37.61
12:44:19.718750,37.16
12:44:19.734375,36.58
12:44:19.750000,36.24
12:44:19.765625,36.23
12:44:19.781250,36.35
12:44:19.796875,36.22
12:44:19.812500,35.57
12:44:19.828125,34.42
12:44:19.843750,33.07
12:44:19.859375,31.94
12:44:19.875000,31.29
12:44:19.890625,31.03
12:44:19.906250,30.83
12:44:19.921875,30.21
12:44:19.937500,28.89
12:44:19.953125,26.84
12:44:19.968750,24.25
12:44:19.984375,21.38
12:44:20,18.44
12:44:20.015625,15.52
12:44:20.031250,12.60
12:44:20.046875,9.64
12:44:20.062500,6.66
12:44:20.078125,3.72
12:44:20.093750,0.89
12:44:20.109375,-1.86
12:44:20.125000,-4.60
12:44:20.140625,-7.44
12:44:20.156250,-10.46
12:44:20.171875,-13.69
12:44:20.187500,-17.01
12:44:20.203125,-20.28
12:44:20.218750,-23.32
12:44:20.234375,-26.05
12:44:20.250000,-28.53
12:44:20.265625,-30.95
12:44:20.281250,-33.63
12:44:20.296875,-36.90
12:44:20.312500,-40.99
12:44:20.328125,-45.85
12:44:20.343750,-51.02
12:44:20.359375,-55.65
12:44:20.375000,-58.58
12:44:20.390625,-58.70
12:44:20.406250,-55.36
12:44:20.421875,-48.57
12:44:20.437500,-39.14
12:44:20.453125,-28.34
12:44:20.468750,-17.50
12:44:20.484375,-7.58
12:44:20.500000,1.00
12:44:20.515625,8.30
12:44:20.531250,14.57
12:44:20.546875,19.90
12:44:20.562500,24.20
12:44:20.578125,27.19
12:44:20.593750,28.71
12:44:20.609375,28.90
12:44:20.625000,28.24
12:44:20.640625,27.41
12:44:20.656250,27.02
12:44:20.671875,27.32
12:44:20.687500,28.26
12:44:20.703125,29.45
12:44:20.718750,30.53
12:44:20.734375,31.23
12:44:20.750000,31.53
12:44:20.765625,31.52
12:44:20.781250,31.34
12:44:20.796875,31.04
12:44:20.812500,30.58
12:44:20.828125,29.90
12:44:20.843750,28.97
12:44:20.859375,27.77
12:44:20.875000,26.19
12:44:20.890625,24.13
12:44:20.906250,21.46
12:44:20.921875,18.16
12:44:20.937500,14.36
12:44:20.953125,10.40
12:44:20.968750,6.57
12:44:20.984375,3.05
12:44:21,-0.22
12:44:21.015625,-3.48
12:44:21.031250,-6.89
12:44:21.046875,-10.46
12:44:21.062500,-13.98
12:44:21.078125,-17.14
12:44:21.093750,-19.80
12:44:21.109375,-22.11
12:44:21.125000,-24.43
12:44:21.140625,-27.22
12:44:21.156250,-30.80
12:44:21.171875,-35.24
12:44:21.187500,-40.29
12:44:21.203125,-45.55
12:44:21.218750,-50.47
12:44:21.234375,-54.40
12:44:21.250000,-56.59
12:44:21.265625,-56.26
12:44:21.281250,-52.85
12:44:21.296875,-46.21
12:44:21.312500,-36.75
12:44:21.328125,-25.49
12:44:21.343750,-13.76
12:44:21.359375,-2.83
12:44:21.375000,6.39
12:44:21.390625,13.50
12:44:21.406250,18.58
12:44:21.421875,21.94
12:44:21.437500,23.93
12:44:21.453125,24.83
12:44:21.468750,24.86
12:44:21.484375,24.29
12:44:21.500000,23.52
12:44:21.515625,22.96
12:44:21.531250,22.93
12:44:21.546875,23.48
12:44:21.562500,24.37
12:44:21.578125,25.21
12:44:21.593750,25.65
12:44:21.609375,25.61
12:44:21.625000,25.25
12:44:21.640625,24.85
12:44:21.656250,24.64
12:44:21.671875,24.58
12:44:21.687500,24.43
12:44:21.703125,23.86
12:44:21.718750,22.60
12:44:21.734375,20.61
12:44:21.750000,18.02
12:44:21.765625,15.06
12:44:21.781250,11.95
12:44:21.796875,8.84
12:44:21.812500,5.81
12:44:21.828125,2.91
12:44:21.843750,0.15
12:44:21.859375,-2.50
12:44:21.875000,-5.12
12:44:21.890625,-7.80
12:44:21.906250,-10.62
12:44:21.921875,-13.55
12:44:21.937500,-16.54
12:44:21.953125,-19.49
12:44:21.968750,-22.41
12:44:21.984375,-25.39
12:44:22,-28.68
12:44:22.015625,-32.55
12:44:22.031250,-37.20
12:44:22.046875,-42.54
12:44:22.062500,-48.11
12:44:22.078125,-53.01
12:44:22.093750,-56.06
12:44:22.109375,-56.11
12:44:22.125000,-52.43
12:44:22.140625,-44.97
12:44:22.156250,-34.46
12:44:22.171875,-22.25
12:44:22.187500,-9.81
12:44:22.203125,1.64
12:44:22.218750,11.38
12:44:22.234375,19.20
12:44:22.250000,25.15
12:44:22.265625,29.39
12:44:22.281250,32.08
12:44:22.296875,33.43
12:44:22.312500,33.75
12:44:22.328125,33.53
12:44:22.343750,33.31
12:44:22.359375,33.41
12:44:22.375000,33.90
12:44:22.390625,34.57
12:44:22.406250,35.08
12:44:22.421875,35.22
12:44:22.437500,34.98
12:44:22.453125,34.47
12:44:22.468750,33.83
12:44:22.484375,33.01
12:44:22.500000,31.81
12:44:22.515625,30.01
12:44:22.531250,27.46
12:44:22.546875,24.19
12:44:22.562500,20.37
12:44:22.578125,16.30
12:44:22.593750,12.22
12:44:22.609375,8.37
12:44:22.625000,4.81
12:44:22.640625,1.50
12:44:22.656250,-1.73
12:44:22.671875,-5.11
12:44:22.687500,-8.81
12:44:22.703125,-12.87
12:44:22.718750,-17.05
12:44:22.734375,-20.99
12:44:22.750000,-24.32
12:44:22.765625,-26.86
12:44:22.781250,-28.72
12:44:22.796875,-30.28
12:44:22.812500,-32.05
12:44:22.828125,-34.56
12:44:22.843750,-38.16
12:44:22.859375,-42.87
12:44:22.875000,-48.31
12:44:22.890625,-53.59
12:44:22.906250,-57.52
12:44:22.921875,-58.82
12:44:22.937500,-56.52
12:44:22.953125,-50.32
12:44:22.968750,-40.71
12:44:22.984375,-28.86
12:44:23,-16.21
12:44:23.015625,-4.05
12:44:23.031250,6.78
12:44:23.046875,15.96
12:44:23.062500,23.60
12:44:23.078125,29.87
12:44:23.093750,34.89
12:44:23.109375,38.60
12:44:23.125000,40.90
12:44:23.140625,41.79
12:44:23.156250,41.45
12:44:23.171875,40.29
12:44:23.187500,38.78
12:44:23.203125,37.36
12:44:23.218750,36.23
12:44:23.234375,35.37
12:44:23.250000,34.64
12:44:23.265625,33.91
12:44:23.281250,33.14
12:44:23.296875,32.33
12:44:23.312500,31.46
12:44:23.328125,30.40
12:44:23.343750,28.97
12:44:23.359375,26.98
12:44:23.375000,24.37
12:44:23.390625,21.26
12:44:23.406250,17.85
12:44:23.421875,14.30
12:44:23.437500,10.68
12:44:23.453125,6.96
12:44:23.468750,3.11
12:44:23.484375,-0.83
12:44:23.500000,-4.76
12:44:23.515625,-8.57
12:44:23.531250,-12.21
12:44:23.546875,-15.72
12:44:23.562500,-19.21
12:44:23.578125,-22.72
12:44:23.593750,-26.22
12:44:23.609375,-29.75
12:44:23.625000,-33.43
12:44:23.640625,-37.60
12:44:23.656250,-42.60
12:44:23.671875,-48.55
12:44:23.687500,-55.08
12:44:23.703125,-61.18
12:44:23.718750,-65.47
12:44:23.734375,-66.56
12:44:23.750000,-63.51
12:44:23.765625,-56.24
12:44:23.781250,-45.45
12:44:23.796875,-32.50
12:44:23.812500,-18.94
12:44:23.828125,-6.08
12:44:23.843750,5.26
12:44:23.859375,14.88
12:44:23.875000,22.99
12:44:23.890625,29.99
12:44:23.906250,36.10
12:44:23.921875,41.27
12:44:23.937500,45.23
12:44:23.953125,47.70
12:44:23.968750,48.65
12:44:23.984375,48.39
12:44:24,47.51
12:44:24.015625,46.58
12:44:24.031250,45.93
12:44:24.046875,45.54
12:44:24.062500,45.13
12:44:24.078125,44.42
12:44:24.093750,43.27
12:44:24.109375,41.79
12:44:24.125000,40.12
12:44:24.140625,38.35
12:44:24.156250,36.30
12:44:24.171875,33.69
12:44:24.187500,30.21
12:44:24.203125,25.76
12:44:24.218750,20.59
12:44:24.234375,15.18
12:44:24.250000,10.09
12:44:24.265625,5.70
12:44:24.281250,2.06
12:44:24.296875,-1.09
12:44:24.312500,-4.24
12:44:24.328125,-7.85
12:44:24.343750,-12.08
12:44:24.359375,-16.77
12:44:24.375000,-21.47
12:44:24.390625,-25.71
12:44:24.406250,-29.16
12:44:24.421875,-31.85
12:44:24.437500,-34.05
12:44:24.453125,-36.23
12:44:24.468750,-38.90
12:44:24.484375,-42.52
12:44:24.500000,-47.41
12:44:24.515625,-53.66
12:44:24.531250,-60.94
12:44:24.546875,-68.38
12:44:24.562500,-74.58
12:44:24.578125,-77.90
12:44:24.593750,-76.93
12:44:24.609375,-70.98
12:44:24.625000,-60.41
12:44:24.640625,-46.54
12:44:24.656250,-31.23
12:44:24.671875,-16.26
12:44:24.687500,-2.85
12:44:24.703125,8.56
12:44:24.718750,18.17
12:44:24.734375,26.41
12:44:24.750000,33.63
12:44:24.765625,39.94
12:44:24.781250,45.18
12:44:24.796875,49.23
12:44:24.812500,52.04
12:44:24.828125,53.78
12:44:24.843750,54.68
12:44:24.859375,54.96
12:44:24.875000,54.70
12:44:24.890625,53.87
12:44:24.906250,52.47
12:44:24.921875,50.57
12:44:24.937500,48.33
12:44:24.953125,45.93
12:44:24.968750,43.51
12:44:24.984375,41.09
12:44:25,38.61
12:44:25.015625,36.05
12:44:25.031250,33.43
12:44:25.046875,30.79
12:44:25.062500,28.13
12:44:25.078125,25.37
12:44:25.093750,22.37
12:44:25.109375,19.01
12:44:25.125000,15.31
12:44:25.140625,11.52
12:44:25.156250,7.97
12:44:25.171875,4.99
12:44:25.187500,2.68
12:44:25.203125,0.83
12:44:25.218750,-0.95
12:44:25.234375,-3.12
12:44:25.250000,-6.08
12:44:25.265625,-9.96
12:44:25.281250,-14.69
12:44:25.296875,-19.96
12:44:25.312500,-25.37
12:44:25.328125,-30.49
12:44:25.343750,-35.03
12:44:25.359375,-38.88
12:44:25.375000,-42.20
12:44:25.390625,-45.34
12:44:25.406250,-48.80
12:44:25.421875,-53.05
12:44:25.437500,-58.29
12:44:25.453125,-64.28
12:44:25.468750,-70.17
12:44:25.484375,-74.55
12:44:25.500000,-75.84
12:44:25.515625,-72.78
12:44:25.531250,-64.94
12:44:25.546875,-52.92
12:44:25.562500,-38.29
12:44:25.578125,-22.95
12:44:25.593750,-8.59
12:44:25.609375,3.85
12:44:25.625000,14.23
12:44:25.640625,23.00
12:44:25.656250,30.69
12:44:25.671875,37.63
12:44:25.687500,43.77
12:44:25.703125,48.82
12:44:25.718750,52.49
12:44:25.734375,54.66
12:44:25.750000,55.49
12:44:25.765625,55.30
12:44:25.781250,54.41
12:44:25.796875,53.04
12:44:25.812500,51.29
12:44:25.828125,49.25
12:44:25.843750,47.12
12:44:25.859375,45.23
12:44:25.875000,43.90
12:44:25.890625,43.26
12:44:25.906250,43.03
12:44:25.921875,42.66
12:44:25.937500,41.45
12:44:25.953125,38.99
12:44:25.968750,35.28
12:44:25.984375,30.76
12:44:26,26.10
12:44:26.015625,21.91
12:44:26.031250,18.52
12:44:26.046875,15.93
12:44:26.062500,13.83
12:44:26.078125,11.83
12:44:26.093750,9.64
12:44:26.109375,7.08
12:44:26.125000,4.13
12:44:26.140625,0.94
12:44:26.156250,-2.41
12:44:26.171875,-5.83
12:44:26.187500,-9.35
12:44:26.203125,-13.06
12:44:26.218750,-17.04
12:44:26.234375,-21.27
12:44:26.250000,-25.58
12:44:26.265625,-29.69
12:44:26.281250,-33.29
12:44:26.296875,-36.19
12:44:26.312500,-38.36
12:44:26.328125,-39.96
12:44:26.343750,-41.24
12:44:26.359375,-42.57
12:44:26.375000,-44.33
12:44:26.390625,-46.91
12:44:26.406250,-50.52
12:44:26.421875,-55.06
12:44:26.437500,-59.92
12:44:26.453125,-63.98
12:44:26.468750,-65.81
12:44:26.484375,-64.10
12:44:26.500000,-58.22
12:44:26.515625,-48.43
12:44:26.531250,-35.91
12:44:26.546875,-22.28
12:44:26.562500,-9.12
12:44:26.578125,2.55
12:44:26.593750,12.37
12:44:26.609375,20.50
12:44:26.625000,27.28
12:44:26.640625,32.92
12:44:26.656250,37.46
12:44:26.671875,40.87
12:44:26.687500,43.23
12:44:26.703125,44.82
12:44:26.718750,45.95
12:44:26.734375,46.86
12:44:26.750000,47.57
12:44:26.765625,47.89
12:44:26.781250,47.60
12:44:26.796875,46.61
12:44:26.812500,45.03
12:44:26.828125,43.12
12:44:26.843750,41.16
12:44:26.859375,39.32
12:44:26.875000,37.62
12:44:26.890625,36.01
12:44:26.906250,34.34
12:44:26.921875,32.48
12:44:26.937500,30.31
12:44:26.953125,27.83
12:44:26.968750,25.12
12:44:26.984375,22.35
12:44:27,19.73
12:44:27.015625,17.38
12:44:27.031250,15.30
12:44:27.046875,13.37
12:44:27.062500,11.38
12:44:27.078125,9.22
12:44:27.093750,6.90
12:44:27.109375,4.49
12:44:27.125000,2.14
12:44:27.140625,-0.04
12:44:27.156250,-2.02
12:44:27.171875,-3.83
12:44:27.187500,-5.55
12:44:27.203125,-7.38
12:44:27.218750,-9.53
12:44:27.234375,-12.19
12:44:27.250000,-15.42
12:44:27.265625,-19.05
12:44:27.281250,-22.74
12:44:27.296875,-26.12
12:44:27.312500,-28.94
12:44:27.328125,-31.27
12:44:27.343750,-33.45
12:44:27.359375,-36.00
12:44:27.375000,-39.38
12:44:27.390625,-43.81
12:44:27.406250,-49.14
12:44:27.421875,-54.92
12:44:27.437500,-60.41
12:44:27.453125,-64.68
12:44:27.468750,-66.75
12:44:27.484375,-65.71
12:44:27.500000,-60.94
12:44:27.515625,-52.42
12:44:27.531250,-40.79
12:44:27.546875,-27.33
12:44:27.562500,-13.59
12:44:27.578125,-1.03
12:44:27.593750,9.43
12:44:27.609375,17.42
12:44:27.625000,23.09
12:44:27.640625,26.78
12:44:27.656250,28.82
12:44:27.671875,29.51
12:44:27.687500,29.16
12:44:27.703125,28.22
12:44:27.718750,27.23
12:44:27.734375,26.72
12:44:27.750000,26.98
12:44:27.765625,27.95
12:44:27.781250,29.34
12:44:27.796875,30.78
12:44:27.812500,31.95
12:44:27.828125,32.69
12:44:27.843750,32.98
12:44:27.859375,32.86
12:44:27.875000,32.32
12:44:27.890625,31.36
12:44:27.906250,29.98
12:44:27.921875,28.25
12:44:27.937500,26.31
12:44:27.953125,24.27
12:44:27.968750,22.29
12:44:27.984375,20.38
12:44:28,18.50
12:44:28.015625,16.51
12:44:28.031250,14.25
12:44:28.046875,11.58
12:44:28.062500,8.54
12:44:28.078125,5.28
12:44:28.093750,2.01
12:44:28.109375,-1.02
12:44:28.125000,-3.74
12:44:28.140625,-6.29
12:44:28.156250,-8.91
12:44:28.171875,-11.86
12:44:28.187500,-15.19
12:44:28.203125,-18.71
12:44:28.218750,-22.05
12:44:28.234375,-24.87
12:44:28.250000,-27.03
12:44:28.265625,-28.78
12:44:28.281250,-30.69
12:44:28.296875,-33.33
12:44:28.312500,-37.02
12:44:28.328125,-41.63
12:44:28.343750,-46.61
12:44:28.359375,-51.18
12:44:28.375000,-54.56
12:44:28.390625,-56.12
12:44:28.406250,-55.38
12:44:28.421875,-52.05
12:44:28.437500,-46.01
12:44:28.453125,-37.53
12:44:28.468750,-27.24
12:44:28.484375,-16.14
12:44:28.500000,-5.33
12:44:28.515625,4.28
12:44:28.531250,12.20
12:44:28.546875,18.29
12:44:28.562500,22.69
12:44:28.578125,25.57
12:44:28.593750,27.07
12:44:28.609375,27.36
12:44:28.625000,26.79
12:44:28.640625,25.79
12:44:28.656250,24.93
12:44:28.671875,24.57
12:44:28.687500,24.86
12:44:28.703125,25.64
12:44:28.718750,26.57
12:44:28.734375,27.31
12:44:28.750000,27.63
12:44:28.765625,27.49
12:44:28.781250,26.96
12:44:28.796875,26.25
12:44:28.812500,25.50
12:44:28.828125,24.78
12:44:28.843750,24.00
12:44:28.859375,22.96
12:44:28.875000,21.44
12:44:28.890625,19.30
12:44:28.906250,16.55
12:44:28.921875,13.41
12:44:28.937500,10.22
12:44:28.953125,7.27
12:44:28.968750,4.70
12:44:28.984375,2.43
12:44:29,0.24
12:44:29.015625,-2.16
12:44:29.031250,-4.91
12:44:29.046875,-8.02
12:44:29.062500,-11.30
12:44:29.078125,-14.54
12:44:29.093750,-17.56
12:44:29.109375,-20.27
12:44:29.125000,-22.66
12:44:29.140625,-24.73
12:44:29.156250,-26.55
12:44:29.171875,-28.23
12:44:29.187500,-30.03
12:44:29.203125,-32.27
12:44:29.218750,-35.25
12:44:29.234375,-39.07
12:44:29.250000,-43.46
12:44:29.265625,-47.75
12:44:29.281250,-50.98
12:44:29.296875,-52.19
12:44:29.312500,-50.62
12:44:29.328125,-46.02
12:44:29.343750,-38.73
12:44:29.359375,-29.55
12:44:29.375000,-19.55
12:44:29.390625,-9.78
12:44:29.406250,-0.96
12:44:29.421875,6.56
12:44:29.437500,12.81
12:44:29.453125,17.96
12:44:29.468750,22.16
12:44:29.484375,25.34
12:44:29.500000,27.37
12:44:29.515625,28.15
12:44:29.531250,27.83
12:44:29.546875,26.83
12:44:29.562500,25.75
12:44:29.578125,25.09
12:44:29.593750,25.06
12:44:29.609375,25.50
12:44:29.625000,26.06
12:44:29.640625,26.29
12:44:29.656250,25.94
12:44:29.671875,25.02
12:44:29.687500,23.70
12:44:29.703125,22.23
12:44:29.718750,20.79
12:44:29.734375,19.45
12:44:29.750000,18.15
12:44:29.765625,16.79
12:44:29.781250,15.23
12:44:29.796875,13.37
12:44:29.812500,11.21
12:44:29.828125,8.85
12:44:29.843750,6.48
12:44:29.859375,4.25
12:44:29.875000,2.17
12:44:29.890625,0.11
12:44:29.906250,-2.22
12:44:29.921875,-5.05
12:44:29.937500,-8.46
12:44:29.953125,-12.25
12:44:29.968750,-16.05
12:44:29.984375,-19.48
12:44:30,-22.36
12:44:30.015625,-24.81
12:44:30.031250,-27.20
12:44:30.046875,-29.99
12:44:30.062500,-33.56
12:44:30.078125,-38.02
12:44:30.093750,-43.12
12:44:30.109375,-48.35
12:44:30.125000,-52.90
12:44:30.140625,-55.92
12:44:30.156250,-56.63
12:44:30.171875,-54.47
12:44:30.187500,-49.24
12:44:30.203125,-41.19
12:44:30.218750,-31.10
12:44:30.234375,-20.01
12:44:30.250000,-9.10
12:44:30.265625,0.70
12:44:30.281250,8.88
12:44:30.296875,15.37
12:44:30.312500,20.41
12:44:30.328125,24.30
12:44:30.343750,27.27
12:44:30.359375,29.35
12:44:30.375000,30.60
12:44:30.390625,31.12
12:44:30.406250,31.21
12:44:30.421875,31.23
12:44:30.437500,31.46
12:44:30.453125,31.91
12:44:30.468750,32.33
12:44:30.484375,32.34
12:44:30.500000,31.65
12:44:30.515625,30.29
12:44:30.531250,28.60
12:44:30.546875,27.12
12:44:30.562500,26.23
12:44:30.578125,26.01
12:44:30.593750,26.13
12:44:30.609375,26.04
12:44:30.625000,25.21
12:44:30.640625,23.36
12:44:30.656250,20.63
12:44:30.671875,17.37
12:44:30.687500,14.01
12:44:30.703125,10.83
12:44:30.718750,7.85
12:44:30.734375,4.89
12:44:30.750000,1.70
12:44:30.765625,-1.84
12:44:30.781250,-5.76
12:44:30.796875,-9.90
12:44:30.812500,-14.13
12:44:30.828125,-18.28
12:44:30.843750,-22.30
12:44:30.859375,-26.16
12:44:30.875000,-29.90
12:44:30.890625,-33.66
12:44:30.906250,-37.61
12:44:30.921875,-41.97
12:44:30.937500,-46.81
12:44:30.953125,-52.02
12:44:30.968750,-57.14
12:44:30.984375,-61.32
12:44:31,-63.56
12:44:31.015625,-62.91
12:44:31.031250,-58.88
12:44:31.046875,-51.57
12:44:31.062500,-41.69
12:44:31.078125,-30.39
12:44:31.093750,-18.87
12:44:31.109375,-8.10
12:44:31.125000,1.37
12:44:31.140625,9.36
12:44:31.156250,15.97
12:44:31.171875,21.41
12:44:31.187500,25.81
12:44:31.203125,29.23
12:44:31.218750,31.64
12:44:31.234375,33.09
12:44:31.250000,33.74
12:44:31.265625,33.88
12:44:31.281250,33.84
12:44:31.296875,33.91
12:44:31.312500,34.18
12:44:31.328125,34.50
12:44:31.343750,34.56
12:44:31.359375,34.06
12:44:31.375000,32.98
12:44:31.390625,31.61
12:44:31.406250,30.46
12:44:31.421875,29.97
12:44:31.437500,30.20
12:44:31.453125,30.75
12:44:31.468750,30.89
12:44:31.484375,29.91
12:44:31.500000,27.52
12:44:31.515625,23.95
12:44:31.531250,19.83
12:44:31.546875,15.88
12:44:31.562500,12.60
12:44:31.578125,10.05
12:44:31.593750,7.90
12:44:31.609375,5.62
12:44:31.625000,2.78
12:44:31.640625,-0.83
12:44:31.656250,-5.09
12:44:31.671875,-9.60
12:44:31.687500,-13.91
12:44:31.703125,-17.63
12:44:31.718750,-20.63
12:44:31.734375,-23.09
12:44:31.750000,-25.39
12:44:31.765625,-28.00
12:44:31.781250,-31.34
12:44:31.796875,-35.69
12:44:31.812500,-41.09
12:44:31.828125,-47.28
12:44:31.843750,-53.67
12:44:31.859375,-59.33
12:44:31.875000,-63.12
12:44:31.890625,-63.94
12:44:31.906250,-61.06
12:44:31.921875,-54.45
12:44:31.937500,-44.78
12:44:31.953125,-33.29
12:44:31.968750,-21.37
12:44:31.984375,-10.15
12:44:32,-0.26
12:44:32.015625,8.19
12:44:32.031250,15.39
12:44:32.046875,21.58
12:44:32.062500,26.86
12:44:32.078125,31.17
12:44:32.093750,34.34
12:44:32.109375,36.26
12:44:32.125000,36.94
12:44:32.140625,36.64
12:44:32.156250,35.77
12:44:32.171875,34.79
12:44:32.187500,34.12
12:44:32.203125,33.95
12:44:32.218750,34.16
12:44:32.234375,34.41
12:44:32.250000,34.30
12:44:32.265625,33.57
12:44:32.281250,32.23
12:44:32.296875,30.50
12:44:32.312500,28.69
12:44:32.328125,26.97
12:44:32.343750,25.24
12:44:32.359375,23.23
12:44:32.375000,20.71
12:44:32.390625,17.60
12:44:32.406250,14.18
12:44:32.421875,10.90
12:44:32.437500,8.17
12:44:32.453125,6.14
12:44:32.468750,4.56
12:44:32.484375,2.83
12:44:32.500000,0.24
12:44:32.515625,-3.62
12:44:32.531250,-8.63
12:44:32.546875,-14.15
12:44:32.562500,-19.26
12:44:32.578125,-23.16
12:44:32.593750,-25.59
12:44:32.609375,-26.89
12:44:32.625000,-27.85
12:44:32.640625,-29.35
12:44:32.656250,-31.86
12:44:32.671875,-35.46
12:44:32.687500,-39.85
12:44:32.703125,-44.67
12:44:32.718750,-49.60
12:44:32.734375,-54.32
12:44:32.750000,-58.28
12:44:32.765625,-60.57
12:44:32.781250,-60.03
12:44:32.796875,-55.71
12:44:32.812500,-47.39
12:44:32.828125,-35.80
12:44:32.843750,-22.59
12:44:32.859375,-9.65
12:44:32.875000,1.52
12:44:32.890625,10.32
12:44:32.906250,17.05
12:44:32.921875,22.54
12:44:32.937500,27.49
12:44:32.953125,32.14
12:44:32.968750,36.15
12:44:32.984375,38.96
12:44:33,40.17
12:44:33.015625,39.93
12:44:33.031250,38.86
12:44:33.046875,37.80
12:44:33.062500,37.41
12:44:33.078125,37.89
12:44:33.093750,38.91
12:44:33.109375,39.92
12:44:33.125000,40.45
12:44:33.140625,40.31
12:44:33.156250,39.61
12:44:33.171875,38.65
12:44:33.187500,37.56
12:44:33.203125,36.31
12:44:33.218750,34.66
12:44:33.234375,32.38
12:44:33.250000,29.41
12:44:33.265625,25.89
12:44:33.281250,22.10
12:44:33.296875,18.37
12:44:33.312500,15.00
12:44:33.328125,12.18
12:44:33.343750,10.03
12:44:33.359375,8.53
12:44:33.375000,7.40
12:44:33.390625,6.16
12:44:33.406250,4.18
12:44:33.421875,1.05
12:44:33.437500,-3.32
12:44:33.453125,-8.57
12:44:33.468750,-14.05
12:44:33.484375,-19.23
12:44:33.500000,-23.85
12:44:33.515625,-28.05
12:44:33.531250,-32.16
12:44:33.546875,-36.52
12:44:33.562500,-41.25
12:44:33.578125,-46.19
12:44:33.593750,-51.03
12:44:33.609375,-55.34
12:44:33.625000,-58.59
12:44:33.640625,-60.06
12:44:33.656250,-58.97
12:44:33.671875,-54.66
12:44:33.687500,-46.97
12:44:33.703125,-36.44
12:44:33.718750,-24.26
12:44:33.734375,-11.91
12:44:33.750000,-0.75
12:44:33.765625,8.38
12:44:33.781250,15.21
12:44:33.796875,19.92
12:44:33.812500,22.87
12:44:33.828125,24.47
12:44:33.843750,25.11
12:44:33.859375,25.14
12:44:33.875000,24.92
12:44:33.890625,24.71
12:44:33.906250,24.69
12:44:33.921875,24.84
12:44:33.937500,25.09
12:44:33.953125,25.37
12:44:33.968750,25.58
12:44:33.984375,25.71
12:44:34,25.67
12:44:34.015625,25.47
12:44:34.031250,25.14
12:44:34.046875,24.76
12:44:34.062500,24.38
12:44:34.078125,23.93
12:44:34.093750,23.18
12:44:34.109375,21.81
12:44:34.125000,19.59
12:44:34.140625,16.49
12:44:34.156250,12.82
12:44:34.171875,9.09
12:44:34.187500,5.80
12:44:34.203125,3.17
12:44:34.218750,1.18
12:44:34.234375,-0.46
12:44:34.250000,-2.10
12:44:34.265625,-4.04
12:44:34.281250,-6.41
12:44:34.296875,-9.21
12:44:34.312500,-12.33
12:44:34.328125,-15.61
12:44:34.343750,-18.95
12:44:34.359375,-22.29
12:44:34.375000,-25.71
12:44:34.390625,-29.42
12:44:34.406250,-33.61
12:44:34.421875,-38.32
12:44:34.437500,-43.28
12:44:34.453125,-47.79
12:44:34.468750,-50.87
12:44:34.484375,-51.48
12:44:34.500000,-48.89
12:44:34.515625,-42.91
12:44:34.531250,-33.99
12:44:34.546875,-23.11
12:44:34.562500,-11.52
12:44:34.578125,-0.43
12:44:34.593750,9.23
12:44:34.609375,16.92
12:44:34.625000,22.45
12:44:34.640625,25.98
12:44:34.656250,27.74
12:44:34.671875,28.02
12:44:34.687500,27.08
12:44:34.703125,25.25
12:44:34.718750,22.94
12:44:34.734375,20.65
12:44:34.750000,18.91
12:44:34.765625,18.14
12:44:34.781250,18.48
12:44:34.796875,19.72
12:44:34.812500,21.44
12:44:34.828125,23.08
12:44:34.843750,24.21
12:44:34.859375,24.57
12:44:34.875000,24.09
12:44:34.890625,22.85
12:44:34.906250,20.99
12:44:34.921875,18.66
12:44:34.937500,16.01
12:44:34.953125,13.14
12:44:34.968750,10.17
12:44:34.984375,7.17
12:44:35,4.23
12:44:35.015625,1.37
12:44:35.031250,-1.40
12:44:35.046875,-4.18
12:44:35.062500,-7.14
12:44:35.078125,-10.39
12:44:35.093750,-13.95
12:44:35.109375,-17.74
12:44:35.125000,-21.54
12:44:35.140625,-25.14
12:44:35.156250,-28.55
12:44:35.171875,-31.97
12:44:35.187500,-35.85
12:44:35.203125,-40.58
12:44:35.218750,-46.23
12:44:35.234375,-52.29
12:44:35.250000,-57.63
12:44:35.265625,-60.81
12:44:35.281250,-60.55
12:44:35.296875,-56.19
12:44:35.312500,-47.91
12:44:35.328125,-36.68
12:44:35.343750,-23.94
12:44:35.359375,-11.18
12:44:35.375000,0.43
12:44:35.390625,10.17
12:44:35.406250,17.78
12:44:35.421875,23.27
12:44:35.437500,26.81
12:44:35.453125,28.65
12:44:35.468750,29.16
12:44:35.484375,28.78
12:44:35.500000,28.04
12:44:35.515625,27.40
12:44:35.531250,27.16
12:44:35.546875,27.35
12:44:35.562500,27.74
12:44:35.578125,28.02
12:44:35.593750,27.92
12:44:35.609375,27.39
12:44:35.625000,26.51
12:44:35.640625,25.49
12:44:35.656250,24.49
12:44:35.671875,23.49
12:44:35.687500,22.37
12:44:35.703125,20.98
12:44:35.718750,19.20
12:44:35.734375,16.94
12:44:35.750000,14.16
12:44:35.765625,10.85
12:44:35.781250,7.02
12:44:35.796875,2.79
12:44:35.812500,-1.64
12:44:35.828125,-6.01
12:44:35.843750,-10.07
12:44:35.859375,-13.69
12:44:35.875000,-16.89
12:44:35.890625,-19.80
12:44:35.906250,-22.66
12:44:35.921875,-25.74
12:44:35.937500,-29.41
12:44:35.953125,-34.04
12:44:35.968750,-39.83
12:44:35.984375,-46.54
12:44:36,-53.38
12:44:36.015625,-59.05
12:44:36.031250,-62.05
12:44:36.046875,-61.20
12:44:36.062500,-56.12
12:44:36.078125,-47.34
12:44:36.093750,-36.11
12:44:36.109375,-23.91
12:44:36.125000,-11.92
12:44:36.140625,-0.79
12:44:36.156250,9.34
12:44:36.171875,18.56
12:44:36.187500,26.83
12:44:36.203125,33.90
12:44:36.218750,39.38
12:44:36.234375,42.90
12:44:36.250000,44.46
12:44:36.265625,44.41
12:44:36.281250,43.38
12:44:36.296875,42.06
12:44:36.312500,40.91
12:44:36.328125,40.08
12:44:36.343750,39.40
12:44:36.359375,38.59
12:44:36.375000,37.38
12:44:36.390625,35.71
12:44:36.406250,33.59
12:44:36.421875,31.10
12:44:36.437500,28.30
12:44:36.453125,25.20
12:44:36.468750,21.83
12:44:36.484375,18.25
12:44:36.500000,14.56
12:44:36.515625,10.82
12:44:36.531250,7.07
12:44:36.546875,3.23
12:44:36.562500,-0.77
12:44:36.578125,-4.96
12:44:36.593750,-9.25
12:44:36.609375,-13.53
12:44:36.625000,-17.66
12:44:36.640625,-21.50
12:44:36.656250,-25.01
12:44:36.671875,-28.23
12:44:36.687500,-31.35
12:44:36.703125,-34.68
12:44:36.718750,-38.66
12:44:36.734375,-43.64
12:44:36.750000,-49.68
12:44:36.765625,-56.30
12:44:36.781250,-62.44
12:44:36.796875,-66.68
12:44:36.812500,-67.59
12:44:36.828125,-64.26
12:44:36.843750,-56.57
12:44:36.859375,-45.31
12:44:36.875000,-31.89
12:44:36.890625,-17.87
12:44:36.906250,-4.59
12:44:36.921875,7.25
12:44:36.937500,17.49
12:44:36.953125,26.42
12:44:36.968750,34.35
12:44:36.984375,41.39
12:44:37,47.32
12:44:37.015625,51.71
12:44:37.031250,54.19
12:44:37.046875,54.67
12:44:37.062500,53.48
12:44:37.078125,51.26
12:44:37.093750,48.74
12:44:37.109375,46.39
12:44:37.125000,44.40
12:44:37.140625,42.62
12:44:37.156250,40.78
12:44:37.171875,38.74
12:44:37.187500,36.48
12:44:37.203125,34.11
12:44:37.218750,31.68
12:44:37.234375,29.10
12:44:37.250000,26.14
12:44:37.265625,22.61
12:44:37.281250,18.52
12:44:37.296875,14.16
12:44:37.312500,10.01
12:44:37.328125,6.43
12:44:37.343750,3.51
12:44:37.359375,0.89
12:44:37.375000,-1.98
12:44:37.390625,-5.58
12:44:37.406250,-10.03
12:44:37.421875,-14.99
12:44:37.437500,-19.88
12:44:37.453125,-24.17
12:44:37.468750,-27.68
12:44:37.484375,-30.63
12:44:37.500000,-33.60
12:44:37.515625,-37.20
12:44:37.531250,-41.92
12:44:37.546875,-47.91
12:44:37.562500,-54.95
12:44:37.578125,-62.29
12:44:37.593750,-68.69
12:44:37.609375,-72.60
12:44:37.625000,-72.59
12:44:37.640625,-67.79
12:44:37.656250,-58.33
12:44:37.671875,-45.28
12:44:37.687500,-30.42
12:44:37.703125,-15.49
12:44:37.718750,-1.73
12:44:37.734375,10.42
12:44:37.750000,21.20
12:44:37.765625,31.09
12:44:37.781250,40.30
12:44:37.796875,48.61
12:44:37.812500,55.41
12:44:37.828125,60.03
12:44:37.843750,62.13
12:44:37.859375,61.95
12:44:37.875000,60.17
12:44:37.890625,57.62
12:44:37.906250,54.96
12:44:37.921875,52.45
12:44:37.937500,49.99
12:44:37.953125,47.36
12:44:37.968750,44.46
12:44:37.984375,41.54
12:44:38,39.02
12:44:38.015625,37.18
12:44:38.031250,35.95
12:44:38.046875,34.82
12:44:38.062500,33.03
12:44:38.078125,29.94
12:44:38.093750,25.36
12:44:38.109375,19.62
12:44:38.125000,13.50
12:44:38.140625,7.80
12:44:38.156250,3.06
12:44:38.171875,-0.63
12:44:38.187500,-3.56
12:44:38.203125,-6.22
12:44:38.218750,-9.01
12:44:38.234375,-12.14
12:44:38.250000,-15.58
12:44:38.265625,-19.15
12:44:38.281250,-22.68
12:44:38.296875,-26.07
12:44:38.312500,-29.31
12:44:38.328125,-32.45
12:44:38.343750,-35.65
12:44:38.359375,-39.14
12:44:38.375000,-43.24
12:44:38.390625,-48.26
12:44:38.406250,-54.38
12:44:38.421875,-61.41
12:44:38.437500,-68.61
12:44:38.453125,-74.69
12:44:38.468750,-78.10
12:44:38.484375,-77.41
12:44:38.500000,-71.83
12:44:38.515625,-61.56
12:44:38.531250,-47.77
12:44:38.546875,-32.20
12:44:38.562500,-16.63
12:44:38.578125,-2.37
12:44:38.593750,10.04
12:44:38.609375,20.67
12:44:38.625000,29.89
12:44:38.640625,38.01
12:44:38.656250,45.03
12:44:38.671875,50.70
12:44:38.687500,54.68
12:44:38.703125,56.78
12:44:38.718750,57.14
12:44:38.734375,56.16
12:44:38.750000,54.45
12:44:38.765625,52.61
12:44:38.781250,51.09
12:44:38.796875,50.07
12:44:38.812500,49.48
12:44:38.828125,49.08
12:44:38.843750,48.51
12:44:38.859375,47.42
12:44:38.875000,45.63
12:44:38.890625,43.09
12:44:38.906250,39.94
12:44:38.921875,36.37
12:44:38.937500,32.61
12:44:38.953125,28.76
12:44:38.968750,24.88
12:44:38.984375,20.95
12:44:39,17.01
12:44:39.015625,13.17
12:44:39.031250,9.51
12:44:39.046875,6.15
12:44:39.062500,3.07
12:44:39.078125,0.20
12:44:39.093750,-2.58
12:44:39.109375,-5.34
12:44:39.125000,-8.14
12:44:39.140625,-11.01
12:44:39.156250,-14.03
12:44:39.171875,-17.25
12:44:39.187500,-20.68
12:44:39.203125,-24.27
12:44:39.218750,-27.82
12:44:39.234375,-31.22
12:44:39.250000,-34.44
12:44:39.265625,-37.69
12:44:39.281250,-41.33
12:44:39.296875,-45.73
12:44:39.312500,-51.14
12:44:39.328125,-57.52
12:44:39.343750,-64.45
12:44:39.359375,-71.08
12:44:39.375000,-76.17
12:44:39.390625,-78.27
12:44:39.406250,-76.16
12:44:39.421875,-69.25
12:44:39.437500,-57.90
12:44:39.453125,-43.42
12:44:39.468750,-27.66
12:44:39.484375,-12.41
12:44:39.500000,1.21
12:44:39.515625,12.89
12:44:39.531250,22.88
12:44:39.546875,31.58
12:44:39.562500,39.07
12:44:39.578125,45.11
12:44:39.593750,49.26
12:44:39.609375,51.29
12:44:39.625000,51.41
12:44:39.640625,50.18
12:44:39.656250,48.32
12:44:39.671875,46.42
12:44:39.687500,44.73
12:44:39.703125,43.27
12:44:39.718750,41.93
12:44:39.734375,40.63
12:44:39.750000,39.34
12:44:39.765625,38.09
12:44:39.781250,36.80
12:44:39.796875,35.37
12:44:39.812500,33.63
12:44:39.828125,31.50
12:44:39.843750,28.93
12:44:39.859375,25.98
12:44:39.875000,22.74
12:44:39.890625,19.31
12:44:39.906250,15.79
12:44:39.921875,12.23
12:44:39.937500,8.73
12:44:39.953125,5.38
12:44:39.968750,2.33
12:44:39.984375,-0.34
12:44:40,-2.60
12:44:40.015625,-4.57
12:44:40.031250,-6.48
12:44:40.046875,-8.60
12:44:40.062500,-11.14
12:44:40.078125,-14.13
12:44:40.093750,-17.41
12:44:40.109375,-20.70
12:44:40.125000,-23.73
12:44:40.140625,-26.41
12:44:40.156250,-28.86
12:44:40.171875,-31.34
12:44:40.187500,-34.12
12:44:40.203125,-37.49
12:44:40.218750,-41.58
12:44:40.234375,-46.44
12:44:40.250000,-51.88
12:44:40.265625,-57.42
12:44:40.281250,-62.23
12:44:40.296875,-65.26
12:44:40.312500,-65.48
12:44:40.328125,-62.16
12:44:40.343750,-55.17
12:44:40.359375,-44.99
12:44:40.375000,-32.64
12:44:40.390625,-19.37
12:44:40.406250,-6.37
12:44:40.421875,5.38
12:44:40.437500,15.29
12:44:40.453125,23.04
12:44:40.468750,28.63
12:44:40.484375,32.23
12:44:40.500000,34.16
12:44:40.515625,34.80
12:44:40.531250,34.53
12:44:40.546875,33.72
12:44:40.562500,32.71
12:44:40.578125,31.82
12:44:40.593750,31.28
12:44:40.609375,31.18
12:44:40.625000,31.40
12:44:40.640625,31.72
12:44:40.656250,31.86
12:44:40.671875,31.65
12:44:40.687500,31.10
12:44:40.703125,30.33
12:44:40.718750,29.47
12:44:40.734375,28.50
12:44:40.750000,27.25
12:44:40.765625,25.42
12:44:40.781250,22.79
12:44:40.796875,19.34
12:44:40.812500,15.27
12:44:40.828125,10.98
12:44:40.843750,6.95
12:44:40.859375,3.54
12:44:40.875000,0.90
12:44:40.890625,-1.11
12:44:40.906250,-2.83
12:44:40.921875,-4.68
12:44:40.937500,-7.00
12:44:40.953125,-9.89
12:44:40.968750,-13.21
12:44:40.984375,-16.65
12:44:41,-19.92
12:44:41.015625,-22.81
12:44:41.031250,-25.32
12:44:41.046875,-27.55
12:44:41.062500,-29.72
12:44:41.078125,-32.07
12:44:41.093750,-34.89
12:44:41.109375,-38.54
12:44:41.125000,-43.29
12:44:41.140625,-49.08
12:44:41.156250,-55.29
12:44:41.171875,-60.76
12:44:41.187500,-63.97
12:44:41.203125,-63.57
12:44:41.218750,-58.82
12:44:41.234375,-49.94
12:44:41.250000,-38.01
12:44:41.265625,-24.63
12:44:41.281250,-11.36
12:44:41.296875,0.67
12:44:41.312500,10.89
12:44:41.328125,19.19
12:44:41.343750,25.67
12:44:41.359375,30.49
12:44:41.375000,33.75
12:44:41.390625,35.53
12:44:41.406250,36.00
12:44:41.421875,35.44
12:44:41.437500,34.20
12:44:41.453125,32.68
12:44:41.468750,31.13
12:44:41.484375,29.79
12:44:41.500000,28.68
12:44:41.515625,27.75
12:44:41.531250,26.88
12:44:41.546875,25.98
12:44:41.562500,25.06
12:44:41.578125,24.23
12:44:41.593750,23.65
12:44:41.609375,23.43
12:44:41.625000,23.48
12:44:41.640625,23.47
12:44:41.656250,23.01
12:44:41.671875,21.68
12:44:41.687500,19.33
12:44:41.703125,16.15
12:44:41.718750,12.54
12:44:41.734375,8.99
12:44:41.750000,5.83
12:44:41.765625,3.11
12:44:41.781250,0.62
12:44:41.796875,-2.00
12:44:41.812500,-5.02
12:44:41.828125,-8.57
12:44:41.843750,-12.56
12:44:41.859375,-16.75
12:44:41.875000,-20.82
12:44:41.890625,-24.51
12:44:41.906250,-27.73
12:44:41.921875,-30.56
12:44:41.937500,-33.23
12:44:41.953125,-36.13
12:44:41.968750,-39.64
12:44:41.984375,-44.11
12:44:42,-49.60
12:44:42.015625,-55.77
12:44:42.031250,-61.81
12:44:42.046875,-66.45
12:44:42.062500,-68.30
12:44:42.078125,-66.24
12:44:42.093750,-59.72
12:44:42.109375,-49.14
12:44:42.125000,-35.68
12:44:42.140625,-21.03
12:44:42.156250,-6.88
12:44:42.171875,5.50
12:44:42.187500,15.52
12:44:42.203125,23.21
12:44:42.218750,28.97
12:44:42.234375,33.24
12:44:42.250000,36.25
12:44:42.265625,38.08
12:44:42.281250,38.74
12:44:42.296875,38.38
12:44:42.312500,37.37
12:44:42.328125,36.20
12:44:42.343750,35.32
12:44:42.359375,34.87
12:44:42.375000,34.65
12:44:42.390625,34.26
12:44:42.406250,33.32
12:44:42.421875,31.75
12:44:42.437500,29.76
12:44:42.453125,27.80
12:44:42.468750,26.20
12:44:42.484375,25.06
12:44:42.500000,24.15
12:44:42.515625,23.05
12:44:42.531250,21.35
12:44:42.546875,18.89
12:44:42.562500,15.76
12:44:42.578125,12.29
12:44:42.593750,8.85
12:44:42.609375,5.76
12:44:42.625000,3.13
12:44:42.640625,0.89
12:44:42.656250,-1.16
12:44:42.671875,-3.33
12:44:42.687500,-5.87
12:44:42.703125,-8.89
12:44:42.718750,-12.34
12:44:42.734375,-15.99
12:44:42.750000,-19.53
12:44:42.765625,-22.78
12:44:42.781250,-25.75
12:44:42.796875,-28.67
12:44:42.812500,-31.96
12:44:42.828125,-36.02
12:44:42.843750,-41.11
12:44:42.859375,-47.25
12:44:42.875000,-54.13
12:44:42.890625,-61.08
12:44:42.906250,-67.09
12:44:42.921875,-70.91
12:44:42.937500,-71.28
12:44:42.953125,-67.34
12:44:42.968750,-59.00
12:44:42.984375,-47.07
12:44:43,-33.14
12:44:43.015625,-19.07
12:44:43.031250,-6.44
12:44:43.046875,3.95
12:44:43.062500,12.13
12:44:43.078125,18.67
12:44:43.093750,24.23
12:44:43.109375,29.12
12:44:43.125000,33.23
12:44:43.140625,36.21
12:44:43.156250,37.82
12:44:43.171875,38.15
12:44:43.187500,37.64
12:44:43.203125,36.88
12:44:43.218750,36.28
12:44:43.234375,35.89
12:44:43.250000,35.50
12:44:43.265625,34.84
12:44:43.281250,33.84
12:44:43.296875,32.71
12:44:43.312500,31.78
12:44:43.328125,31.25
12:44:43.343750,31.04
12:44:43.359375,30.75
12:44:43.375000,29.87
12:44:43.390625,28.05
12:44:43.406250,25.31
12:44:43.421875,21.91
12:44:43.437500,18.28
12:44:43.453125,14.76
12:44:43.468750,11.49
12:44:43.484375,8.40
12:44:43.500000,5.35
12:44:43.515625,2.20
12:44:43.531250,-1.13
12:44:43.546875,-4.63
12:44:43.562500,-8.24
12:44:43.578125,-11.89
12:44:43.593750,-15.43
12:44:43.609375,-18.71
12:44:43.625000,-21.65
12:44:43.640625,-24.22
12:44:43.656250,-26.53
12:44:43.671875,-28.85
12:44:43.687500,-31.54
12:44:43.703125,-34.98
12:44:43.718750,-39.46
12:44:43.734375,-45.05
12:44:43.750000,-51.49
12:44:43.765625,-58.12
12:44:43.781250,-63.81
12:44:43.796875,-67.14
12:44:43.812500,-66.80
12:44:43.828125,-61.92
12:44:43.843750,-52.61
12:44:43.859375,-39.89
12:44:43.875000,-25.56
12:44:43.890625,-11.55
12:44:43.906250,0.60
12:44:43.921875,10.23
12:44:43.937500,17.53
12:44:43.953125,23.21
12:44:43.968750,28.05
12:44:43.984375,32.43
12:44:44,36.26
12:44:44.015625,39.14
12:44:44.031250,40.68
12:44:44.046875,40.82
12:44:44.062500,39.94
12:44:44.078125,38.65
12:44:44.093750,37.60
12:44:44.109375,37.16
12:44:44.125000,37.30
12:44:44.140625,37.63
12:44:44.156250,37.69
12:44:44.171875,37.12
12:44:44.187500,35.84
12:44:44.203125,34.01
12:44:44.218750,31.92
12:44:44.234375,29.75
12:44:44.250000,27.52
12:44:44.265625,25.01
12:44:44.281250,21.98
12:44:44.296875,18.32
12:44:44.312500,14.23
12:44:44.328125,10.17
12:44:44.343750,6.62
12:44:44.359375,3.82
12:44:44.375000,1.63
12:44:44.390625,-0.49
12:44:44.406250,-3.12
12:44:44.421875,-6.55
12:44:44.437500,-10.60
12:44:44.453125,-14.65
12:44:44.468750,-18.03
12:44:44.484375,-20.41
12:44:44.500000,-21.94
12:44:44.515625,-23.23
12:44:44.531250,-25.00
12:44:44.546875,-27.78
12:44:44.562500,-31.80
12:44:44.578125,-36.96
12:44:44.593750,-42.99
12:44:44.609375,-49.48
12:44:44.625000,-55.82
12:44:44.640625,-61.12
12:44:44.656250,-64.24
12:44:44.671875,-64.04
12:44:44.687500,-59.77
12:44:44.703125,-51.44
12:44:44.718750,-39.94
12:44:44.734375,-26.74
12:44:44.750000,-13.45
12:44:44.765625,-1.26
12:44:44.781250,9.21
12:44:44.796875,17.91
12:44:44.812500,25.01
12:44:44.828125,30.64
12:44:44.843750,34.80
12:44:44.859375,37.43
12:44:44.875000,38.60
12:44:44.890625,38.58
12:44:44.906250,37.77
12:44:44.921875,36.59
12:44:44.937500,35.29
12:44:44.953125,33.99
12:44:44.968750,32.71
12:44:44.984375,31.52
12:44:45,30.52
12:44:45.015625,29.83
12:44:45.031250,29.40
12:44:45.046875,29.04
12:44:45.062500,28.39
12:44:45.078125,27.13
12:44:45.093750,25.14
12:44:45.109375,22.55
12:44:45.125000,19.67
12:44:45.140625,16.84
12:44:45.156250,14.24
12:44:45.171875,11.82
12:44:45.187500,9.37
12:44:45.203125,6.63
12:44:45.218750,3.49
12:44:45.234375,-0.02
12:44:45.250000,-3.72
12:44:45.265625,-7.41
12:44:45.281250,-10.91
12:44:45.296875,-14.15
12:44:45.312500,-17.06
12:44:45.328125,-19.66
12:44:45.343750,-21.98
12:44:45.359375,-24.15
12:44:45.375000,-26.42
12:44:45.390625,-29.16
12:44:45.406250,-32.81
12:44:45.421875,-37.67
12:44:45.437500,-43.64
12:44:45.453125,-50.07
12:44:45.468750,-55.74
12:44:45.484375,-59.13
12:44:45.500000,-58.89
12:44:45.515625,-54.31
12:44:45.531250,-45.64
12:44:45.546875,-34.00
12:44:45.562500,-21.02
12:44:45.578125,-8.27
12:44:45.593750,3.15
12:44:45.609375,12.79
12:44:45.625000,20.65
12:44:45.640625,26.86
12:44:45.656250,31.44
12:44:45.671875,34.28
12:44:45.687500,35.28
12:44:45.703125,34.61
12:44:45.718750,32.72
12:44:45.734375,30.34
12:44:45.750000,28.21
12:44:45.765625,26.83
12:44:45.781250,26.32
12:44:45.796875,26.49
12:44:45.812500,26.97
12:44:45.828125,27.40
12:44:45.843750,27.54
12:44:45.859375,27.27
12:44:45.875000,26.55
12:44:45.890625,25.34
12:44:45.906250,23.63
12:44:45.921875,21.49
12:44:45.937500,19.10
12:44:45.953125,16.68
12:44:45.968750,14.39
12:44:45.984375,12.25
12:44:46,10.07
12:44:46.015625,7.57
12:44:46.031250,4.50
12:44:46.046875,0.83
12:44:46.062500,-3.22
12:44:46.078125,-7.33
12:44:46.093750,-11.17
12:44:46.109375,-14.59
12:44:46.125000,-17.58
12:44:46.140625,-20.28
12:44:46.156250,-22.89
12:44:46.171875,-25.65
12:44:46.187500,-28.90
12:44:46.203125,-32.99
12:44:46.218750,-38.23
12:44:46.234375,-44.59
12:44:46.250000,-51.50
12:44:46.265625,-57.77
12:44:46.281250,-61.87
12:44:46.296875,-62.36
12:44:46.312500,-58.46
12:44:46.328125,-50.33
12:44:46.343750,-39.03
12:44:46.359375,-26.16
12:44:46.375000,-13.22
12:44:46.390625,-1.36
12:44:46.406250,8.90
12:44:46.421875,17.45
12:44:46.437500,24.36
12:44:46.453125,29.70
12:44:46.468750,33.54
12:44:46.484375,35.93
12:44:46.500000,37.08
12:44:46.515625,37.23
12:44:46.531250,36.67
12:44:46.546875,35.63
12:44:46.562500,34.31
12:44:46.578125,32.86
12:44:46.593750,31.45
12:44:46.609375,30.23
12:44:46.625000,29.28
12:44:46.640625,28.52
12:44:46.656250,27.75
12:44:46.671875,26.68
12:44:46.687500,25.10
12:44:46.703125,22.91
12:44:46.718750,20.16
12:44:46.734375,17.05
12:44:46.750000,13.75
12:44:46.765625,10.41
12:44:46.781250,7.15
12:44:46.796875,4.02
12:44:46.812500,1.05
12:44:46.828125,-1.84
12:44:46.843750,-4.77
12:44:46.859375,-7.94
12:44:46.875000,-11.49
12:44:46.890625,-15.45
12:44:46.906250,-19.64
12:44:46.921875,-23.71
12:44:46.937500,-27.44
12:44:46.953125,-30.78
12:44:46.968750,-34.05
12:44:46.984375,-37.78
12:44:47,-42.54
12:44:47.015625,-48.52
12:44:47.031250,-55.38
12:44:47.046875,-62.06
12:44:47.062500,-67.09
12:44:47.078125,-68.90
12:44:47.093750,-66.37
12:44:47.109375,-59.23
12:44:47.125000,-48.14
12:44:47.140625,-34.58
12:44:47.156250,-20.31
12:44:47.171875,-6.91
12:44:47.187500,4.68
12:44:47.203125,14.26
12:44:47.218750,22.14
12:44:47.234375,28.77
12:44:47.250000,34.44
12:44:47.265625,39.10
12:44:47.281250,42.53
12:44:47.296875,44.59
12:44:47.312500,45.33
12:44:47.328125,45.10
12:44:47.343750,44.34
12:44:47.359375,43.39
12:44:47.375000,42.44
12:44:47.390625,41.52
12:44:47.406250,40.60
12:44:47.421875,39.65
12:44:47.437500,38.64
12:44:47.453125,37.51
12:44:47.468750,36.07
12:44:47.484375,34.09
12:44:47.500000,31.36
12:44:47.515625,27.85
12:44:47.531250,23.70
12:44:47.546875,19.24
12:44:47.562500,14.77
12:44:47.578125,10.55
12:44:47.593750,6.70
12:44:47.609375,3.18
12:44:47.625000,-0.12
12:44:47.640625,-3.41
12:44:47.656250,-6.84
12:44:47.671875,-10.55
12:44:47.687500,-14.52
12:44:47.703125,-18.65
12:44:47.718750,-22.77
12:44:47.734375,-26.79
12:44:47.750000,-30.74
12:44:47.765625,-34.86
12:44:47.781250,-39.50
12:44:47.796875,-45.05
12:44:47.812500,-51.65
12:44:47.828125,-58.94
12:44:47.843750,-65.93
12:44:47.859375,-71.04
12:44:47.875000,-72.53
12:44:47.890625,-69.08
12:44:47.906250,-60.31
12:44:47.921875,-47.08
12:44:47.937500,-31.28
12:44:47.953125,-15.12
12:44:47.968750,-0.41
12:44:47.984375,11.99
12:44:48,22.19
12:44:48.015625,30.82
12:44:48.031250,38.45
12:44:48.046875,45.17
12:44:48.062500,50.53
12:44:48.078125,53.89
12:44:48.093750,54.86
12:44:48.109375,53.61
12:44:48.125000,50.81
12:44:48.140625,47.40
12:44:48.156250,44.22
12:44:48.171875,41.77
12:44:48.187500,40.14
12:44:48.203125,39.17
12:44:48.218750,38.57
12:44:48.234375,37.98
12:44:48.250000,37.09
12:44:48.265625,35.58
12:44:48.281250,33.24
12:44:48.296875,30.00
12:44:48.312500,26.03
12:44:48.328125,21.73
12:44:48.343750,17.49
12:44:48.359375,13.60
12:44:48.375000,10.05
12:44:48.390625,6.52
12:44:48.406250,2.60
12:44:48.421875,-1.97
12:44:48.437500,-7.20
12:44:48.453125,-12.77
12:44:48.468750,-18.25
12:44:48.484375,-23.26
12:44:48.500000,-27.64
12:44:48.515625,-31.48
12:44:48.531250,-35.07
12:44:48.546875,-38.77
12:44:48.562500,-42.97
12:44:48.578125,-47.99
12:44:48.593750,-53.94
12:44:48.609375,-60.55
12:44:48.625000,-67.07
12:44:48.640625,-72.21
12:44:48.656250,-74.43
12:44:48.671875,-72.33
12:44:48.687500,-65.14
12:44:48.703125,-53.08
12:44:48.718750,-37.41
12:44:48.734375,-20.11
12:44:48.750000,-3.32
12:44:48.765625,11.32
12:44:48.781250,22.92
12:44:48.796875,31.47
12:44:48.812500,37.55
12:44:48.828125,41.92
12:44:48.843750,45.21
12:44:48.859375,47.76
12:44:48.875000,49.62
12:44:48.890625,50.72
12:44:48.906250,50.99
12:44:48.921875,50.45
12:44:48.937500,49.18
12:44:48.953125,47.32
12:44:48.968750,45.06
12:44:48.984375,42.58
12:44:49,40.12
12:44:49.015625,37.83
12:44:49.031250,35.80
12:44:49.046875,34.00
12:44:49.062500,32.27
12:44:49.078125,30.32
12:44:49.093750,27.86
12:44:49.109375,24.68
12:44:49.125000,20.75
12:44:49.140625,16.33
12:44:49.156250,11.82
12:44:49.171875,7.66
12:44:49.187500,4.11
12:44:49.203125,1.13
12:44:49.218750,-1.62
12:44:49.234375,-4.62
12:44:49.250000,-8.26
12:44:49.265625,-12.65
12:44:49.281250,-17.58
12:44:49.296875,-22.58
12:44:49.312500,-27.22
12:44:49.328125,-31.19
12:44:49.343750,-34.49
12:44:49.359375,-37.40
12:44:49.375000,-40.41
12:44:49.390625,-44.08
12:44:49.406250,-48.75
12:44:49.421875,-54.32
12:44:49.437500,-60.04
12:44:49.453125,-64.63
12:44:49.468750,-66.54
12:44:49.484375,-64.48
12:44:49.500000,-57.90
12:44:49.515625,-47.19
12:44:49.531250,-33.64
12:44:49.546875,-19.01
12:44:49.562500,-5.00
12:44:49.578125,7.24
12:44:49.593750,17.20
12:44:49.609375,24.94
12:44:49.625000,30.82
12:44:49.640625,35.20
12:44:49.656250,38.31
12:44:49.671875,40.28
12:44:49.687500,41.24
12:44:49.703125,41.42
12:44:49.718750,41.14
12:44:49.734375,40.77
12:44:49.750000,40.53
12:44:49.765625,40.44
12:44:49.781250,40.30
12:44:49.796875,39.82
12:44:49.812500,38.78
12:44:49.828125,37.20
12:44:49.843750,35.32
12:44:49.859375,33.49
12:44:49.875000,31.90
12:44:49.890625,30.49
12:44:49.906250,28.83
12:44:49.921875,26.36
12:44:49.937500,22.70
12:44:49.953125,17.91
12:44:49.968750,12.49
12:44:49.984375,7.25
12:44:50,2.83
12:44:50.015625,-0.52
12:44:50.031250,-3.02
12:44:50.046875,-5.26
12:44:50.062500,-7.82
12:44:50.078125,-10.97
12:44:50.093750,-14.62
12:44:50.109375,-18.36
12:44:50.125000,-21.73
12:44:50.140625,-24.47
12:44:50.156250,-26.59
12:44:50.171875,-28.38
12:44:50.187500,-30.28
12:44:50.203125,-32.66
12:44:50.218750,-35.80
12:44:50.234375,-39.84
12:44:50.250000,-44.75
12:44:50.265625,-50.21
12:44:50.281250,-55.56
12:44:50.296875,-59.74
12:44:50.312500,-61.43
12:44:50.328125,-59.46
12:44:50.343750,-53.23
12:44:50.359375,-43.03
12:44:50.375000,-30.10
12:44:50.390625,-16.23
12:44:50.406250,-3.18
12:44:50.421875,7.88
12:44:50.437500,16.58
12:44:50.453125,23.16
12:44:50.468750,28.07
12:44:50.484375,31.63
12:44:50.500000,33.91
12:44:50.515625,34.85
12:44:50.531250,34.58
12:44:50.546875,33.46
12:44:50.562500,32.12
12:44:50.578125,31.12
12:44:50.593750,30.76
12:44:50.609375,30.91
12:44:50.625000,31.18
12:44:50.640625,31.10
12:44:50.656250,30.42
12:44:50.671875,29.13
12:44:50.687500,27.46
12:44:50.703125,25.65
12:44:50.718750,23.84
12:44:50.734375,22.00
12:44:50.750000,19.97
12:44:50.765625,17.63
12:44:50.781250,14.99
12:44:50.796875,12.15
12:44:50.812500,9.30
12:44:50.828125,6.59
12:44:50.843750,3.99
12:44:50.859375,1.34
12:44:50.875000,-1.57
12:44:50.890625,-4.93
12:44:50.906250,-8.75
12:44:50.921875,-12.84
12:44:50.937500,-16.81
12:44:50.953125,-20.29
12:44:50.968750,-23.02
12:44:50.984375,-25.02
12:44:51,-26.61
12:44:51.015625,-28.39
12:44:51.031250,-30.99
12:44:51.046875,-34.94
12:44:51.062500,-40.37
12:44:51.078125,-46.93
12:44:51.093750,-53.70
12:44:51.109375,-59.36
12:44:51.125000,-62.42
12:44:51.140625,-61.73
12:44:51.156250,-56.74
12:44:51.171875,-47.76
12:44:51.187500,-35.87
12:44:51.203125,-22.57
12:44:51.218750,-9.30
12:44:51.234375,2.83
12:44:51.250000,13.29
12:44:51.265625,21.94
12:44:51.281250,28.79
12:44:51.296875,33.87
12:44:51.312500,37.17
12:44:51.328125,38.72
12:44:51.343750,38.74
12:44:51.359375,37.63
12:44:51.375000,35.91
12:44:51.390625,34.04
12:44:51.406250,32.32
12:44:51.421875,30.82
12:44:51.437500,29.52
12:44:51.453125,28.40
12:44:51.468750,27.45
12:44:51.484375,26.72
12:44:51.500000,26.22
12:44:51.515625,25.84
12:44:51.531250,25.36
12:44:51.546875,24.46
12:44:51.562500,22.83
12:44:51.578125,20.22
12:44:51.593750,16.59
12:44:51.609375,12.14
12:44:51.625000,7.20
12:44:51.640625,2.23
12:44:51.656250,-2.39
12:44:51.671875,-6.47
12:44:51.687500,-10.02
12:44:51.703125,-13.21
12:44:51.718750,-16.29
12:44:51.734375,-19.40
12:44:51.750000,-22.57
12:44:51.765625,-25.69
12:44:51.781250,-28.68
12:44:51.796875,-31.50
12:44:51.812500,-34.34
12:44:51.828125,-37.52
12:44:51.843750,-41.44
12:44:51.859375,-46.34
12:44:51.875000,-52.17
12:44:51.890625,-58.34
12:44:51.906250,-63.81
12:44:51.921875,-67.21
12:44:51.937500,-67.15
12:44:51.953125,-62.67
12:44:51.968750,-53.57
12:44:51.984375,-40.57
12:44:52,-25.18
12:44:52.015625,-9.33
12:44:52.031250,5.19
12:44:52.046875,17.17
12:44:52.062500,26.22
12:44:52.078125,32.57
12:44:52.093750,36.84
12:44:52.109375,39.58
12:44:52.125000,41.14
12:44:52.140625,41.59
12:44:52.156250,41.04
12:44:52.171875,39.76
12:44:52.187500,38.26
12:44:52.203125,37.07
12:44:52.218750,36.51
12:44:52.234375,36.52
12:44:52.250000,36.67
12:44:52.265625,36.47
12:44:52.281250,35.65
12:44:52.296875,34.28
12:44:52.312500,32.69
12:44:52.328125,31.21
12:44:52.343750,29.96
12:44:52.359375,28.63
12:44:52.375000,26.78
12:44:52.390625,23.99
12:44:52.406250,20.17
12:44:52.421875,15.62
12:44:52.437500,10.88
12:44:52.453125,6.52
12:44:52.468750,2.83
12:44:52.484375,-0.24
12:44:52.500000,-3.07
12:44:52.515625,-6.13
12:44:52.531250,-9.81
12:44:52.546875,-14.19
12:44:52.562500,-19.00
12:44:52.578125,-23.80
12:44:52.593750,-28.12
12:44:52.609375,-31.70
12:44:52.625000,-34.56
12:44:52.640625,-37.03
12:44:52.656250,-39.70
12:44:52.671875,-43.22
12:44:52.687500,-48.12
12:44:52.703125,-54.50
12:44:52.718750,-61.86
12:44:52.734375,-69.04
12:44:52.750000,-74.35
12:44:52.765625,-76.03
12:44:52.781250,-72.82
12:44:52.796875,-64.35
12:44:52.812500,-51.43
12:44:52.828125,-35.73
12:44:52.843750,-19.31
12:44:52.859375,-3.98
12:44:52.875000,9.16
12:44:52.890625,19.80
12:44:52.906250,28.22
12:44:52.921875,34.88
12:44:52.937500,40.14
12:44:52.953125,44.11
12:44:52.968750,46.73
12:44:52.984375,47.98
12:44:53,47.95
12:44:53.015625,46.95
12:44:53.031250,45.36
12:44:53.046875,43.50
12:44:53.062500,41.63
12:44:53.078125,39.90
12:44:53.093750,38.38
12:44:53.109375,37.11
12:44:53.125000,36.11
12:44:53.140625,35.26
12:44:53.156250,34.46
12:44:53.171875,33.52
12:44:53.187500,32.32
12:44:53.203125,30.71
12:44:53.218750,28.57
12:44:53.234375,25.76
12:44:53.250000,22.21
12:44:53.265625,18.00
12:44:53.281250,13.40
12:44:53.296875,8.84
12:44:53.312500,4.76
12:44:53.328125,1.30
12:44:53.343750,-1.74
12:44:53.359375,-4.87
12:44:53.375000,-8.57
12:44:53.390625,-13.08
12:44:53.406250,-18.17
12:44:53.421875,-23.29
12:44:53.437500,-27.83
12:44:53.453125,-31.47
12:44:53.468750,-34.39
12:44:53.484375,-37.18
12:44:53.500000,-40.68
12:44:53.515625,-45.57
12:44:53.531250,-52.15
12:44:53.546875,-60.15
12:44:53.562500,-68.70
12:44:53.578125,-76.38
12:44:53.593750,-81.46
12:44:53.609375,-82.35
12:44:53.625000,-78.01
12:44:53.640625,-68.42
12:44:53.656250,-54.67
12:44:53.671875,-38.64
12:44:53.687500,-22.44
12:44:53.703125,-7.75
12:44:53.718750,4.67
12:44:53.734375,14.83
12:44:53.750000,23.24
12:44:53.765625,30.33
12:44:53.781250,36.18
12:44:53.796875,40.57
12:44:53.812500,43.22
12:44:53.828125,44.21
12:44:53.843750,44.04
12:44:53.859375,43.54
12:44:53.875000,43.51
12:44:53.890625,44.41
12:44:53.906250,46.15
12:44:53.921875,48.23
12:44:53.937500,50.00
12:44:53.953125,50.92
12:44:53.968750,50.77
12:44:53.984375,49.57
12:44:54,47.50
12:44:54.015625,44.69
12:44:54.031250,41.14
12:44:54.046875,36.75
12:44:54.062500,31.44
12:44:54.078125,25.30
12:44:54.093750,18.70
12:44:54.109375,12.21
12:44:54.125000,6.52
12:44:54.140625,2.15
12:44:54.156250,-0.77
12:44:54.171875,-2.59
12:44:54.187500,-4.15
12:44:54.203125,-6.45
12:44:54.218750,-10.31
12:44:54.234375,-16.01
12:44:54.250000,-23.09
12:44:54.265625,-30.62
12:44:54.281250,-37.48
12:44:54.296875,-42.84
12:44:54.312500,-46.43
12:44:54.328125,-48.56
12:44:54.343750,-49.97
12:44:54.359375,-51.57
12:44:54.375000,-54.20
12:44:54.390625,-58.42
12:44:54.406250,-64.28
12:44:54.421875,-71.23
12:44:54.437500,-77.92
12:44:54.453125,-82.50
12:44:54.468750,-83.02
12:44:54.484375,-78.08
12:44:54.500000,-67.41
12:44:54.515625,-52.01
12:44:54.531250,-33.88
12:44:54.546875,-15.20
12:44:54.562500,2.20
12:44:54.578125,17.35
12:44:54.593750,29.96
12:44:54.609375,40.11
12:44:54.625000,47.85
12:44:54.640625,53.13
12:44:54.656250,55.93
12:44:54.671875,56.51
12:44:54.687500,55.50
12:44:54.703125,53.79
12:44:54.718750,52.16
12:44:54.734375,51.01
12:44:54.750000,50.27
12:44:54.765625,49.47
12:44:54.781250,48.10
12:44:54.796875,45.92
12:44:54.812500,43.06
12:44:54.828125,39.96
12:44:54.843750,37.14
12:44:54.859375,34.93
12:44:54.875000,33.35
12:44:54.890625,32.15
12:44:54.906250,30.92
12:44:54.921875,29.27
12:44:54.937500,26.95
12:44:54.953125,23.92
12:44:54.968750,20.31
12:44:54.984375,16.34
12:44:55,12.24
12:44:55.015625,8.14
12:44:55.031250,4.05
12:44:55.046875,-0.13
12:44:55.062500,-4.53
12:44:55.078125,-9.20
12:44:55.093750,-14.04
12:44:55.109375,-18.74
12:44:55.125000,-22.96
12:44:55.140625,-26.48
12:44:55.156250,-29.32
12:44:55.171875,-31.74
12:44:55.187500,-34.17
12:44:55.203125,-37.06
12:44:55.218750,-40.74
12:44:55.234375,-45.38
12:44:55.250000,-50.78
12:44:55.265625,-56.39
12:44:55.281250,-61.25
12:44:55.296875,-64.08
12:44:55.312500,-63.62
12:44:55.328125,-59.02
12:44:55.343750,-50.23
12:44:55.359375,-38.09
12:44:55.375000,-24.12
12:44:55.390625,-10.04
12:44:55.406250,2.79
12:44:55.421875,13.66
12:44:55.437500,22.51
12:44:55.453125,29.67
12:44:55.468750,35.44
12:44:55.484375,39.94
12:44:55.500000,43.04
12:44:55.515625,44.59
12:44:55.531250,44.66
12:44:55.546875,43.67
12:44:55.562500,42.23
12:44:55.578125,40.99
12:44:55.593750,40.31
12:44:55.609375,40.11
12:44:55.625000,40.01
12:44:55.640625,39.55
12:44:55.656250,38.42
12:44:55.671875,36.63
12:44:55.687500,34.39
12:44:55.703125,31.90
12:44:55.718750,29.29
12:44:55.734375,26.46
12:44:55.750000,23.30
12:44:55.765625,19.78
12:44:55.781250,16.06
12:44:55.796875,12.37
12:44:55.812500,8.96
12:44:55.828125,5.96
12:44:55.843750,3.32
12:44:55.859375,0.84
12:44:55.875000,-1.73
12:44:55.890625,-4.67
12:44:55.906250,-8.10
12:44:55.921875,-12.02
12:44:55.937500,-16.22
12:44:55.953125,-20.42
12:44:55.968750,-24.38
12:44:55.984375,-28.09
12:44:56,-31.77
12:44:56.015625,-35.84
12:44:56.031250,-40.65
12:44:56.046875,-46.19
12:44:56.062500,-51.96
12:44:56.078125,-56.97
12:44:56.093750,-59.96
12:44:56.109375,-59.76
12:44:56.125000,-55.66
12:44:56.140625,-47.60
12:44:56.156250,-36.24
12:44:56.171875,-22.82
12:44:56.187500,-8.78
12:44:56.203125,4.56
12:44:56.218750,16.36
12:44:56.234375,26.27
12:44:56.250000,34.22
12:44:56.265625,40.24
12:44:56.281250,44.19
12:44:56.296875,45.85
12:44:56.312500,45.15
12:44:56.328125,42.41
12:44:56.343750,38.46
12:44:56.359375,34.40
12:44:56.375000,31.19
12:44:56.390625,29.29
12:44:56.406250,28.54
12:44:56.421875,28.36
12:44:56.437500,28.16
12:44:56.453125,27.59
12:44:56.468750,26.62
12:44:56.484375,25.42
12:44:56.500000,23.97
12:44:56.515625,22.04
12:44:56.531250,19.24
12:44:56.546875,15.27
12:44:56.562500,10.22
12:44:56.578125,4.58
12:44:56.593750,-0.90
12:44:56.609375,-5.57
12:44:56.625000,-9.10
12:44:56.640625,-11.64
12:44:56.656250,-13.64
12:44:56.671875,-15.58
12:44:56.687500,-17.70
12:44:56.703125,-20.00
12:44:56.718750,-22.32
12:44:56.734375,-24.47
12:44:56.750000,-26.51
12:44:56.765625,-28.64
12:44:56.781250,-31.25
12:44:56.796875,-34.74
12:44:56.812500,-39.38
12:44:56.828125,-45.14
12:44:56.843750,-51.49
12:44:56.859375,-57.34
12:44:56.875000,-61.18
12:44:56.890625,-61.39
12:44:56.906250,-56.92
12:44:56.921875,-47.62
12:44:56.937500,-34.46
12:44:56.953125,-19.20
12:44:56.968750,-3.83
12:44:56.984375,10.10
12:44:57,21.78
12:44:57.015625,31.06
12:44:57.031250,38.09
12:44:57.046875,42.98
12:44:57.062500,45.64
12:44:57.078125,45.93
12:44:57.093750,44.02
12:44:57.109375,40.50
12:44:57.125000,36.38
12:44:57.140625,32.71
12:44:57.156250,30.18
12:44:57.171875,28.91
12:44:57.187500,28.46
12:44:57.203125,28.19
12:44:57.218750,27.57
12:44:57.234375,26.48
12:44:57.250000,25.11
12:44:57.265625,23.73
12:44:57.281250,22.49
12:44:57.296875,21.22
12:44:57.312500,19.54
12:44:57.328125,17.08
12:44:57.343750,13.66
12:44:57.359375,9.31
12:44:57.375000,4.31
12:44:57.390625,-0.93
12:44:57.406250,-6.06
12:44:57.421875,-10.76
12:44:57.437500,-14.87
12:44:57.453125,-18.39
12:44:57.468750,-21.49
12:44:57.484375,-24.44
12:44:57.500000,-27.51
12:44:57.515625,-30.90
12:44:57.531250,-34.74
12:44:57.546875,-38.99
12:44:57.562500,-43.50
12:44:57.578125,-47.92
12:44:57.593750,-51.69
12:44:57.609375,-53.98
12:44:57.625000,-53.85
12:44:57.640625,-50.54
12:44:57.656250,-43.75
12:44:57.671875,-33.91
12:44:57.687500,-22.07
12:44:57.703125,-9.63
12:44:57.718750,2.10
12:44:57.734375,12.23
12:44:57.750000,20.40
12:44:57.765625,26.69
12:44:57.781250,31.29
12:44:57.796875,34.34
12:44:57.812500,35.84
12:44:57.828125,35.85
12:44:57.843750,34.52
12:44:57.859375,32.29
12:44:57.875000,29.79
12:44:57.890625,27.66
12:44:57.906250,26.26
12:44:57.921875,25.57
12:44:57.937500,25.19
12:44:57.953125,24.59
12:44:57.968750,23.37
12:44:57.984375,21.40
12:44:58,18.91
12:44:58.015625,16.23
12:44:58.031250,13.63
12:44:58.046875,11.17
12:44:58.062500,8.70
12:44:58.078125,5.96
12:44:58.093750,2.76
12:44:58.109375,-0.96
12:44:58.125000,-5.14
12:44:58.140625,-9.64
12:44:58.156250,-14.31
12:44:58.171875,-18.97
12:44:58.187500,-23.43
12:44:58.203125,-27.56
12:44:58.218750,-31.40
12:44:58.234375,-35.24
12:44:58.250000,-39.59
12:44:58.265625,-44.94
12:44:58.281250,-51.50
12:44:58.296875,-58.96
12:44:58.312500,-66.40
12:44:58.328125,-72.46
12:44:58.343750,-75.76
12:44:58.359375,-75.31
12:44:58.375000,-70.76
12:44:58.390625,-62.54
12:44:58.406250,-51.67
12:44:58.421875,-39.44
12:44:58.437500,-27.03
12:44:58.453125,-15.27
12:44:58.468750,-4.54
12:44:58.484375,5.05
12:44:58.500000,13.44
12:44:58.515625,20.30
12:44:58.531250,25.10
12:44:58.546875,27.21
12:44:58.562500,26.35
12:44:58.578125,22.87
12:44:58.593750,17.82
12:44:58.609375,12.65
12:44:58.625000,8.69
12:44:58.640625,6.63
12:44:58.656250,6.22
12:44:58.671875,6.34
12:44:58.687500,5.55
12:44:58.703125,2.70
12:44:58.718750,-2.51
12:44:58.734375,-9.28
12:44:58.750000,-16.03
12:44:58.765625,-21.12
12:44:58.781250,-23.70
12:44:58.796875,-24.28
12:44:58.812500,-24.73
12:44:58.828125,-27.59
12:44:58.843750,-34.89
12:44:58.859375,-47.24
12:44:58.875000,-63.37
12:44:58.890625,-80.50
12:44:58.906250,-95.24
12:44:58.921875,-104.39
12:44:58.937500,-105.69
12:44:58.953125,-98.20
12:44:58.968750,-82.79
12:44:58.984375,-62.57
12:44:59,-42.73
12:44:59.015625,-29.46
12:44:59.031250,-27.81
12:44:59.046875,-39.34
12:44:59.062500,-60.71
12:44:59.078125,-84.40
12:44:59.093750,-101.27
12:44:59.109375,-104.16
12:44:59.125000,-90.41
12:44:59.140625,-62.29
12:44:59.156250,-25.17
12:44:59.171875,15.17
12:44:59.187500,54.73
12:44:59.203125,91.67
12:44:59.218750,125.34
12:44:59.234375,154.79
12:44:59.250000,177.95
12:44:59.265625,192.15
12:44:59.281250,195.41
12:44:59.296875,187.74
12:44:59.312500,171.52
12:44:59.328125,150.93
12:44:59.343750,130.58
12:44:59.359375,114.02
12:44:59.375000,102.84
12:44:59.390625,96.74
12:44:59.406250,94.18
12:44:59.421875,93.41
12:44:59.437500,93.16
12:44:59.453125,92.72
12:44:59.468750,91.59
12:44:59.484375,89.11
12:44:59.500000,84.21
12:44:59.515625,75.80
12:44:59.531250,63.25
12:44:59.546875,46.90
12:44:59.562500,28.08
12:44:59.578125,8.85
12:44:59.593750,-8.71
12:44:59.609375,-23.01
12:44:59.625000,-33.22
12:44:59.640625,-39.10
12:44:59.656250,-40.60
12:44:59.671875,-37.56
12:44:59.687500,-29.74
12:44:59.703125,-17.34
12:44:59.718750,-1.36
12:44:59.734375,16.18
12:44:59.750000,32.65
12:44:59.765625,45.40
12:44:59.781250,52.44
12:44:59.796875,52.76
12:44:59.812500,46.25
12:44:59.828125,33.59
12:44:59.843750,16.20
12:44:59.859375,-3.76
12:44:59.875000,-23.41
12:44:59.890625,-39.62
12:44:59.906250,-49.91
12:44:59.921875,-53.24
12:44:59.937500,-50.27
12:44:59.953125,-42.95
12:44:59.968750,-33.57
12:44:59.984375,-23.79
12:45:00,-14.35
12:45:00.015625,-5.32
12:45:00.031250,3.32
12:45:00.046875,11.33
12:45:00.062500,18.29
12:45:00.078125,23.88
12:45:00.093750,28.20
12:45:00.109375,31.61
12:45:00.125000,34.49
12:45:00.140625,36.96
12:45:00.156250,38.84
12:45:00.171875,39.88
12:45:00.187500,40.04
12:45:00.203125,39.48
12:45:00.218750,38.53
12:45:00.234375,37.38
12:45:00.250000,36.01
12:45:00.265625,34.09
12:45:00.281250,31.24
12:45:00.296875,27.17
12:45:00.312500,21.83
12:45:00.328125,15.43
12:45:00.343750,8.33
12:45:00.359375,0.99
12:45:00.375000,-6.25
12:45:00.390625,-13.24
12:45:00.406250,-20.12
12:45:00.421875,-27.26
12:45:00.437500,-35.06
12:45:00.453125,-43.60
12:45:00.468750,-52.50
12:45:00.484375,-60.90
12:45:00.500000,-67.81
12:45:00.515625,-72.59
12:45:00.531250,-75.30
12:45:00.546875,-76.77
12:45:00.562500,-78.39
12:45:00.578125,-81.60
12:45:00.593750,-87.51
12:45:00.609375,-96.49
12:45:00.625000,-108.00
12:45:00.640625,-120.52
12:45:00.656250,-131.67
12:45:00.671875,-138.66
12:45:00.687500,-138.98
12:45:00.703125,-131.32
12:45:00.718750,-116.14
12:45:00.734375,-95.85
12:45:00.750000,-74.04
12:45:00.765625,-54.23
12:45:00.781250,-38.59
12:45:00.796875,-27.32
12:45:00.812500,-18.86
12:45:00.828125,-10.99
12:45:00.843750,-1.98
12:45:00.859375,8.59
12:45:00.875000,19.82
12:45:00.890625,30.28
12:45:00.906250,38.82
12:45:00.921875,45.19
12:45:00.937500,49.98
12:45:00.953125,54.13
12:45:00.968750,58.19
12:45:00.984375,62.07
12:45:01,65.14
12:45:01.015625,66.72
12:45:01.031250,66.63
12:45:01.046875,65.34
12:45:01.062500,63.68
12:45:01.078125,62.34
12:45:01.093750,61.46
12:45:01.109375,60.40
12:45:01.125000,58.17
12:45:01.140625,53.93
12:45:01.156250,47.48
12:45:01.171875,39.42
12:45:01.187500,30.88
12:45:01.203125,23.03
12:45:01.218750,16.63
12:45:01.234375,11.83
12:45:01.250000,8.31
12:45:01.265625,5.53
12:45:01.281250,3.11
12:45:01.296875,0.85
12:45:01.312500,-1.34
12:45:01.328125,-3.57
12:45:01.343750,-6.12
12:45:01.359375,-9.35
12:45:01.375000,-13.63
12:45:01.390625,-19.15
12:45:01.406250,-25.95
12:45:01.421875,-33.74
12:45:01.437500,-41.88
12:45:01.453125,-49.27
12:45:01.468750,-54.52
12:45:01.484375,-56.22
12:45:01.500000,-53.37
12:45:01.515625,-45.84
12:45:01.531250,-34.46
12:45:01.546875,-20.79
12:45:01.562500,-6.56
12:45:01.578125,6.79
12:45:01.593750,18.46
12:45:01.609375,28.22
12:45:01.625000,36.13
12:45:01.640625,42.17
12:45:01.656250,46.16
12:45:01.671875,47.82
12:45:01.687500,47.09
12:45:01.703125,44.35
12:45:01.718750,40.45
12:45:01.734375,36.48
12:45:01.750000,33.39
12:45:01.765625,31.64
12:45:01.781250,31.06
12:45:01.796875,31.03
12:45:01.812500,30.79
12:45:01.828125,29.80
12:45:01.843750,27.94
12:45:01.859375,25.41
12:45:01.875000,22.47
12:45:01.890625,19.27
12:45:01.906250,15.81
12:45:01.921875,12.04
12:45:01.937500,8.03
12:45:01.953125,3.96
12:45:01.968750,-0.02
12:45:01.984375,-3.93
12:45:02,-8.03
12:45:02.015625,-12.61
12:45:02.031250,-17.85
12:45:02.046875,-23.69
12:45:02.062500,-29.78
12:45:02.078125,-35.67
12:45:02.093750,-40.96
12:45:02.109375,-45.41
12:45:02.125000,-48.99
12:45:02.140625,-51.92
12:45:02.156250,-54.69
12:45:02.171875,-58.00
12:45:02.187500,-62.35
12:45:02.203125,-67.80
12:45:02.218750,-73.46
12:45:02.234375,-77.68
12:45:02.250000,-78.34
12:45:02.265625,-73.67
12:45:02.281250,-62.99
12:45:02.296875,-47.05
12:45:02.312500,-27.79
12:45:02.328125,-7.67
12:45:02.343750,11.03
12:45:02.359375,26.84
12:45:02.375000,39.05
12:45:02.390625,47.64
12:45:02.406250,52.86
12:45:02.421875,55.09
12:45:02.437500,54.79
12:45:02.453125,52.59
12:45:02.468750,49.34
12:45:02.484375,45.98
12:45:02.500000,43.33
12:45:02.515625,41.73
12:45:02.531250,41.05
12:45:02.546875,40.64
12:45:02.562500,39.74
12:45:02.578125,37.79
12:45:02.593750,34.71
12:45:02.609375,30.90
12:45:02.625000,27.04
12:45:02.640625,23.84
12:45:02.656250,21.74
12:45:02.671875,20.73
12:45:02.687500,20.40
12:45:02.703125,20.03
12:45:02.718750,18.82
12:45:02.734375,16.10
12:45:02.750000,11.52
12:45:02.765625,5.16
12:45:02.781250,-2.46
12:45:02.796875,-10.49
12:45:02.812500,-17.96
12:45:02.828125,-24.08
12:45:02.843750,-28.43
12:45:02.859375,-31.06
12:45:02.875000,-32.60
12:45:02.890625,-33.98
12:45:02.906250,-36.35
12:45:02.921875,-40.64
12:45:02.937500,-47.25
12:45:02.953125,-55.67
12:45:02.968750,-64.44
12:45:02.984375,-71.43
12:45:03,-74.41
12:45:03.015625,-71.80
12:45:03.031250,-63.21
12:45:03.046875,-49.60
12:45:03.062500,-32.90
12:45:03.078125,-15.47
12:45:03.093750,0.63
12:45:03.109375,14.13
12:45:03.125000,24.66
12:45:03.140625,32.62
12:45:03.156250,38.82
12:45:03.171875,44.05
12:45:03.187500,48.81
12:45:03.203125,53.13
12:45:03.218750,56.62
12:45:03.234375,58.72
12:45:03.250000,59.05
12:45:03.265625,57.56
12:45:03.281250,54.68
12:45:03.296875,51.11
12:45:03.312500,47.52
12:45:03.328125,44.31
12:45:03.343750,41.51
12:45:03.359375,38.89
12:45:03.375000,36.09
12:45:03.390625,32.88
12:45:03.406250,29.16
12:45:03.421875,24.98
12:45:03.437500,20.47
12:45:03.453125,15.75
12:45:03.468750,10.98
12:45:03.484375,6.30
12:45:03.500000,1.90
12:45:03.515625,-2.08
12:45:03.531250,-5.61
12:45:03.546875,-8.82
12:45:03.562500,-11.94
12:45:03.578125,-15.20
12:45:03.593750,-18.83
12:45:03.609375,-22.88
12:45:03.625000,-27.35
12:45:03.640625,-32.23
12:45:03.656250,-37.55
12:45:03.671875,-43.42
12:45:03.687500,-49.96
12:45:03.703125,-57.09
12:45:03.718750,-64.37
12:45:03.734375,-70.84
12:45:03.750000,-75.12
12:45:03.765625,-75.70
12:45:03.781250,-71.44
12:45:03.796875,-62.02
12:45:03.812500,-48.22
12:45:03.828125,-31.75
12:45:03.843750,-14.74
12:45:03.859375,0.90
12:45:03.875000,14.00
12:45:03.890625,24.34
12:45:03.906250,32.42
12:45:03.921875,39.01
12:45:03.937500,44.68
12:45:03.953125,49.51
12:45:03.968750,53.20
12:45:03.984375,55.30
12:45:04,55.58
12:45:04.015625,54.19
12:45:04.031250,51.63
12:45:04.046875,48.49
12:45:04.062500,45.26
12:45:04.078125,42.15
12:45:04.093750,39.15
12:45:04.109375,36.20
12:45:04.125000,33.24
12:45:04.140625,30.30
12:45:04.156250,27.32
12:45:04.171875,24.22
12:45:04.187500,20.82
12:45:04.203125,17.05
12:45:04.218750,13.11
12:45:04.234375,9.41
12:45:04.250000,6.37
12:45:04.265625,4.23
12:45:04.281250,2.80
12:45:04.296875,1.51
12:45:04.312500,-0.42
12:45:04.328125,-3.66
12:45:04.343750,-8.50
12:45:04.359375,-14.79
12:45:04.375000,-22.04
12:45:04.390625,-29.53
12:45:04.406250,-36.58
12:45:04.421875,-42.71
12:45:04.437500,-47.78
12:45:04.453125,-52.03
12:45:04.468750,-56.09
12:45:04.484375,-60.67
12:45:04.500000,-66.22
12:45:04.515625,-72.60
12:45:04.531250,-78.75
12:45:04.546875,-82.89
12:45:04.562500,-82.97
12:45:04.578125,-77.52
12:45:04.593750,-66.20
12:45:04.609375,-50.10
12:45:04.625000,-31.43
12:45:04.640625,-12.82
12:45:04.656250,3.57
12:45:04.671875,16.50
12:45:04.687500,25.94
12:45:04.703125,32.62
12:45:04.718750,37.54
12:45:04.734375,41.55
12:45:04.750000,45.05
12:45:04.765625,48.11
12:45:04.781250,50.62
12:45:04.796875,52.44
12:45:04.812500,53.53
12:45:04.828125,53.85
12:45:04.843750,53.36
12:45:04.859375,51.99
12:45:04.875000,49.76
12:45:04.890625,46.79
12:45:04.906250,43.36
12:45:04.921875,39.84
12:45:04.937500,36.53
12:45:04.953125,33.50
12:45:04.968750,30.61
12:45:04.984375,27.54
12:45:05,24.00
12:45:05.015625,19.86
12:45:05.031250,15.27
12:45:05.046875,10.48
12:45:05.062500,5.77
12:45:05.078125,1.33
12:45:05.093750,-2.88
12:45:05.109375,-6.99
12:45:05.125000,-11.17
12:45:05.140625,-15.50
12:45:05.156250,-19.93
12:45:05.171875,-24.31
12:45:05.187500,-28.54
12:45:05.203125,-32.62
12:45:05.218750,-36.73
12:45:05.234375,-41.18
12:45:05.250000,-46.26
12:45:05.265625,-52.09
12:45:05.281250,-58.47
12:45:05.296875,-64.83
12:45:05.312500,-70.25
12:45:05.328125,-73.56
12:45:05.343750,-73.60
12:45:05.359375,-69.55
12:45:05.375000,-61.19
12:45:05.390625,-49.03
12:45:05.406250,-34.29
12:45:05.421875,-18.56
12:45:05.437500,-3.41
12:45:05.453125,9.99
12:45:05.468750,21.07
12:45:05.484375,29.82
12:45:05.500000,36.51
12:45:05.515625,41.47
12:45:05.531250,44.83
12:45:05.546875,46.64
12:45:05.562500,46.88
12:45:05.578125,45.73
12:45:05.593750,43.57
12:45:05.609375,40.98
12:45:05.625000,38.49
12:45:05.640625,36.50
12:45:05.656250,35.13
12:45:05.671875,34.28
12:45:05.687500,33.70
12:45:05.703125,33.15
12:45:05.718750,32.42
12:45:05.734375,31.35
12:45:05.750000,29.83
12:45:05.765625,27.76
12:45:05.781250,25.11
12:45:05.796875,21.93
12:45:05.812500,18.41
12:45:05.828125,14.88
12:45:05.843750,11.65
12:45:05.859375,8.92
12:45:05.875000,6.58
12:45:05.890625,4.25
12:45:05.906250,1.37
12:45:05.921875,-2.51
12:45:05.937500,-7.55
12:45:05.953125,-13.46
12:45:05.968750,-19.60
12:45:05.984375,-25.22
12:45:06,-29.81
12:45:06.015625,-33.33
12:45:06.031250,-36.24
12:45:06.046875,-39.37
12:45:06.062500,-43.65
12:45:06.078125,-49.67
12:45:06.093750,-57.34
12:45:06.109375,-65.72
12:45:06.125000,-73.09
12:45:06.140625,-77.39
12:45:06.156250,-76.78
12:45:06.171875,-70.33
12:45:06.187500,-58.33
12:45:06.203125,-42.28
12:45:06.218750,-24.38
12:45:06.234375,-6.89
12:45:06.250000,8.47
12:45:06.265625,20.78
12:45:06.281250,29.93
12:45:06.296875,36.36
12:45:06.312500,40.74
12:45:06.328125,43.73
12:45:06.343750,45.86
12:45:06.359375,47.45
12:45:06.375000,48.64
12:45:06.390625,49.41
12:45:06.406250,49.62
12:45:06.421875,49.13
12:45:06.437500,47.87
12:45:06.453125,45.88
12:45:06.468750,43.35
12:45:06.484375,40.58
12:45:06.500000,37.85
12:45:06.515625,35.36
12:45:06.531250,33.08
12:45:06.546875,30.79
12:45:06.562500,28.09
12:45:06.578125,24.63
12:45:06.593750,20.20
12:45:06.609375,14.89
12:45:06.625000,9.10
12:45:06.640625,3.44
12:45:06.656250,-1.54
12:45:06.671875,-5.53
12:45:06.687500,-8.49
12:45:06.703125,-10.77
12:45:06.718750,-12.86
12:45:06.734375,-15.28
12:45:06.750000,-18.41
12:45:06.765625,-22.40
12:45:06.781250,-27.09
12:45:06.796875,-32.14
12:45:06.812500,-37.02
12:45:06.828125,-41.30
12:45:06.843750,-44.76
12:45:06.859375,-47.52
12:45:06.875000,-50.02
12:45:06.890625,-52.81
12:45:06.906250,-56.21
12:45:06.921875,-59.98
12:45:06.937500,-63.21
12:45:06.953125,-64.44
12:45:06.968750,-62.14
12:45:06.984375,-55.30
12:45:07,-43.90
12:45:07.015625,-28.91
12:45:07.031250,-12.20
12:45:07.046875,4.15
12:45:07.062500,18.35
12:45:07.078125,29.28
12:45:07.093750,36.59
12:45:07.109375,40.54
12:45:07.125000,41.72
12:45:07.140625,40.84
12:45:07.156250,38.62
12:45:07.171875,35.75
12:45:07.187500,32.90
12:45:07.203125,30.60
12:45:07.218750,29.18
12:45:07.234375,28.65
12:45:07.250000,28.72
12:45:07.265625,28.89
12:45:07.281250,28.61
12:45:07.296875,27.51
12:45:07.312500,25.38
12:45:07.328125,22.33
12:45:07.343750,18.67
12:45:07.359375,14.84
12:45:07.375000,11.31
12:45:07.390625,8.42
12:45:07.406250,6.26
12:45:07.421875,4.66
12:45:07.437500,3.13
12:45:07.453125,1.04
12:45:07.468750,-2.27
12:45:07.484375,-7.18
12:45:07.500000,-13.81
12:45:07.515625,-21.84
12:45:07.531250,-30.66
12:45:07.546875,-39.56
12:45:07.562500,-47.84
12:45:07.578125,-55.03
12:45:07.593750,-61.04
12:45:07.609375,-66.20
12:45:07.625000,-71.12
12:45:07.640625,-76.59
12:45:07.656250,-83.30
12:45:07.671875,-91.64
12:45:07.687500,-101.56
12:45:07.703125,-112.48
12:45:07.718750,-123.31
12:45:07.734375,-132.64
12:45:07.750000,-139.03
12:45:07.765625,-141.34
12:45:07.781250,-139.15
12:45:07.796875,-132.97
12:45:07.812500,-124.14
12:45:07.828125,-114.51
12:45:07.843750,-105.79
12:45:07.859375,-99.03
12:45:07.875000,-94.35
12:45:07.890625,-91.15
12:45:07.906250,-88.41
12:45:07.921875,-85.21
12:45:07.937500,-80.80
12:45:07.953125,-74.63
12:45:07.968750,-66.18
12:45:07.984375,-54.90
12:45:08,-40.23
12:45:08.015625,-21.85
12:45:08.031250,0.12
12:45:08.046875,24.96
12:45:08.062500,51.48
12:45:08.078125,78.10
12:45:08.093750,103.18
12:45:08.109375,125.19
12:45:08.125000,142.89
12:45:08.140625,155.51
12:45:08.156250,162.86
12:45:08.171875,165.28
12:45:08.187500,163.56
12:45:08.203125,158.66
12:45:08.218750,151.56
12:45:08.234375,143.02
12:45:08.250000,133.56
12:45:08.265625,123.47
12:45:08.281250,112.90
12:45:08.296875,102.01
12:45:08.312500,90.92
12:45:08.328125,79.79
12:45:08.343750,68.81
12:45:08.359375,58.20
12:45:08.375000,48.26
12:45:08.390625,39.29
12:45:08.406250,31.58
12:45:08.421875,25.07
12:45:08.437500,19.38
12:45:08.453125,13.81
12:45:08.468750,7.62
12:45:08.484375,0.36
12:45:08.500000,-7.85
12:45:08.515625,-16.16
12:45:08.531250,-23.15
12:45:08.546875,-27.18
12:45:08.562500,-26.92
12:45:08.578125,-21.82
12:45:08.593750,-12.34
12:45:08.609375,0.13
12:45:08.625000,13.59
12:45:08.640625,25.98
12:45:08.656250,35.79
12:45:08.671875,42.20
12:45:08.687500,45.30
12:45:08.703125,45.71
12:45:08.718750,44.26
12:45:08.734375,41.72
12:45:08.750000,38.64
12:45:08.765625,35.37
12:45:08.781250,32.17
12:45:08.796875,29.25
12:45:08.812500,26.78
12:45:08.828125,24.82
12:45:08.843750,23.29
12:45:08.859375,22.02
12:45:08.875000,20.86
12:45:08.890625,19.81
12:45:08.906250,19.05
12:45:08.921875,18.83
12:45:08.937500,19.31
12:45:08.953125,20.38
12:45:08.968750,21.61
12:45:08.984375,22.35
12:45:09,21.93
12:45:09.015625,19.89
12:45:09.031250,16.11
12:45:09.046875,10.82
12:45:09.062500,4.50
12:45:09.078125,-2.23
12:45:09.093750,-8.75
12:45:09.109375,-14.56
12:45:09.125000,-19.35
12:45:09.140625,-23.06
12:45:09.156250,-25.88
12:45:09.171875,-28.20
12:45:09.187500,-30.51
12:45:09.203125,-33.21
12:45:09.218750,-36.53
12:45:09.234375,-40.50
12:45:09.250000,-44.94
12:45:09.265625,-49.53
12:45:09.281250,-53.76
12:45:09.296875,-56.93
12:45:09.312500,-58.20
12:45:09.328125,-56.67
12:45:09.343750,-51.76
12:45:09.359375,-43.37
12:45:09.375000,-32.02
12:45:09.390625,-18.76
12:45:09.406250,-4.89
12:45:09.421875,8.36
12:45:09.437500,20.04
12:45:09.453125,29.59
12:45:09.468750,36.66
12:45:09.484375,41.06
12:45:09.500000,42.68
12:45:09.515625,41.65
12:45:09.531250,38.30
12:45:09.546875,33.40
12:45:09.562500,27.99
12:45:09.578125,23.21
12:45:09.593750,20.03
12:45:09.609375,18.97
12:45:09.625000,19.91
12:45:09.640625,22.12
12:45:09.656250,24.54
12:45:09.671875,26.04
12:45:09.687500,25.85
12:45:09.703125,23.72
12:45:09.718750,19.98
12:45:09.734375,15.33
12:45:09.750000,10.56
12:45:09.765625,6.20
12:45:09.781250,2.42
12:45:09.796875,-1.04
12:45:09.812500,-4.65
12:45:09.828125,-8.83
12:45:09.843750,-13.79
12:45:09.859375,-19.33
12:45:09.875000,-24.94
12:45:09.890625,-29.93
12:45:09.906250,-33.71
12:45:09.921875,-36.00
12:45:09.937500,-36.95
12:45:09.953125,-37.14
12:45:09.968750,-37.43
12:45:09.984375,-38.79
12:45:10,-42.00
12:45:10.015625,-47.43
12:45:10.031250,-54.77
12:45:10.046875,-62.95
12:45:10.062500,-70.24
12:45:10.078125,-74.62
12:45:10.093750,-74.34
12:45:10.109375,-68.41
12:45:10.125000,-56.94
12:45:10.140625,-41.15
12:45:10.156250,-23.08
12:45:10.171875,-5.06
12:45:10.187500,10.82
12:45:10.203125,23.06
12:45:10.218750,30.90
12:45:10.234375,34.32
12:45:10.250000,33.82
12:45:10.265625,30.22
12:45:10.281250,24.55
12:45:10.296875,17.89
12:45:10.312500,11.29
12:45:10.328125,5.77
12:45:10.343750,2.09
12:45:10.359375,0.70
12:45:10.375000,1.58
12:45:10.390625,4.26
12:45:10.406250,8.00
12:45:10.421875,11.98
12:45:10.437500,15.60
12:45:10.453125,18.52
12:45:10.468750,20.63
12:45:10.484375,21.94
12:45:10.500000,22.33
12:45:10.515625,21.60
12:45:10.531250,19.45
12:45:10.546875,15.73
12:45:10.562500,10.51
12:45:10.578125,4.25
12:45:10.593750,-2.36
12:45:10.609375,-8.55
12:45:10.625000,-13.65
12:45:10.640625,-17.30
12:45:10.656250,-19.56
12:45:10.671875,-20.87
12:45:10.687500,-21.92
12:45:10.703125,-23.44
12:45:10.718750,-25.94
12:45:10.734375,-29.50
12:45:10.750000,-33.64
12:45:10.765625,-37.38
12:45:10.781250,-39.43
12:45:10.796875,-38.51
12:45:10.812500,-33.61
12:45:10.828125,-24.32
12:45:10.843750,-10.92
12:45:10.859375,5.47
12:45:10.875000,23.12
12:45:10.890625,39.98
12:45:10.906250,54.28
12:45:10.921875,64.97
12:45:10.937500,71.89
12:45:10.953125,75.58
12:45:10.968750,76.82
12:45:10.984375,76.12
12:45:11,73.56
12:45:11.015625,68.99
12:45:11.031250,62.51
12:45:11.046875,54.70
12:45:11.062500,46.58
12:45:11.078125,39.24
12:45:11.093750,33.29
12:45:11.109375,28.54
12:45:11.125000,24.22
12:45:11.140625,19.47
12:45:11.156250,13.81
12:45:11.171875,7.45
12:45:11.187500,1.08
12:45:11.203125,-4.48
12:45:11.218750,-8.89
12:45:11.234375,-12.50
12:45:11.250000,-16.45
12:45:11.265625,-22.24
12:45:11.281250,-31.03
12:45:11.296875,-43.12
12:45:11.312500,-57.72
12:45:11.328125,-73.30
12:45:11.343750,-88.17
12:45:11.359375,-100.91
12:45:11.375000,-110.65
12:45:11.390625,-116.93
12:45:11.406250,-119.60
12:45:11.421875,-118.86
12:45:11.437500,-115.44
12:45:11.453125,-110.78
12:45:11.468750,-106.77
12:45:11.484375,-105.04
12:45:11.500000,-106.07
12:45:11.515625,-108.56
12:45:11.531250,-109.66
12:45:11.546875,-105.95
12:45:11.562500,-94.81
12:45:11.578125,-75.38
12:45:11.593750,-48.92
12:45:11.609375,-18.18
12:45:11.625000,13.50
12:45:11.640625,43.15
12:45:11.656250,68.72
12:45:11.671875,89.28
12:45:11.687500,104.84
12:45:11.703125,115.93
12:45:11.718750,123.33
12:45:11.734375,127.78
12:45:11.750000,129.90
12:45:11.765625,130.07
12:45:11.781250,128.45
12:45:11.796875,125.09
12:45:11.812500,120.04
12:45:11.828125,113.53
12:45:11.843750,106.00
12:45:11.859375,98.13
12:45:11.875000,90.71
12:45:11.890625,84.40
12:45:11.906250,79.52
12:45:11.921875,75.92
12:45:11.937500,72.90
12:45:11.953125,69.38
12:45:11.968750,64.20
12:45:11.984375,56.37
12:45:12,45.39
12:45:12.015625,31.42
12:45:12.031250,15.28
12:45:12.046875,-1.78
12:45:12.062500,-18.46
12:45:12.078125,-33.80
12:45:12.093750,-47.58
12:45:12.109375,-60.36
12:45:12.125000,-73.26
12:45:12.140625,-87.57
12:45:12.156250,-104.25
12:45:12.171875,-123.68
12:45:12.187500,-145.52
12:45:12.203125,-168.86
12:45:12.218750,-192.43
12:45:12.234375,-214.60
12:45:12.250000,-233.56
12:45:12.265625,-247.37
12:45:12.281250,-254.31
12:45:12.296875,-253.15
12:45:12.312500,-243.53
12:45:12.328125,-226.10
12:45:12.343750,-202.34
12:45:12.359375,-174.21
12:45:12.375000,-143.76
12:45:12.390625,-112.76
12:45:12.406250,-82.59
12:45:12.421875,-54.27
12:45:12.437500,-28.58
12:45:12.453125,-6.11
12:45:12.468750,12.73
12:45:12.484375,27.78
12:45:12.500000,39.30
12:45:12.515625,48.00
12:45:12.531250,54.92
12:45:12.546875,61.13
12:45:12.562500,67.43
12:45:12.578125,74.09
12:45:12.593750,80.90
12:45:12.609375,87.44
12:45:12.625000,93.46
12:45:12.640625,99.02
12:45:12.656250,104.45
12:45:12.671875,110.05
12:45:12.687500,115.83
12:45:12.703125,121.35
12:45:12.718750,125.87
12:45:12.734375,128.63
12:45:12.750000,129.10
12:45:12.765625,127.13
12:45:12.781250,122.91
12:45:12.796875,116.84
12:45:12.812500,109.41
12:45:12.828125,101.03
12:45:12.843750,91.93
12:45:12.859375,82.15
12:45:12.875000,71.58
12:45:12.890625,59.98
12:45:12.906250,47.14
12:45:12.921875,32.90
12:45:12.937500,17.29
12:45:12.953125,0.48
12:45:12.968750,-17.18
12:45:12.984375,-35.16
12:45:13,-52.66
12:45:13.015625,-68.72
12:45:13.031250,-82.27
12:45:13.046875,-92.37
12:45:13.062500,-98.52
12:45:13.078125,-100.87
12:45:13.093750,-100.25
12:45:13.109375,-97.97
12:45:13.125000,-95.23
12:45:13.140625,-92.65
12:45:13.156250,-89.78
12:45:13.171875,-85.22
12:45:13.187500,-77.05
12:45:13.203125,-63.76
12:45:13.218750,-44.99
12:45:13.234375,-21.85
12:45:13.250000,3.43
12:45:13.265625,28.16
12:45:13.281250,50.00
12:45:13.296875,67.39
12:45:13.312500,79.37
12:45:13.328125,85.39
12:45:13.343750,84.97
12:45:13.359375,77.89
12:45:13.375000,64.61
12:45:13.390625,46.81
12:45:13.406250,27.44
12:45:13.421875,10.26
12:45:13.437500,-1.26
12:45:13.453125,-5.11
12:45:13.468750,-1.54
12:45:13.484375,6.97
12:45:13.500000,16.68
12:45:13.515625,24.00
12:45:13.531250,26.88
12:45:13.546875,25.58
12:45:13.562500,22.43
12:45:13.578125,20.58
12:45:13.593750,22.66
12:45:13.609375,29.67
12:45:13.625000,40.99
12:45:13.640625,55.02
12:45:13.656250,70.24
12:45:13.671875,85.75
12:45:13.687500,101.08
12:45:13.703125,115.41
12:45:13.718750,127.13
12:45:13.734375,134.09
12:45:13.750000,134.75
12:45:13.765625,129.50
12:45:13.781250,121.00
12:45:13.796875,113.33
12:45:13.812500,109.91
12:45:13.828125,111.48
12:45:13.843750,115.40
12:45:13.859375,116.65
12:45:13.875000,110.29
12:45:13.890625,93.94
12:45:13.906250,68.88
12:45:13.921875,39.48
12:45:13.937500,11.37
12:45:13.953125,-10.57
12:45:13.968750,-23.50
12:45:13.984375,-26.75
12:45:14,-21.26
12:45:14.015625,-8.83
12:45:14.031250,8.30
12:45:14.046875,27.59
12:45:14.062500,46.28
12:45:14.078125,61.62
12:45:14.093750,71.32
12:45:14.109375,74.03
12:45:14.125000,69.53
12:45:14.140625,58.68
12:45:14.156250,42.93
12:45:14.171875,23.76
12:45:14.187500,2.32
12:45:14.203125,-20.80
12:45:14.218750,-45.37
12:45:14.234375,-71.14
12:45:14.250000,-97.49
12:45:14.265625,-123.06
12:45:14.281250,-146.01
12:45:14.296875,-164.36
12:45:14.312500,-176.62
12:45:14.328125,-181.94
12:45:14.343750,-180.20
12:45:14.359375,-171.70
12:45:14.375000,-157.05
12:45:14.390625,-137.32
12:45:14.406250,-114.23
12:45:14.421875,-90.28
12:45:14.437500,-68.49
12:45:14.453125,-51.76
12:45:14.468750,-42.16
12:45:14.484375,-40.43
12:45:14.500000,-45.90
12:45:14.515625,-56.85
12:45:14.531250,-70.93
12:45:14.546875,-85.42
12:45:14.562500,-97.41
12:45:14.578125,-103.88
12:45:14.593750,-102.14
12:45:14.609375,-90.42
12:45:14.625000,-68.69
12:45:14.640625,-39.08
12:45:14.656250,-5.58
12:45:14.671875,27.01
12:45:14.687500,54.56
12:45:14.703125,74.88
12:45:14.718750,88.29
12:45:14.734375,97.13
12:45:14.750000,104.55
12:45:14.765625,113.12
12:45:14.781250,123.86
12:45:14.796875,136.07
12:45:14.812500,147.94
12:45:14.828125,157.56
12:45:14.843750,163.68
12:45:14.859375,166.03
12:45:14.875000,165.00
12:45:14.890625,161.21
12:45:14.906250,155.05
12:45:14.921875,146.61
12:45:14.937500,135.93
12:45:14.953125,123.29
12:45:14.968750,109.42
12:45:14.984375,95.30
12:45:15,81.88
12:45:15.015625,69.68
12:45:15.031250,58.76
12:45:15.046875,48.87
12:45:15.062500,39.89
12:45:15.078125,32.10
12:45:15.093750,26.24
12:45:15.109375,23.22
12:45:15.125000,23.66
12:45:15.140625,27.44
12:45:15.156250,33.51
12:45:15.171875,40.04
12:45:15.187500,44.92
12:45:15.203125,46.42
12:45:15.218750,43.75
12:45:15.234375,37.24
12:45:15.250000,28.28
12:45:15.265625,18.76
12:45:15.281250,10.49
12:45:15.296875,4.67
12:45:15.312500,1.62
12:45:15.328125,0.80
12:45:15.343750,1.04
12:45:15.359375,0.91
12:45:15.375000,-0.97
12:45:15.390625,-5.61
12:45:15.406250,-13.35
12:45:15.421875,-23.67
12:45:15.437500,-35.15
12:45:15.453125,-45.64
12:45:15.468750,-52.79
12:45:15.484375,-54.70
12:45:15.500000,-50.53
12:45:15.515625,-40.87
12:45:15.531250,-27.56
12:45:15.546875,-13.15
12:45:15.562500,-0.18
12:45:15.578125,9.57
12:45:15.593750,15.36
12:45:15.609375,17.34
12:45:15.625000,16.21
12:45:15.640625,12.70
12:45:15.656250,7.37
12:45:15.671875,0.65
12:45:15.687500,-6.99
12:45:15.703125,-14.75
12:45:15.718750,-21.66
12:45:15.734375,-26.75
12:45:15.750000,-29.50
12:45:15.765625,-30.08
12:45:15.781250,-29.22
12:45:15.796875,-27.87
12:45:15.812500,-26.72
12:45:15.828125,-25.93
12:45:15.843750,-25.12
12:45:15.859375,-23.73
12:45:15.875000,-21.43
12:45:15.890625,-18.48
12:45:15.906250,-15.66
12:45:15.921875,-14.03
12:45:15.937500,-14.46
12:45:15.953125,-17.28
12:45:15.968750,-22.18
12:45:15.984375,-28.42
12:45:16,-35.18
12:45:16.015625,-41.79
12:45:16.031250,-47.89
12:45:16.046875,-53.25
12:45:16.062500,-57.66
12:45:16.078125,-60.79
12:45:16.093750,-62.29
12:45:16.109375,-62.02
12:45:16.125000,-60.22
12:45:16.140625,-57.56
12:45:16.156250,-55.00
12:45:16.171875,-53.56
12:45:16.187500,-54.16
12:45:16.203125,-57.44
12:45:16.218750,-63.54
12:45:16.234375,-71.87
12:45:16.250000,-80.94
12:45:16.265625,-88.42
12:45:16.281250,-91.63
12:45:16.296875,-88.32
12:45:16.312500,-77.56
12:45:16.328125,-60.12
12:45:16.343750,-38.21
12:45:16.359375,-14.64
12:45:16.375000,8.16
12:45:16.390625,28.70
12:45:16.406250,46.39
12:45:16.421875,61.09
12:45:16.437500,72.55
12:45:16.453125,80.25
12:45:16.468750,83.64
12:45:16.484375,82.64
12:45:16.500000,77.92
12:45:16.515625,70.88
12:45:16.531250,63.16
12:45:16.546875,56.06
12:45:16.562500,50.14
12:45:16.578125,45.21
12:45:16.593750,40.59
12:45:16.609375,35.59
12:45:16.625000,29.93
12:45:16.640625,23.83
12:45:16.656250,17.98
12:45:16.671875,13.12
12:45:16.687500,9.80
12:45:16.703125,8.02
12:45:16.718750,7.25
12:45:16.734375,6.63
12:45:16.750000,5.22
12:45:16.765625,2.38
12:45:16.781250,-2.09
12:45:16.796875,-7.93
12:45:16.812500,-14.63
12:45:16.828125,-21.62
12:45:16.843750,-28.54
12:45:16.859375,-35.31
12:45:16.875000,-42.10
12:45:16.890625,-49.15
12:45:16.906250,-56.66
12:45:16.921875,-64.62
12:45:16.937500,-72.95
12:45:16.953125,-81.50
12:45:16.968750,-90.11
12:45:16.984375,-98.41
12:45:17,-105.56
12:45:17.015625,-110.16
12:45:17.031250,-110.46
12:45:17.046875,-104.90
12:45:17.062500,-92.76
12:45:17.078125,-74.65
12:45:17.093750,-52.46
12:45:17.109375,-28.80
12:45:17.125000,-6.15
12:45:17.140625,13.77
12:45:17.156250,30.28
12:45:17.171875,43.50
12:45:17.187500,53.90
12:45:17.203125,61.88
12:45:17.218750,67.58
12:45:17.234375,70.99
12:45:17.250000,72.15
12:45:17.265625,71.40
12:45:17.281250,69.43
12:45:17.296875,67.13
12:45:17.312500,65.38
12:45:17.328125,64.70
12:45:17.343750,65.13
12:45:17.359375,66.14
12:45:17.375000,66.90
12:45:17.390625,66.53
12:45:17.406250,64.45
12:45:17.421875,60.48
12:45:17.437500,54.78
12:45:17.453125,47.71
12:45:17.468750,39.58
12:45:17.484375,30.62
12:45:17.500000,21.02
12:45:17.515625,10.99
12:45:17.531250,0.80
12:45:17.546875,-9.17
12:45:17.562500,-18.58
12:45:17.578125,-27.12
12:45:17.593750,-34.57
12:45:17.609375,-40.81
12:45:17.625000,-45.76
12:45:17.640625,-49.46
12:45:17.656250,-52.11
12:45:17.671875,-54.12
12:45:17.687500,-56.08
12:45:17.703125,-58.82
12:45:17.718750,-63.27
12:45:17.734375,-70.29
12:45:17.750000,-80.38
12:45:17.765625,-93.20
12:45:17.781250,-107.37
12:45:17.796875,-120.52
12:45:17.812500,-129.73
12:45:17.828125,-132.36
12:45:17.843750,-126.81
12:45:17.859375,-112.97
12:45:17.875000,-92.18
12:45:17.890625,-66.74
12:45:17.906250,-39.19
12:45:17.921875,-11.81
12:45:17.937500,13.73
12:45:17.953125,36.32
12:45:17.968750,55.31
12:45:17.984375,70.32
12:45:18,81.20
12:45:18.015625,88.00
12:45:18.031250,91.03
12:45:18.046875,90.81
12:45:18.062500,88.05
12:45:18.078125,83.54
12:45:18.093750,78.06
12:45:18.109375,72.33
12:45:18.125000,66.90
12:45:18.140625,62.21
12:45:18.156250,58.50
12:45:18.171875,55.84
12:45:18.187500,54.11
12:45:18.203125,53.03
12:45:18.218750,52.18
12:45:18.234375,51.08
12:45:18.250000,49.25
12:45:18.265625,46.27
12:45:18.281250,41.87
12:45:18.296875,35.96
12:45:18.312500,28.63
12:45:18.328125,20.20
12:45:18.343750,11.06
12:45:18.359375,1.60
12:45:18.375000,-7.88
12:45:18.390625,-17.23
12:45:18.406250,-26.36
12:45:18.421875,-35.19
12:45:18.437500,-43.52
12:45:18.453125,-51.06
12:45:18.468750,-57.54
12:45:18.484375,-62.87
12:45:18.500000,-67.35
12:45:18.515625,-71.65
12:45:18.531250,-76.54
12:45:18.546875,-82.52
12:45:18.562500,-89.40
12:45:18.578125,-96.11
12:45:18.593750,-100.96
12:45:18.609375,-102.08
12:45:18.625000,-98.12
12:45:18.640625,-88.69
12:45:18.656250,-74.48
12:45:18.671875,-57.02
12:45:18.687500,-38.12
12:45:18.703125,-19.38
12:45:18.718750,-1.77
12:45:18.734375,14.39
12:45:18.750000,29.34
12:45:18.765625,43.53
12:45:18.781250,57.32
12:45:18.796875,70.68
12:45:18.812500,83.12
12:45:18.828125,93.82
12:45:18.843750,101.82
12:45:18.859375,106.43
12:45:18.875000,107.40
12:45:18.890625,105.04
12:45:18.906250,100.08
12:45:18.921875,93.50
12:45:18.937500,86.21
12:45:18.953125,78.92
12:45:18.968750,71.98
12:45:18.984375,65.45
12:45:19,59.19
12:45:19.015625,52.99
12:45:19.031250,46.73
12:45:19.046875,40.45
12:45:19.062500,34.46
12:45:19.078125,29.12
12:45:19.093750,24.74
12:45:19.109375,21.36
12:45:19.125000,18.63
12:45:19.140625,15.88
12:45:19.156250,12.35
12:45:19.171875,7.45
12:45:19.187500,1.03
12:45:19.203125,-6.65
12:45:19.218750,-15.02
12:45:19.234375,-23.48
12:45:19.250000,-31.66
12:45:19.265625,-39.50
12:45:19.281250,-47.21
12:45:19.296875,-55.24
12:45:19.312500,-64.06
12:45:19.328125,-73.96
12:45:19.343750,-84.80
12:45:19.359375,-95.73
12:45:19.375000,-105.16
12:45:19.390625,-110.99
12:45:19.406250,-111.20
12:45:19.421875,-104.53
12:45:19.437500,-91.04
12:45:19.453125,-72.22
12:45:19.468750,-50.50
12:45:19.484375,-28.58
12:45:19.500000,-8.64
12:45:19.515625,8.13
12:45:19.531250,21.52
12:45:19.546875,31.99
12:45:19.562500,40.22
12:45:19.578125,46.70
12:45:19.593750,51.68
12:45:19.609375,55.12
12:45:19.625000,56.96
12:45:19.640625,57.35
12:45:19.656250,56.63
12:45:19.671875,55.43
12:45:19.687500,54.34
12:45:19.703125,53.79
12:45:19.718750,53.83
12:45:19.734375,54.21
12:45:19.750000,54.44
12:45:19.765625,54.06
12:45:19.781250,52.75
12:45:19.796875,50.36
12:45:19.812500,46.92
12:45:19.828125,42.47
12:45:19.843750,37.10
12:45:19.859375,30.88
12:45:19.875000,23.99
12:45:19.890625,16.70
12:45:19.906250,9.30
12:45:19.921875,1.99
12:45:19.937500,-5.11
12:45:19.953125,-12.01
12:45:19.968750,-18.66
12:45:19.984375,-24.90
12:45:20,-30.41
12:45:20.015625,-34.87
12:45:20.031250,-38.07
12:45:20.046875,-40.11
12:45:20.062500,-41.47
12:45:20.078125,-42.92
12:45:20.093750,-45.33
12:45:20.109375,-49.45
12:45:20.125000,-55.78
12:45:20.140625,-64.38
12:45:20.156250,-74.80
12:45:20.171875,-85.96
12:45:20.187500,-96.22
12:45:20.203125,-103.61
12:45:20.218750,-106.27
12:45:20.234375,-102.98
12:45:20.250000,-93.48
12:45:20.265625,-78.52
12:45:20.281250,-59.60
12:45:20.296875,-38.47
12:45:20.312500,-16.71
12:45:20.328125,4.44
12:45:20.343750,24.07
12:45:20.359375,41.34
12:45:20.375000,55.47
12:45:20.390625,65.74
12:45:20.406250,71.80
12:45:20.421875,73.85
12:45:20.437500,72.59
12:45:20.453125,69.10
12:45:20.468750,64.51
12:45:20.484375,59.70
12:45:20.500000,55.21
12:45:20.515625,51.24
12:45:20.531250,47.87
12:45:20.546875,45.11
12:45:20.562500,43.07
12:45:20.578125,41.82
12:45:20.593750,41.33
12:45:20.609375,41.43
12:45:20.625000,41.70
12:45:20.640625,41.63
12:45:20.656250,40.61
12:45:20.671875,38.24
12:45:20.687500,34.36
12:45:20.703125,29.21
12:45:20.718750,23.28
12:45:20.734375,17.16
12:45:20.750000,11.25
12:45:20.765625,5.64
12:45:20.781250,0.08
12:45:20.796875,-5.82
12:45:20.812500,-12.38
12:45:20.828125,-19.58
12:45:20.843750,-27.02
12:45:20.859375,-34.02
12:45:20.875000,-39.86
12:45:20.890625,-44.00
12:45:20.906250,-46.35
12:45:20.921875,-47.28
12:45:20.937500,-47.64
12:45:20.953125,-48.55
12:45:20.968750,-51.14
12:45:20.984375,-56.20
12:45:21,-63.74
12:45:21.015625,-72.79
12:45:21.031250,-81.50
12:45:21.046875,-87.58
12:45:21.062500,-88.95
12:45:21.078125,-84.39
12:45:21.093750,-73.94
12:45:21.109375,-58.74
12:45:21.125000,-40.72
12:45:21.140625,-21.90
12:45:21.156250,-3.93
12:45:21.171875,12.21
12:45:21.187500,26.08
12:45:21.203125,37.72
12:45:21.218750,47.20
12:45:21.234375,54.60
12:45:21.250000,59.84
12:45:21.265625,62.80
12:45:21.281250,63.53
12:45:21.296875,62.34
12:45:21.312500,59.84
12:45:21.328125,56.76
12:45:21.343750,53.78
12:45:21.359375,51.27
12:45:21.375000,49.22
12:45:21.390625,47.43
12:45:21.406250,45.64
12:45:21.421875,43.73
12:45:21.437500,41.76
12:45:21.453125,39.79
12:45:21.468750,37.80
12:45:21.484375,35.53
12:45:21.500000,32.63
12:45:21.515625,28.77
12:45:21.531250,23.81
12:45:21.546875,17.86
12:45:21.562500,11.34
12:45:21.578125,4.84
12:45:21.593750,-1.08
12:45:21.609375,-6.02
12:45:21.625000,-9.91
12:45:21.640625,-13.08
12:45:21.656250,-16.02
12:45:21.671875,-19.30
12:45:21.687500,-23.24
12:45:21.703125,-27.84
12:45:21.718750,-32.74
12:45:21.734375,-37.43
12:45:21.750000,-41.44
12:45:21.765625,-44.60
12:45:21.781250,-47.13
12:45:21.796875,-49.59
12:45:21.812500,-52.67
12:45:21.828125,-57.03
12:45:21.843750,-63.01
12:45:21.859375,-70.42
12:45:21.875000,-78.43
12:45:21.890625,-85.62
12:45:21.906250,-90.28
12:45:21.921875,-90.81
12:45:21.937500,-86.25
12:45:21.953125,-76.50
12:45:21.968750,-62.42
12:45:21.984375,-45.53
12:45:22,-27.55
12:45:22.015625,-9.96
12:45:22.031250,6.21
12:45:22.046875,20.38
12:45:22.062500,32.19
12:45:22.078125,41.43
12:45:22.093750,47.91
12:45:22.109375,51.59
12:45:22.125000,52.73
12:45:22.140625,51.89
12:45:22.156250,49.80
12:45:22.171875,47.18
12:45:22.187500,44.52
12:45:22.203125,42.01
12:45:22.218750,39.64
12:45:22.234375,37.33
12:45:22.250000,35.04
12:45:22.265625,32.82
12:45:22.281250,30.66
12:45:22.296875,28.47
12:45:22.312500,25.99
12:45:22.328125,22.96
12:45:22.343750,19.23
12:45:22.359375,14.84
12:45:22.375000,10.03
12:45:22.390625,5.10
12:45:22.406250,0.30
12:45:22.421875,-4.29
12:45:22.437500,-8.75
12:45:22.453125,-13.26
12:45:22.468750,-18.00
12:45:22.484375,-23.14
12:45:22.500000,-28.78
12:45:22.515625,-34.75
12:45:22.531250,-40.53
12:45:22.546875,-45.16
12:45:22.562500,-47.38
12:45:22.578125,-45.98
12:45:22.593750,-40.27
12:45:22.609375,-30.41
12:45:22.625000,-17.46
12:45:22.640625,-3.06
12:45:22.656250,11.05
12:45:22.671875,23.54
12:45:22.687500,33.69
12:45:22.703125,41.36
12:45:22.718750,46.73
12:45:22.734375,49.94
12:45:22.750000,51.13
12:45:22.765625,50.42
12:45:22.781250,48.06
12:45:22.796875,44.62
12:45:22.812500,40.78
12:45:22.828125,37.28
12:45:22.843750,34.57
12:45:22.859375,32.79
12:45:22.875000,31.73
12:45:22.890625,31.02
12:45:22.906250,30.32
12:45:22.921875,29.45
12:45:22.937500,28.39
12:45:22.953125,27.13
12:45:22.968750,25.67
12:45:22.984375,23.94
12:45:23,21.91
12:45:23.015625,19.57
12:45:23.031250,17.00
12:45:23.046875,14.35
12:45:23.062500,11.68
12:45:23.078125,9.03
12:45:23.093750,6.43
12:45:23.109375,3.90
12:45:23.125000,1.46
12:45:23.140625,-0.87
12:45:23.156250,-3.18
12:45:23.171875,-5.55
12:45:23.187500,-8.04
12:45:23.203125,-10.57
12:45:23.218750,-12.95
12:45:23.234375,-14.97
12:45:23.250000,-16.50
12:45:23.265625,-17.62
12:45:23.281250,-18.59
12:45:23.296875,-19.66
12:45:23.312500,-20.96
12:45:23.328125,-22.48
12:45:23.343750,-24.09
12:45:23.359375,-25.65
12:45:23.375000,-27.18
12:45:23.390625,-28.73
12:45:23.406250,-30.45
12:45:23.421875,-32.44
12:45:23.437500,-34.69
12:45:23.453125,-37.08
12:45:23.468750,-39.40
12:45:23.484375,-41.48
12:45:23.500000,-43.23
12:45:23.515625,-44.79
12:45:23.531250,-46.47
12:45:23.546875,-48.67
12:45:23.562500,-51.80
12:45:23.578125,-56.03
12:45:23.593750,-61.30
12:45:23.609375,-67.17
12:45:23.625000,-72.96
12:45:23.640625,-77.64
12:45:23.656250,-80.07
12:45:23.671875,-79.09
12:45:23.687500,-73.88
12:45:23.703125,-64.19
12:45:23.718750,-50.56
12:45:23.734375,-34.32
12:45:23.750000,-17.25
12:45:23.765625,-1.19
12:45:23.781250,12.45
12:45:23.796875,22.90
12:45:23.812500,30.07
12:45:23.828125,34.30
12:45:23.843750,36.13
12:45:23.859375,36.08
12:45:23.875000,34.60
12:45:23.890625,32.15
12:45:23.906250,29.32
12:45:23.921875,26.82
12:45:23.937500,25.37
12:45:23.953125,25.42
12:45:23.968750,26.95
12:45:23.984375,29.37
12:45:24,31.74
12:45:24.015625,33.19
12:45:24.031250,33.32
12:45:24.046875,32.32
12:45:24.062500,30.85
12:45:24.078125,29.55
12:45:24.093750,28.70
12:45:24.109375,28.01
12:45:24.125000,26.82
12:45:24.140625,24.49
12:45:24.156250,20.87
12:45:24.171875,16.33
12:45:24.187500,11.62
12:45:24.203125,7.39
12:45:24.218750,3.90
12:45:24.234375,0.92
12:45:24.250000,-2.08
12:45:24.265625,-5.51
12:45:24.281250,-9.46
12:45:24.296875,-13.60
12:45:24.312500,-17.44
12:45:24.328125,-20.63
12:45:24.343750,-23.24
12:45:24.359375,-25.72
12:45:24.375000,-28.63
12:45:24.390625,-32.44
12:45:24.406250,-37.29
12:45:24.421875,-43.01
12:45:24.437500,-49.32
12:45:24.453125,-55.89
12:45:24.468750,-62.26
12:45:24.484375,-67.67
12:45:24.500000,-70.98
12:45:24.515625,-70.81
12:45:24.531250,-66.03
12:45:24.546875,-56.30
12:45:24.562500,-42.38
12:45:24.578125,-25.95
12:45:24.593750,-9.11
12:45:24.609375,6.28
12:45:24.625000,19.08
12:45:24.640625,28.96
12:45:24.656250,36.06
12:45:24.671875,40.74
12:45:24.687500,43.35
12:45:24.703125,44.18
12:45:24.718750,43.60
12:45:24.734375,42.16
12:45:24.750000,40.49
12:45:24.765625,39.13
12:45:24.781250,38.44
12:45:24.796875,38.37
12:45:24.812500,38.63
12:45:24.828125,38.75
12:45:24.843750,38.35
12:45:24.859375,37.26
12:45:24.875000,35.65
12:45:24.890625,33.84
12:45:24.906250,32.13
12:45:24.921875,30.57
12:45:24.937500,28.89
12:45:24.953125,26.61
12:45:24.968750,23.34
12:45:24.984375,18.98
12:45:25,13.81
12:45:25.015625,8.39
12:45:25.031250,3.30
12:45:25.046875,-1.18
12:45:25.062500,-5.11
12:45:25.078125,-8.86
12:45:25.093750,-12.80
12:45:25.109375,-17.16
12:45:25.125000,-21.83
12:45:25.140625,-26.52
12:45:25.156250,-30.86
12:45:25.171875,-34.57
12:45:25.187500,-37.60
12:45:25.203125,-40.07
12:45:25.218750,-42.35
12:45:25.234375,-44.95
12:45:25.250000,-48.53
12:45:25.265625,-53.62
12:45:25.281250,-60.33
12:45:25.296875,-68.02
12:45:25.312500,-75.15
12:45:25.328125,-79.59
12:45:25.343750,-79.24
12:45:25.359375,-72.80
12:45:25.375000,-60.40
12:45:25.390625,-43.57
12:45:25.406250,-24.79
12:45:25.421875,-6.61
12:45:25.437500,9.20
12:45:25.453125,21.91
12:45:25.468750,31.83
12:45:25.484375,39.73
12:45:25.500000,46.29
12:45:25.515625,51.81
12:45:25.531250,56.19
12:45:25.546875,59.13
12:45:25.562500,60.40
12:45:25.578125,59.99
12:45:25.593750,58.12
12:45:25.609375,55.10
12:45:25.625000,51.33
12:45:25.640625,47.15
12:45:25.656250,42.97
12:45:25.671875,39.17
12:45:25.687500,36.06
12:45:25.703125,33.72
12:45:25.718750,31.96
12:45:25.734375,30.34
12:45:25.750000,28.34
12:45:25.765625,25.57
12:45:25.781250,21.94
12:45:25.796875,17.68
12:45:25.812500,13.20
12:45:25.828125,8.90
12:45:25.843750,4.97
12:45:25.859375,1.35
12:45:25.875000,-2.25
12:45:25.890625,-6.18
12:45:25.906250,-10.60
12:45:25.921875,-15.45
12:45:25.937500,-20.42
12:45:25.953125,-25.07
12:45:25.968750,-29.01
12:45:25.984375,-32.13
12:45:26,-34.60
12:45:26.015625,-36.91
12:45:26.031250,-39.72
12:45:26.046875,-43.64
12:45:26.062500,-49.10
12:45:26.078125,-55.98
12:45:26.093750,-63.52
12:45:26.109375,-70.30
12:45:26.125000,-74.43
12:45:26.140625,-74.18
12:45:26.156250,-68.53
12:45:26.171875,-57.70
12:45:26.187500,-43.01
12:45:26.203125,-26.50
12:45:26.218750,-10.18
12:45:26.234375,4.55
12:45:26.250000,17.12
12:45:26.265625,27.61
12:45:26.281250,36.31
12:45:26.296875,43.43
12:45:26.312500,48.90
12:45:26.328125,52.56
12:45:26.343750,54.35
12:45:26.359375,54.52
12:45:26.375000,53.56
12:45:26.390625,52.04
12:45:26.406250,50.45
12:45:26.421875,49.01
12:45:26.437500,47.66
12:45:26.453125,46.17
12:45:26.468750,44.27
12:45:26.484375,41.85
12:45:26.500000,38.96
12:45:26.515625,35.80
12:45:26.531250,32.56
12:45:26.546875,29.35
12:45:26.562500,26.05
12:45:26.578125,22.39
12:45:26.593750,18.18
12:45:26.609375,13.38
12:45:26.625000,8.26
12:45:26.640625,3.29
12:45:26.656250,-1.12
12:45:26.671875,-4.79
12:45:26.687500,-7.90
12:45:26.703125,-10.92
12:45:26.718750,-14.33
12:45:26.734375,-18.38
12:45:26.750000,-23.00
12:45:26.765625,-27.81
12:45:26.781250,-32.35
12:45:26.796875,-36.30
12:45:26.812500,-39.71
12:45:26.828125,-42.96
12:45:26.843750,-46.67
12:45:26.859375,-51.42
12:45:26.875000,-57.49
12:45:26.890625,-64.64
12:45:26.906250,-71.97
12:45:26.921875,-78.09
12:45:26.937500,-81.33
12:45:26.953125,-80.28
12:45:26.968750,-74.18
12:45:26.984375,-63.25
12:45:27,-48.58
12:45:27.015625,-31.82
12:45:27.031250,-14.65
12:45:27.046875,1.65
12:45:27.062500,16.36
12:45:27.078125,29.25
12:45:27.093750,40.33
12:45:27.109375,49.62
12:45:27.125000,57.10
12:45:27.140625,62.72
12:45:27.156250,66.50
12:45:27.171875,68.61
12:45:27.187500,69.32
12:45:27.203125,68.89
12:45:27.218750,67.51
12:45:27.234375,65.30
12:45:27.250000,62.32
12:45:27.265625,58.67
12:45:27.281250,54.61
12:45:27.296875,50.41
12:45:27.312500,46.43
12:45:27.328125,42.86
12:45:27.343750,39.70
12:45:27.359375,36.76
12:45:27.375000,33.67
12:45:27.390625,30.07
12:45:27.406250,25.80
12:45:27.421875,20.93
12:45:27.437500,15.87
12:45:27.453125,11.09
12:45:27.468750,6.96
12:45:27.484375,3.51
12:45:27.500000,0.38
12:45:27.515625,-3.02
12:45:27.531250,-7.25
12:45:27.546875,-12.53
12:45:27.562500,-18.66
12:45:27.578125,-25.07
12:45:27.593750,-31.13
12:45:27.609375,-36.38
12:45:27.625000,-40.64
12:45:27.640625,-44.02
12:45:27.656250,-46.78
12:45:27.671875,-49.26
12:45:27.687500,-51.84
12:45:27.703125,-55.05
12:45:27.718750,-59.44
12:45:27.734375,-65.37
12:45:27.750000,-72.65
12:45:27.765625,-80.20
12:45:27.781250,-86.19
12:45:27.796875,-88.45
12:45:27.812500,-85.26
12:45:27.828125,-76.00
12:45:27.843750,-61.46
12:45:27.859375,-43.46
12:45:27.875000,-24.20
12:45:27.890625,-5.40
12:45:27.906250,11.98
12:45:27.921875,27.70
12:45:27.937500,41.78
12:45:27.953125,53.98
12:45:27.968750,63.68
12:45:27.984375,70.15
12:45:28,72.98
12:45:28.015625,72.44
12:45:28.031250,69.49
12:45:28.046875,65.48
12:45:28.062500,61.61
12:45:28.078125,58.64
12:45:28.093750,56.68
12:45:28.109375,55.42
12:45:28.125000,54.44
12:45:28.140625,53.41
12:45:28.156250,52.20
12:45:28.171875,50.77
12:45:28.187500,49.04
12:45:28.203125,46.77
12:45:28.218750,43.62
12:45:28.234375,39.26
12:45:28.250000,33.52
12:45:28.265625,26.61
12:45:28.281250,19.06
12:45:28.296875,11.62
12:45:28.312500,5.04
12:45:28.328125,-0.23
12:45:28.343750,-4.18
12:45:28.359375,-7.23
12:45:28.375000,-10.04
12:45:28.390625,-13.21
12:45:28.406250,-17.03
12:45:28.421875,-21.42
12:45:28.437500,-25.99
12:45:28.453125,-30.27
12:45:28.468750,-33.97
12:45:28.484375,-37.05
12:45:28.500000,-39.73
12:45:28.515625,-42.32
12:45:28.531250,-45.22
12:45:28.546875,-48.77
12:45:28.562500,-53.25
12:45:28.578125,-58.80
12:45:28.593750,-65.23
12:45:28.609375,-71.88
12:45:28.625000,-77.58
12:45:28.640625,-80.76
12:45:28.656250,-79.90
12:45:28.671875,-74.03
12:45:28.687500,-63.11
12:45:28.703125,-48.14
12:45:28.718750,-30.86
12:45:28.734375,-13.14
12:45:28.750000,3.49
12:45:28.765625,18.19
12:45:28.781250,30.73
12:45:28.796875,41.10
12:45:28.812500,49.31
12:45:28.828125,55.11
12:45:28.843750,58.22
12:45:28.859375,58.57
12:45:28.875000,56.61
12:45:28.890625,53.27
12:45:28.906250,49.74
12:45:28.921875,46.92
12:45:28.937500,45.18
12:45:28.953125,44.24
12:45:28.968750,43.51
12:45:28.984375,42.43
12:45:29,40.77
12:45:29.015625,38.69
12:45:29.031250,36.51
12:45:29.046875,34.43
12:45:29.062500,32.37
12:45:29.078125,29.95
12:45:29.093750,26.68
12:45:29.109375,22.25
12:45:29.125000,16.69
12:45:29.140625,10.35
12:45:29.156250,3.89
12:45:29.171875,-2.02
12:45:29.187500,-6.89
12:45:29.203125,-10.59
12:45:29.218750,-13.42
12:45:29.234375,-15.98
12:45:29.250000,-18.88
12:45:29.265625,-22.49
12:45:29.281250,-26.73
12:45:29.296875,-31.14
12:45:29.312500,-35.08
12:45:29.328125,-38.10
12:45:29.343750,-40.17
12:45:29.359375,-41.73
12:45:29.375000,-43.60
12:45:29.390625,-46.71
12:45:29.406250,-51.78
12:45:29.421875,-59.03
12:45:29.437500,-67.97
12:45:29.453125,-77.28
12:45:29.468750,-84.94
12:45:29.484375,-88.67
12:45:29.500000,-86.46
12:45:29.515625,-77.37
12:45:29.531250,-61.89
12:45:29.546875,-41.90
12:45:29.562500,-20.14
12:45:29.578125,0.74
12:45:29.593750,18.91
12:45:29.609375,33.69
12:45:29.625000,45.39
12:45:29.640625,54.65
12:45:29.656250,61.95
12:45:29.671875,67.24
12:45:29.687500,70.20
12:45:29.703125,70.57
12:45:29.718750,68.64
12:45:29.734375,65.30
12:45:29.750000,61.72
12:45:29.765625,58.94
12:45:29.781250,57.41
12:45:29.796875,56.83
12:45:29.812500,56.42
12:45:29.828125,55.36
12:45:29.843750,53.18
12:45:29.859375,49.97
12:45:29.875000,46.29
12:45:29.890625,42.82
12:45:29.906250,39.97
12:45:29.921875,37.74
12:45:29.937500,35.68
12:45:29.953125,33.16
12:45:29.968750,29.65
12:45:29.984375,24.98
12:45:30,19.41
12:45:30.015625,13.53
12:45:30.031250,8.11
12:45:30.046875,3.82
12:45:30.062500,1.10
12:45:30.078125,0.07
12:45:30.093750,0.36
12:45:30.109375,1.26
12:45:30.125000,1.73
12:45:30.140625,0.66
12:45:30.156250,-2.77
12:45:30.171875,-8.81
12:45:30.187500,-16.94
12:45:30.203125,-26.08
12:45:30.218750,-35.00
12:45:30.234375,-42.76
12:45:30.250000,-49.11
12:45:30.265625,-54.50
12:45:30.281250,-59.82
12:45:30.296875,-65.92
12:45:30.312500,-73.12
12:45:30.328125,-81.03
12:45:30.343750,-88.51
12:45:30.359375,-93.93
12:45:30.375000,-95.54
12:45:30.390625,-91.92
12:45:30.406250,-82.46
12:45:30.421875,-67.61
12:45:30.437500,-48.92
12:45:30.453125,-28.70
12:45:30.468750,-9.50
12:45:30.484375,6.57
12:45:30.500000,18.34
12:45:30.515625,25.74
12:45:30.531250,29.55
12:45:30.546875,30.91
12:45:30.562500,30.86
12:45:30.578125,29.97
12:45:30.593750,28.29
12:45:30.609375,25.52
12:45:30.625000,21.50
12:45:30.640625,16.46
12:45:30.656250,11.07
12:45:30.671875,6.32
12:45:30.687500,3.01
12:45:30.703125,1.50
12:45:30.718750,1.61
12:45:30.734375,2.90
12:45:30.750000,5.12
12:45:30.765625,8.39
12:45:30.781250,13.09
12:45:30.796875,19.61
12:45:30.812500,27.84
12:45:30.828125,37.18
12:45:30.843750,46.68
12:45:30.859375,55.50
12:45:30.875000,63.18
12:45:30.890625,69.69
12:45:30.906250,75.12
12:45:30.921875,79.29
12:45:30.937500,81.59
12:45:30.953125,81.16
12:45:30.968750,77.35
12:45:30.984375,70.15
12:45:31,60.30
12:45:31.015625,49.10
12:45:31.031250,37.91
12:45:31.046875,27.52
12:45:31.062500,18.03
12:45:31.078125,8.92
12:45:31.093750,-0.40
12:45:31.109375,-10.13
12:45:31.125000,-19.84
12:45:31.140625,-28.54
12:45:31.156250,-35.28
12:45:31.171875,-39.62
12:45:31.187500,-41.99
12:45:31.203125,-43.46
12:45:31.218750,-45.37
12:45:31.234375,-48.68
12:45:31.250000,-53.67
12:45:31.265625,-59.78
12:45:31.281250,-65.81
12:45:31.296875,-70.38
12:45:31.312500,-72.19
12:45:31.328125,-70.41
12:45:31.343750,-64.81
12:45:31.359375,-55.94
12:45:31.375000,-45.16
12:45:31.390625,-34.50
12:45:31.406250,-26.27
12:45:31.421875,-22.46
12:45:31.437500,-23.93
12:45:31.453125,-29.95
12:45:31.468750,-38.55
12:45:31.484375,-47.13
12:45:31.500000,-53.43
12:45:31.515625,-56.12
12:45:31.531250,-54.82
12:45:31.546875,-49.81
12:45:31.562500,-41.54
12:45:31.578125,-30.61
12:45:31.593750,-17.87
12:45:31.609375,-4.64
12:45:31.625000,7.42
12:45:31.640625,16.72
12:45:31.656250,22.40
12:45:31.671875,24.79
12:45:31.687500,25.37
12:45:31.703125,26.30
12:45:31.718750,29.68
12:45:31.734375,36.92
12:45:31.750000,48.28
12:45:31.765625,62.91
12:45:31.781250,79.08
12:45:31.796875,94.64
12:45:31.812500,107.70
12:45:31.828125,117.12
12:45:31.843750,122.59
12:45:31.859375,124.27
12:45:31.875000,122.18
12:45:31.890625,115.72
12:45:31.906250,103.88
12:45:31.921875,85.84
12:45:31.937500,61.88
12:45:31.953125,33.92
12:45:31.968750,5.12
12:45:31.984375,-21.25
12:45:32,-42.86
12:45:32.015625,-58.86
12:45:32.031250,-69.62
12:45:32.046875,-75.84
12:45:32.062500,-77.94
12:45:32.078125,-75.85
12:45:32.093750,-69.57
12:45:32.109375,-59.81
12:45:32.125000,-48.27
12:45:32.140625,-37.37
12:45:32.156250,-29.50
12:45:32.171875,-26.48
12:45:32.187500,-29.25
12:45:32.203125,-38.02
12:45:32.218750,-52.52
12:45:32.234375,-71.97
12:45:32.250000,-94.77
12:45:32.265625,-118.21
12:45:32.281250,-138.81
12:45:32.296875,-153.13
12:45:32.312500,-159.00
12:45:32.328125,-155.99
12:45:32.343750,-145.39
12:45:32.359375,-129.37
12:45:32.375000,-110.03
12:45:32.390625,-88.80
12:45:32.406250,-66.45
12:45:32.421875,-43.63
12:45:32.437500,-21.29
12:45:32.453125,-0.76
12:45:32.468750,16.60
12:45:32.484375,29.99
12:45:32.500000,39.47
12:45:32.515625,45.87
12:45:32.531250,50.35
12:45:32.546875,53.89
12:45:32.562500,56.96
12:45:32.578125,59.63
12:45:32.593750,61.80
12:45:32.609375,63.44
12:45:32.625000,64.68
12:45:32.640625,65.82
12:45:32.656250,67.19
12:45:32.671875,68.98
12:45:32.687500,71.14
12:45:32.703125,73.36
12:45:32.718750,75.22
12:45:32.734375,76.32
12:45:32.750000,76.52
12:45:32.765625,75.99
12:45:32.781250,75.06
12:45:32.796875,74.04
12:45:32.812500,72.95
12:45:32.828125,71.47
12:45:32.843750,69.05
12:45:32.859375,65.11
12:45:32.875000,59.35
12:45:32.890625,51.91
12:45:32.906250,43.29
12:45:32.921875,34.17
12:45:32.937500,25.13
12:45:32.953125,16.49
12:45:32.968750,8.25
12:45:32.984375,0.20
12:45:33,-7.90
12:45:33.015625,-16.27
12:45:33.031250,-25.02
12:45:33.046875,-34.19
12:45:33.062500,-43.77
12:45:33.078125,-53.68
12:45:33.093750,-63.92
12:45:33.109375,-74.44
12:45:33.125000,-85.31
12:45:33.140625,-96.65
12:45:33.156250,-108.68
12:45:33.171875,-121.55
12:45:33.187500,-135.16
12:45:33.203125,-148.89
12:45:33.218750,-161.41
12:45:33.234375,-170.78
