17:37:28,-0.00
17:37:28.015625,-0.00
17:37:28.031250,-0.00
17:37:28.046875,-0.00
17:37:28.062500,-0.00
17:37:28.078125,-0.00
17:37:28.093750,-0.00
17:37:28.109375,-0.00
17:37:28.125000,-0.00
17:37:28.140625,-0.01
17:37:28.156250,-0.00
17:37:28.171875,0.00
17:37:28.187500,0.01
17:37:28.203125,0.01
17:37:28.218750,-0.00
17:37:28.234375,-0.03
17:37:28.250000,-0.05
17:37:28.265625,-0.05
17:37:28.281250,-0.00
17:37:28.296875,0.13
17:37:28.312500,0.36
17:37:28.328125,0.66
17:37:28.343750,1.01
17:37:28.359375,1.37
17:37:28.375000,1.72
17:37:28.390625,2.06
17:37:28.406250,2.40
17:37:28.421875,2.77
17:37:28.437500,3.24
17:37:28.453125,3.80
17:37:28.468750,4.42
17:37:28.484375,5.06
17:37:28.500000,5.66
17:37:28.515625,6.20
17:37:28.531250,6.68
17:37:28.546875,7.15
17:37:28.562500,7.64
17:37:28.578125,8.31
17:37:28.593750,9.14
17:37:28.609375,10.09
17:37:28.625000,11.04
17:37:28.640625,11.88
17:37:28.656250,12.56
17:37:28.671875,13.14
17:37:28.687500,13.76
17:37:28.703125,14.58
17:37:28.718750,15.96
17:37:28.734375,17.91
17:37:28.750000,20.32
17:37:28.765625,22.90
17:37:28.781250,25.38
17:37:28.796875,27.58
17:37:28.812500,29.57
17:37:28.828125,31.68
17:37:28.843750,34.20
17:37:28.859375,37.81
17:37:28.875000,42.54
17:37:28.890625,48.15
17:37:28.906250,54.10
17:37:28.921875,59.83
17:37:28.937500,64.97
17:37:28.953125,69.58
17:37:28.968750,74.14
17:37:28.984375,79.19
17:37:29,85.71
17:37:29.015625,93.76
17:37:29.031250,103.00
17:37:29.046875,112.62
17:37:29.062500,121.73
17:37:29.078125,129.77
17:37:29.093750,136.75
17:37:29.109375,144.29
17:37:29.125000,150.58
17:37:29.140625,157.77
17:37:29.156250,166.64
17:37:29.171875,177.95
17:37:29.187500,191.79
17:37:29.203125,206.97
17:37:29.218750,220.57
17:37:29.234375,228.25
17:37:29.250000,225.36
17:37:29.265625,208.37
17:37:29.281250,176.87
17:37:29.296875,132.76
17:37:29.312500,80.05
17:37:29.328125,23.07
17:37:29.343750,-34.94
17:37:29.359375,-92.44
17:37:29.375000,-149.16
17:37:29.390625,-205.23
17:37:29.406250,-260.49
17:37:29.421875,-313.74
17:37:29.437500,-363.87
17:37:29.453125,-409.83
17:37:29.468750,-450.91
17:37:29.484375,-486.50
17:37:29.500000,-515.74
17:37:29.515625,-537.23
17:37:29.531250,-549.22
17:37:29.546875,-550.04
17:37:29.562500,-538.37
17:37:29.578125,-514.20
17:37:29.593750,-478.67
17:37:29.609375,-433.88
17:37:29.625000,-382.45
17:37:29.640625,-327.02
17:37:29.656250,-269.84
17:37:29.671875,-212.63
17:37:29.687500,-156.70
17:37:29.703125,-102.95
17:37:29.718750,-52.37
17:37:29.734375,-5.90
17:37:29.750000,35.58
17:37:29.765625,71.43
17:37:29.781250,101.35
17:37:29.796875,125.50
17:37:29.812500,144.38
17:37:29.828125,158.68
17:37:29.843750,169.16
17:37:29.859375,176.40
17:37:29.875000,180.78
17:37:29.890625,182.59
17:37:29.906250,182.04
17:37:29.921875,179.41
17:37:29.937500,175.06
17:37:29.953125,169.40
17:37:29.968750,162.88
17:37:29.984375,155.83
17:37:30,148.50
17:37:30.015625,141.00
17:37:30.031250,133.39
17:37:30.046875,125.69
17:37:30.062500,117.95
17:37:30.078125,110.23
17:37:30.093750,102.63
17:37:30.109375,95.24
17:37:30.125000,88.12
17:37:30.140625,81.27
17:37:30.156250,74.67
17:37:30.171875,68.30
17:37:30.187500,62.15
17:37:30.203125,56.25
17:37:30.218750,50.64
17:37:30.234375,45.41
17:37:30.250000,40.59
17:37:30.265625,36.18
17:37:30.281250,32.14
17:37:30.296875,28.34
17:37:30.312500,24.70
17:37:30.328125,21.14
17:37:30.343750,17.68
17:37:30.359375,14.43
17:37:30.375000,11.54
17:37:30.390625,9.11
17:37:30.406250,7.16
17:37:30.421875,5.58
17:37:30.437500,4.15
17:37:30.453125,2.64
17:37:30.468750,0.92
17:37:30.484375,-0.98
17:37:30.500000,-2.85
17:37:30.515625,-4.41
17:37:30.531250,-5.47
17:37:30.546875,-6.00
17:37:30.562500,-6.21
17:37:30.578125,-6.46
17:37:30.593750,-7.12
17:37:30.609375,-8.37
17:37:30.625000,-10.09
17:37:30.640625,-11.91
17:37:30.656250,-13.40
17:37:30.671875,-14.29
17:37:30.687500,-14.57
17:37:30.703125,-14.54
17:37:30.718750,-14.60
17:37:30.734375,-15.10
17:37:30.750000,-16.20
17:37:30.765625,-17.89
17:37:30.781250,-20.16
17:37:30.796875,-22.90
17:37:30.812500,-25.76
17:37:30.828125,-27.93
17:37:30.843750,-28.21
17:37:30.859375,-25.34
17:37:30.875000,-18.71
17:37:30.890625,-8.81
17:37:30.906250,2.70
17:37:30.921875,13.58
17:37:30.937500,21.84
17:37:30.953125,26.48
17:37:30.968750,27.65
17:37:30.984375,26.31
17:37:31,23.54
17:37:31.015625,20.03
17:37:31.031250,16.06
17:37:31.046875,11.90
17:37:31.062500,8.21
17:37:31.078125,6.16
17:37:31.093750,7.04
17:37:31.109375,11.55
17:37:31.125000,19.21
17:37:31.140625,28.32
17:37:31.156250,36.50
17:37:31.171875,41.56
17:37:31.187500,42.40
17:37:31.203125,39.37
17:37:31.218750,33.94
17:37:31.234375,27.94
17:37:31.250000,22.70
17:37:31.265625,18.68
17:37:31.281250,15.55
17:37:31.296875,12.64
17:37:31.312500,9.53
17:37:31.328125,6.29
17:37:31.343750,3.41
17:37:31.359375,1.43
17:37:31.375000,0.70
17:37:31.390625,1.14
17:37:31.406250,2.39
17:37:31.421875,3.93
17:37:31.437500,5.37
17:37:31.453125,6.51
17:37:31.468750,7.42
17:37:31.484375,8.19
17:37:31.500000,8.93
17:37:31.515625,9.59
17:37:31.531250,10.07
17:37:31.546875,10.33
17:37:31.562500,10.41
17:37:31.578125,10.52
17:37:31.593750,10.88
17:37:31.609375,11.63
17:37:31.625000,12.67
17:37:31.640625,13.64
17:37:31.656250,14.07
17:37:31.671875,13.58
17:37:31.687500,12.07
17:37:31.703125,9.76
17:37:31.718750,7.15
17:37:31.734375,4.55
17:37:31.750000,2.16
17:37:31.765625,-0.05
17:37:31.781250,-2.30
17:37:31.796875,-4.81
17:37:31.812500,-7.71
17:37:31.828125,-10.98
17:37:31.843750,-14.31
17:37:31.859375,-17.16
17:37:31.875000,-18.73
17:37:31.890625,-18.10
17:37:31.906250,-14.63
17:37:31.921875,-8.25
17:37:31.937500,0.30
17:37:31.953125,9.45
17:37:31.968750,17.34
17:37:31.984375,22.31
17:37:32,23.52
17:37:32.015625,21.13
17:37:32.031250,16.14
17:37:32.046875,9.87
17:37:32.062500,3.46
17:37:32.078125,-2.38
17:37:32.093750,-7.43
17:37:32.109375,-11.66
17:37:32.125000,-15.07
17:37:32.140625,-17.55
17:37:32.156250,-18.97
17:37:32.171875,-19.33
17:37:32.187500,-18.80
17:37:32.203125,-17.78
17:37:32.218750,-16.68
17:37:32.234375,-15.87
17:37:32.250000,-15.52
17:37:32.265625,-15.64
17:37:32.281250,-16.14
17:37:32.296875,-16.91
17:37:32.312500,-17.90
17:37:32.328125,-19.04
17:37:32.343750,-20.23
17:37:32.359375,-21.37
17:37:32.375000,-22.33
17:37:32.390625,-23.05
17:37:32.406250,-23.56
17:37:32.421875,-23.92
17:37:32.437500,-24.21
17:37:32.453125,-24.61
17:37:32.468750,-25.12
17:37:32.484375,-25.73
17:37:32.500000,-26.39
17:37:32.515625,-27.06
17:37:32.531250,-27.78
17:37:32.546875,-28.68
17:37:32.562500,-29.89
17:37:32.578125,-31.43
17:37:32.593750,-33.34
17:37:32.609375,-35.44
17:37:32.625000,-37.49
17:37:32.640625,-39.34
17:37:32.656250,-41.03
17:37:32.671875,-42.88
17:37:32.687500,-45.33
17:37:32.703125,-48.94
17:37:32.718750,-53.39
17:37:32.734375,-58.64
17:37:32.750000,-64.51
17:37:32.765625,-70.64
17:37:32.781250,-76.44
17:37:32.796875,-80.95
17:37:32.812500,-82.95
17:37:32.828125,-81.18
17:37:32.843750,-74.82
17:37:32.859375,-63.86
17:37:32.875000,-49.40
17:37:32.890625,-33.21
17:37:32.906250,-17.25
17:37:32.921875,-3.01
17:37:32.937500,8.74
17:37:32.953125,17.98
17:37:32.968750,25.09
17:37:32.984375,30.48
17:37:33,34.46
17:37:33.015625,37.18
17:37:33.031250,39.01
17:37:33.046875,40.54
17:37:33.062500,42.55
17:37:33.078125,45.67
17:37:33.093750,50.11
17:37:33.109375,55.57
17:37:33.125000,61.35
17:37:33.140625,66.65
17:37:33.156250,70.84
17:37:33.171875,73.68
17:37:33.187500,75.21
17:37:33.203125,75.52
17:37:33.218750,74.64
17:37:33.234375,72.43
17:37:33.250000,68.83
17:37:33.265625,64.02
17:37:33.281250,58.56
17:37:33.296875,53.22
17:37:33.312500,48.67
17:37:33.328125,45.16
17:37:33.343750,42.44
17:37:33.359375,39.83
17:37:33.375000,36.58
17:37:33.390625,32.24
17:37:33.406250,26.83
17:37:33.421875,20.83
17:37:33.437500,14.87
17:37:33.453125,9.48
17:37:33.468750,4.81
17:37:33.484375,0.63
17:37:33.500000,-3.61
17:37:33.515625,-8.53
17:37:33.531250,-14.56
17:37:33.546875,-21.82
17:37:33.562500,-29.93
17:37:33.578125,-37.97
17:37:33.593750,-44.57
17:37:33.609375,-48.04
17:37:33.625000,-46.82
17:37:33.640625,-39.87
17:37:33.656250,-27.12
17:37:33.671875,-9.58
17:37:33.687500,10.84
17:37:33.703125,31.80
17:37:33.718750,51.14
17:37:33.734375,67.31
17:37:33.750000,79.52
17:37:33.765625,87.61
17:37:33.781250,91.86
17:37:33.796875,92.76
17:37:33.812500,90.91
17:37:33.828125,86.95
17:37:33.843750,81.54
17:37:33.859375,75.31
17:37:33.875000,68.81
17:37:33.890625,62.43
17:37:33.906250,56.49
17:37:33.921875,51.18
17:37:33.937500,46.59
17:37:33.953125,42.65
17:37:33.968750,39.05
17:37:33.984375,35.29
17:37:34,30.82
17:37:34.015625,25.20
17:37:34.031250,18.33
17:37:34.046875,10.40
17:37:34.062500,1.89
17:37:34.078125,-6.61
17:37:34.093750,-14.53
17:37:34.109375,-21.48
17:37:34.125000,-27.24
17:37:34.140625,-31.89
17:37:34.156250,-35.80
17:37:34.171875,-39.58
17:37:34.187500,-43.95
17:37:34.203125,-49.41
17:37:34.218750,-56.05
17:37:34.234375,-63.47
17:37:34.250000,-70.96
17:37:34.265625,-77.78
17:37:34.281250,-83.54
17:37:34.296875,-88.44
17:37:34.312500,-93.14
17:37:34.328125,-98.58
17:37:34.343750,-105.61
17:37:34.359375,-114.67
17:37:34.375000,-125.51
17:37:34.390625,-136.94
17:37:34.406250,-146.87
17:37:34.421875,-152.62
17:37:34.437500,-151.72
17:37:34.453125,-142.75
17:37:34.468750,-126.12
17:37:34.484375,-104.03
17:37:34.500000,-79.92
17:37:34.515625,-57.24
17:37:34.531250,-38.36
17:37:34.546875,-24.01
17:37:34.562500,-13.47
17:37:34.578125,-5.31
17:37:34.593750,1.71
17:37:34.609375,8.20
17:37:34.625000,14.06
17:37:34.640625,18.93
17:37:34.656250,22.60
17:37:34.671875,25.28
17:37:34.687500,27.51
17:37:34.703125,29.92
17:37:34.718750,32.83
17:37:34.734375,36.16
17:37:34.750000,39.45
17:37:34.765625,42.16
17:37:34.781250,43.97
17:37:34.796875,44.94
17:37:34.812500,45.44
17:37:34.828125,45.90
17:37:34.843750,46.57
17:37:34.859375,47.38
17:37:34.875000,48.02
17:37:34.890625,48.13
17:37:34.906250,47.62
17:37:34.921875,46.66
17:37:34.937500,45.69
17:37:34.953125,45.05
17:37:34.968750,44.84
17:37:34.984375,44.69
17:37:35,43.99
17:37:35.015625,42.09
17:37:35.031250,38.68
17:37:35.046875,33.97
17:37:35.062500,28.58
17:37:35.078125,23.35
17:37:35.093750,18.84
17:37:35.109375,15.15
17:37:35.125000,11.80
17:37:35.140625,7.93
17:37:35.156250,2.65
17:37:35.171875,-4.57
17:37:35.187500,-13.56
17:37:35.203125,-23.31
17:37:35.218750,-32.04
17:37:35.234375,-37.52
17:37:35.250000,-37.65
17:37:35.265625,-31.09
17:37:35.281250,-17.73
17:37:35.296875,1.24
17:37:35.312500,23.64
17:37:35.328125,47.03
17:37:35.343750,69.28
17:37:35.359375,89.11
17:37:35.375000,105.97
17:37:35.390625,119.82
17:37:35.406250,130.74
17:37:35.421875,138.69
17:37:35.437500,143.60
17:37:35.453125,145.49
17:37:35.468750,144.69
17:37:35.484375,141.81
17:37:35.500000,137.55
17:37:35.515625,132.41
17:37:35.531250,126.57
17:37:35.546875,119.87
17:37:35.562500,112.01
17:37:35.578125,102.81
17:37:35.593750,92.34
17:37:35.609375,81.03
17:37:35.625000,69.42
17:37:35.640625,58.08
17:37:35.656250,47.31
17:37:35.671875,37.11
17:37:35.687500,27.17
17:37:35.703125,16.92
17:37:35.718750,5.80
17:37:35.734375,-6.60
17:37:35.750000,-20.32
17:37:35.765625,-34.96
17:37:35.781250,-49.77
17:37:35.796875,-63.91
17:37:35.812500,-76.78
17:37:35.828125,-88.29
17:37:35.843750,-98.86
17:37:35.859375,-109.20
17:37:35.875000,-119.89
17:37:35.890625,-130.94
17:37:35.906250,-141.77
17:37:35.921875,-151.39
17:37:35.937500,-158.95
17:37:35.953125,-164.20
17:37:35.968750,-167.65
17:37:35.984375,-170.46
17:37:36,-173.96
17:37:36.015625,-179.22
17:37:36.031250,-186.83
17:37:36.046875,-196.77
17:37:36.062500,-208.26
17:37:36.078125,-219.70
17:37:36.093750,-228.56
17:37:36.109375,-231.79
17:37:36.125000,-226.70
17:37:36.140625,-211.99
17:37:36.156250,-188.52
17:37:36.171875,-159.23
17:37:36.187500,-128.13
17:37:36.203125,-98.78
17:37:36.218750,-73.27
17:37:36.234375,-51.79
17:37:36.250000,-33.39
17:37:36.265625,-16.94
17:37:36.281250,-1.87
17:37:36.296875,11.67
17:37:36.312500,23.31
17:37:36.328125,33.04
17:37:36.343750,41.37
17:37:36.359375,49.14
17:37:36.375000,56.95
17:37:36.390625,64.84
17:37:36.406250,72.32
17:37:36.421875,78.64
17:37:36.437500,83.33
17:37:36.453125,86.40
17:37:36.468750,88.43
17:37:36.484375,90.25
17:37:36.500000,92.58
17:37:36.515625,95.70
17:37:36.531250,99.34
17:37:36.546875,102.73
17:37:36.562500,104.97
17:37:36.578125,105.39
17:37:36.593750,103.81
17:37:36.609375,100.62
17:37:36.625000,96.60
17:37:36.640625,92.52
17:37:36.656250,88.83
17:37:36.671875,85.43
17:37:36.687500,81.79
17:37:36.703125,77.22
17:37:36.718750,71.22
17:37:36.734375,63.79
17:37:36.750000,55.38
17:37:36.765625,46.78
17:37:36.781250,38.72
17:37:36.796875,31.64
17:37:36.812500,25.55
17:37:36.828125,19.99
17:37:36.843750,14.24
17:37:36.859375,7.50
17:37:36.875000,-0.85
17:37:36.890625,-11.09
17:37:36.906250,-22.90
17:37:36.921875,-35.31
17:37:36.937500,-46.61
17:37:36.953125,-54.65
17:37:36.968750,-57.26
17:37:36.984375,-52.85
17:37:37,-41.07
17:37:37.015625,-22.96
17:37:37.031250,-0.84
17:37:37.046875,22.42
17:37:37.062500,44.19
17:37:37.078125,62.82
17:37:37.093750,77.89
17:37:37.109375,89.89
17:37:37.125000,99.67
17:37:37.140625,107.93
17:37:37.156250,114.85
17:37:37.171875,120.24
17:37:37.187500,123.82
17:37:37.203125,125.54
17:37:37.218750,125.68
17:37:37.234375,124.73
17:37:37.250000,123.16
17:37:37.265625,121.18
17:37:37.281250,118.80
17:37:37.296875,115.92
17:37:37.312500,112.48
17:37:37.328125,108.59
17:37:37.343750,104.40
17:37:37.359375,99.99
17:37:37.375000,95.26
17:37:37.390625,89.91
17:37:37.406250,83.58
17:37:37.421875,75.99
17:37:37.437500,67.11
17:37:37.453125,57.13
17:37:37.468750,46.36
17:37:37.484375,35.09
17:37:37.500000,23.58
17:37:37.515625,12.00
17:37:37.531250,0.54
17:37:37.546875,-10.56
17:37:37.562500,-21.06
17:37:37.578125,-30.75
17:37:37.593750,-39.57
17:37:37.609375,-47.66
17:37:37.625000,-55.24
17:37:37.640625,-62.57
17:37:37.656250,-69.81
17:37:37.671875,-77.02
17:37:37.687500,-84.14
17:37:37.703125,-91.10
17:37:37.718750,-97.89
17:37:37.734375,-104.55
17:37:37.750000,-111.19
17:37:37.765625,-117.86
17:37:37.781250,-124.54
17:37:37.796875,-131.14
17:37:37.812500,-137.49
17:37:37.828125,-143.28
17:37:37.843750,-148.08
17:37:37.859375,-151.16
17:37:37.875000,-151.65
17:37:37.890625,-148.73
17:37:37.906250,-141.89
17:37:37.921875,-131.29
17:37:37.937500,-117.76
17:37:37.953125,-102.58
17:37:37.968750,-87.16
17:37:37.984375,-72.61
17:37:38,-59.58
17:37:38.015625,-48.31
17:37:38.031250,-38.83
17:37:38.046875,-31.16
17:37:38.062500,-25.25
17:37:38.078125,-20.90
17:37:38.093750,-17.55
17:37:38.109375,-14.32
17:37:38.125000,-10.27
17:37:38.140625,-4.73
17:37:38.156250,2.38
17:37:38.171875,10.49
17:37:38.187500,18.63
17:37:38.203125,25.83
17:37:38.218750,31.50
17:37:38.234375,35.56
17:37:38.250000,38.38
17:37:38.265625,40.46
17:37:38.281250,42.20
17:37:38.296875,43.72
17:37:38.312500,44.94
17:37:38.328125,45.65
17:37:38.343750,45.75
17:37:38.359375,45.29
17:37:38.375000,44.50
17:37:38.390625,43.60
17:37:38.406250,42.76
17:37:38.421875,41.93
17:37:38.437500,40.86
17:37:38.453125,39.15
17:37:38.468750,36.41
17:37:38.484375,32.45
17:37:38.500000,27.45
17:37:38.515625,21.90
17:37:38.531250,16.44
17:37:38.546875,11.61
17:37:38.562500,7.59
17:37:38.578125,4.16
17:37:38.593750,0.74
17:37:38.609375,-3.38
17:37:38.625000,-8.86
17:37:38.640625,-16.11
17:37:38.656250,-25.07
17:37:38.671875,-35.12
17:37:38.687500,-44.84
17:37:38.703125,-52.21
17:37:38.718750,-54.93
17:37:38.734375,-51.19
17:37:38.750000,-40.31
17:37:38.765625,-23.20
17:37:38.781250,-2.09
17:37:38.796875,20.10
17:37:38.812500,40.77
17:37:38.828125,58.25
17:37:38.843750,72.01
17:37:38.859375,82.29
17:37:38.875000,89.67
17:37:38.890625,94.56
17:37:38.906250,97.18
17:37:38.921875,97.67
17:37:38.937500,96.32
17:37:38.953125,93.67
17:37:38.968750,90.38
17:37:38.984375,87.08
17:37:39,84.11
17:37:39.015625,81.44
17:37:39.031250,78.71
17:37:39.046875,75.43
17:37:39.062500,71.18
17:37:39.078125,65.79
17:37:39.093750,59.43
17:37:39.109375,52.48
17:37:39.125000,45.42
17:37:39.140625,38.49
17:37:39.156250,31.67
17:37:39.171875,24.58
17:37:39.187500,16.73
17:37:39.203125,7.70
17:37:39.218750,-2.57
17:37:39.234375,-13.79
17:37:39.250000,-25.33
17:37:39.265625,-36.44
17:37:39.281250,-46.50
17:37:39.296875,-55.21
17:37:39.312500,-62.72
17:37:39.328125,-69.51
17:37:39.343750,-76.25
17:37:39.359375,-83.57
17:37:39.375000,-91.76
17:37:39.390625,-100.72
17:37:39.406250,-109.92
17:37:39.421875,-118.72
17:37:39.437500,-126.56
17:37:39.453125,-133.27
17:37:39.468750,-139.12
17:37:39.484375,-144.73
17:37:39.500000,-150.79
17:37:39.515625,-157.88
17:37:39.531250,-166.32
17:37:39.546875,-175.94
17:37:39.562500,-185.99
17:37:39.578125,-194.89
17:37:39.593750,-200.32
17:37:39.609375,-199.71
17:37:39.625000,-191.09
17:37:39.640625,-173.92
17:37:39.656250,-149.55
17:37:39.671875,-120.94
17:37:39.687500,-91.61
17:37:39.703125,-64.47
17:37:39.718750,-41.02
17:37:39.734375,-21.26
17:37:39.750000,-4.41
17:37:39.765625,10.26
17:37:39.781250,22.93
17:37:39.796875,33.33
17:37:39.812500,41.21
17:37:39.828125,46.91
17:37:39.843750,51.36
17:37:39.859375,55.77
17:37:39.875000,61.04
17:37:39.890625,67.34
17:37:39.906250,74.09
17:37:39.921875,80.36
17:37:39.937500,85.31
17:37:39.953125,88.62
17:37:39.968750,90.57
17:37:39.984375,91.85
17:37:40,93.19
17:37:40.015625,95.06
17:37:40.031250,97.44
17:37:40.046875,99.89
17:37:40.062500,101.72
17:37:40.078125,102.32
17:37:40.093750,101.38
17:37:40.109375,98.99
17:37:40.125000,95.63
17:37:40.140625,91.82
17:37:40.156250,87.96
17:37:40.171875,84.06
17:37:40.187500,79.85
17:37:40.203125,74.93
17:37:40.218750,69.00
17:37:40.234375,62.09
17:37:40.250000,54.53
17:37:40.265625,46.80
17:37:40.281250,39.40
17:37:40.296875,32.57
17:37:40.312500,26.28
17:37:40.328125,20.23
17:37:40.343750,13.97
17:37:40.359375,7.09
17:37:40.375000,-0.72
17:37:40.390625,-9.55
17:37:40.406250,-19.27
17:37:40.421875,-29.47
17:37:40.437500,-39.32
17:37:40.453125,-47.52
17:37:40.468750,-52.36
17:37:40.484375,-52.14
17:37:40.500000,-45.75
17:37:40.515625,-33.13
17:37:40.531250,-15.58
17:37:40.546875,4.61
17:37:40.562500,24.78
17:37:40.578125,42.75
17:37:40.593750,57.25
17:37:40.609375,68.03
17:37:40.625000,75.52
17:37:40.640625,80.32
17:37:40.656250,82.97
17:37:40.671875,83.82
17:37:40.687500,83.18
17:37:40.703125,81.41
17:37:40.718750,78.92
17:37:40.734375,76.09
17:37:40.750000,73.17
17:37:40.765625,70.19
17:37:40.781250,67.07
17:37:40.796875,63.66
17:37:40.812500,59.90
17:37:40.828125,55.84
17:37:40.843750,51.57
17:37:40.859375,47.20
17:37:40.875000,42.72
17:37:40.890625,37.96
17:37:40.906250,32.66
17:37:40.921875,26.57
17:37:40.937500,19.62
17:37:40.953125,12.02
17:37:40.968750,4.18
17:37:40.984375,-3.38
17:37:41,-10.30
17:37:41.015625,-16.45
17:37:41.031250,-21.95
17:37:41.046875,-27.10
17:37:41.062500,-32.17
17:37:41.078125,-37.35
17:37:41.093750,-42.69
17:37:41.109375,-48.19
17:37:41.125000,-53.85
17:37:41.140625,-59.72
17:37:41.156250,-65.80
17:37:41.171875,-72.03
17:37:41.187500,-78.29
17:37:41.203125,-84.42
17:37:41.218750,-90.28
17:37:41.234375,-95.78
17:37:41.250000,-100.88
17:37:41.265625,-105.60
17:37:41.281250,-109.97
17:37:41.296875,-114.05
17:37:41.312500,-117.87
17:37:41.328125,-121.33
17:37:41.343750,-124.09
17:37:41.359375,-125.47
17:37:41.375000,-124.64
17:37:41.390625,-120.80
17:37:41.406250,-113.59
17:37:41.421875,-103.27
17:37:41.437500,-90.71
17:37:41.453125,-77.15
17:37:41.468750,-63.80
17:37:41.484375,-51.59
17:37:41.500000,-41.00
17:37:41.515625,-32.16
17:37:41.531250,-24.92
17:37:41.546875,-18.99
17:37:41.562500,-14.01
17:37:41.578125,-9.51
17:37:41.593750,-5.03
17:37:41.609375,-0.16
17:37:41.625000,5.35
17:37:41.640625,11.53
17:37:41.656250,18.21
17:37:41.671875,25.03
17:37:41.687500,31.50
17:37:41.703125,37.13
17:37:41.718750,41.43
17:37:41.734375,44.08
17:37:41.750000,45.00
17:37:41.765625,44.36
17:37:41.781250,42.62
17:37:41.796875,40.31
17:37:41.812500,37.91
17:37:41.828125,35.66
17:37:41.843750,33.52
17:37:41.859375,31.26
17:37:41.875000,28.59
17:37:41.890625,25.31
17:37:41.906250,21.44
17:37:41.921875,17.12
17:37:41.937500,12.60
17:37:41.953125,8.06
17:37:41.968750,3.52
17:37:41.984375,-1.20
17:37:42,-6.42
17:37:42.015625,-12.52
17:37:42.031250,-19.84
17:37:42.046875,-28.55
17:37:42.062500,-38.65
17:37:42.078125,-49.66
17:37:42.093750,-60.66
17:37:42.109375,-70.09
17:37:42.125000,-76.03
17:37:42.140625,-76.62
17:37:42.156250,-70.70
17:37:42.171875,-58.35
17:37:42.187500,-40.92
17:37:42.203125,-20.70
17:37:42.218750,-0.15
17:37:42.234375,18.87
17:37:42.250000,35.47
17:37:42.265625,49.66
17:37:42.281250,61.87
17:37:42.296875,72.40
17:37:42.312500,81.23
17:37:42.328125,88.13
17:37:42.343750,92.93
17:37:42.359375,95.80
17:37:42.375000,97.25
17:37:42.390625,97.89
17:37:42.406250,98.16
17:37:42.421875,98.15
17:37:42.437500,97.66
17:37:42.453125,96.40
17:37:42.468750,94.20
17:37:42.484375,91.17
17:37:42.500000,87.62
17:37:42.515625,83.89
17:37:42.531250,80.22
17:37:42.546875,76.58
17:37:42.562500,72.67
17:37:42.578125,68.06
17:37:42.593750,62.34
17:37:42.609375,55.29
17:37:42.625000,46.97
17:37:42.640625,37.74
17:37:42.656250,28.12
17:37:42.671875,18.56
17:37:42.687500,9.33
17:37:42.703125,0.39
17:37:42.718750,-8.57
17:37:42.734375,-17.96
17:37:42.750000,-28.05
17:37:42.765625,-38.85
17:37:42.781250,-50.04
17:37:42.796875,-61.06
17:37:42.812500,-71.39
17:37:42.828125,-80.78
17:37:42.843750,-89.38
17:37:42.859375,-97.65
17:37:42.875000,-106.18
17:37:42.890625,-115.41
17:37:42.906250,-125.52
17:37:42.921875,-136.33
17:37:42.937500,-147.30
17:37:42.953125,-157.49
17:37:42.968750,-165.54
17:37:42.984375,-169.75
17:37:43,-168.42
17:37:43.015625,-160.44
17:37:43.031250,-145.86
17:37:43.046875,-126.09
17:37:43.062500,-103.58
17:37:43.078125,-81.08
17:37:43.093750,-60.84
17:37:43.109375,-44.06
17:37:43.125000,-30.92
17:37:43.140625,-21.05
17:37:43.156250,-13.98
17:37:43.171875,-9.44
17:37:43.187500,-7.20
17:37:43.203125,-6.81
17:37:43.218750,-7.47
17:37:43.234375,-8.04
17:37:43.250000,-7.48
17:37:43.265625,-5.14
17:37:43.281250,-0.99
17:37:43.296875,4.49
17:37:43.312500,10.59
17:37:43.328125,16.69
17:37:43.343750,22.49
17:37:43.359375,27.96
17:37:43.375000,33.14
17:37:43.390625,38.00
17:37:43.406250,42.21
17:37:43.421875,45.23
17:37:43.437500,46.52
17:37:43.453125,45.81
17:37:43.468750,43.28
17:37:43.484375,39.60
17:37:43.500000,35.64
17:37:43.515625,32.13
17:37:43.531250,29.38
17:37:43.546875,27.23
17:37:43.562500,25.14
17:37:43.578125,22.60
17:37:43.593750,19.35
17:37:43.609375,15.54
17:37:43.625000,11.60
17:37:43.640625,7.94
17:37:43.656250,4.70
17:37:43.671875,1.60
17:37:43.687500,-1.94
17:37:43.703125,-6.67
17:37:43.718750,-13.24
17:37:43.734375,-21.97
17:37:43.750000,-32.71
17:37:43.765625,-44.64
17:37:43.781250,-56.31
17:37:43.796875,-65.67
17:37:43.812500,-70.55
17:37:43.828125,-69.20
17:37:43.843750,-60.88
17:37:43.859375,-46.28
17:37:43.875000,-27.35
17:37:43.890625,-6.68
17:37:43.906250,13.25
17:37:43.921875,30.85
17:37:43.937500,45.58
17:37:43.953125,57.83
17:37:43.968750,68.31
17:37:43.984375,77.57
17:37:44,85.77
17:37:44.015625,92.64
17:37:44.031250,97.84
17:37:44.046875,101.18
17:37:44.062500,102.78
17:37:44.078125,103.06
17:37:44.093750,102.53
17:37:44.109375,101.64
17:37:44.125000,100.69
17:37:44.140625,99.78
17:37:44.156250,98.90
17:37:44.171875,98.04
17:37:44.187500,97.17
17:37:44.203125,96.29
17:37:44.218750,95.34
17:37:44.234375,94.16
17:37:44.250000,92.48
17:37:44.265625,90.03
17:37:44.281250,86.59
17:37:44.296875,82.11
17:37:44.312500,76.74
17:37:44.328125,70.78
17:37:44.343750,64.61
17:37:44.359375,58.56
17:37:44.375000,52.88
17:37:44.390625,47.62
17:37:44.406250,42.71
17:37:44.421875,37.92
17:37:44.437500,33.01
17:37:44.453125,27.75
17:37:44.468750,22.00
17:37:44.484375,15.72
17:37:44.500000,9.00
17:37:44.515625,2.04
17:37:44.531250,-4.94
17:37:44.546875,-11.71
17:37:44.562500,-18.18
17:37:44.578125,-24.38
17:37:44.593750,-30.54
17:37:44.609375,-36.97
17:37:44.625000,-44.04
17:37:44.640625,-51.98
17:37:44.656250,-60.79
17:37:44.671875,-69.98
17:37:44.687500,-78.52
17:37:44.703125,-84.83
17:37:44.718750,-87.20
17:37:44.734375,-84.31
17:37:44.750000,-75.81
17:37:44.765625,-62.58
17:37:44.781250,-46.52
17:37:44.796875,-29.97
17:37:44.812500,-14.92
17:37:44.828125,-2.51
17:37:44.843750,7.03
17:37:44.859375,14.03
17:37:44.875000,18.94
17:37:44.890625,21.95
17:37:44.906250,22.98
17:37:44.921875,21.93
17:37:44.937500,18.95
17:37:44.953125,14.52
17:37:44.968750,9.35
17:37:44.984375,4.07
17:37:45,-0.99
17:37:45.015625,-5.81
17:37:45.031250,-10.57
17:37:45.046875,-15.41
17:37:45.062500,-20.27
17:37:45.078125,-24.88
17:37:45.093750,-28.89
17:37:45.109375,-32.10
17:37:45.125000,-34.61
17:37:45.140625,-36.82
17:37:45.156250,-39.22
17:37:45.171875,-42.15
17:37:45.187500,-45.63
17:37:45.203125,-49.31
17:37:45.218750,-52.67
17:37:45.234375,-55.15
17:37:45.250000,-56.45
17:37:45.265625,-56.55
17:37:45.281250,-55.78
17:37:45.296875,-54.70
17:37:45.312500,-53.96
17:37:45.328125,-54.12
17:37:45.343750,-55.50
17:37:45.359375,-58.04
17:37:45.375000,-61.34
17:37:45.390625,-64.87
17:37:45.406250,-68.18
17:37:45.421875,-71.13
17:37:45.437500,-74.02
17:37:45.453125,-77.43
17:37:45.468750,-82.13
17:37:45.484375,-88.74
17:37:45.500000,-97.55
17:37:45.515625,-108.21
17:37:45.531250,-119.55
17:37:45.546875,-129.59
17:37:45.562500,-135.80
17:37:45.578125,-135.79
17:37:45.593750,-128.08
17:37:45.609375,-112.77
17:37:45.625000,-91.67
17:37:45.640625,-67.74
17:37:45.656250,-44.16
17:37:45.671875,-23.31
17:37:45.687500,-6.19
17:37:45.703125,7.43
17:37:45.718750,18.51
17:37:45.734375,27.97
17:37:45.750000,36.29
17:37:45.765625,43.45
17:37:45.781250,49.21
17:37:45.796875,53.51
17:37:45.812500,56.60
17:37:45.828125,59.00
17:37:45.843750,61.30
17:37:45.859375,63.93
17:37:45.875000,67.01
17:37:45.890625,70.35
17:37:45.906250,73.63
17:37:45.921875,76.55
17:37:45.937500,78.96
17:37:45.953125,80.84
17:37:45.968750,82.28
17:37:45.984375,83.24
17:37:46,83.54
17:37:46.015625,82.81
17:37:46.031250,80.68
17:37:46.046875,76.98
17:37:46.062500,71.93
17:37:46.078125,66.15
17:37:46.093750,60.42
17:37:46.109375,55.46
17:37:46.125000,51.56
17:37:46.140625,48.56
17:37:46.156250,45.89
17:37:46.171875,42.87
17:37:46.187500,38.96
17:37:46.203125,33.95
17:37:46.218750,27.97
17:37:46.234375,21.43
17:37:46.250000,14.78
17:37:46.265625,8.42
17:37:46.281250,2.54
17:37:46.296875,-2.96
17:37:46.312500,-8.42
17:37:46.328125,-14.41
17:37:46.343750,-21.56
17:37:46.359375,-30.44
17:37:46.375000,-41.28
17:37:46.390625,-53.73
17:37:46.406250,-66.65
17:37:46.421875,-78.15
17:37:46.437500,-85.91
17:37:46.453125,-87.78
17:37:46.468750,-82.51
17:37:46.484375,-70.28
17:37:46.500000,-52.69
17:37:46.515625,-32.29
17:37:46.531250,-11.73
17:37:46.546875,6.97
17:37:46.562500,22.85
17:37:46.578125,35.89
17:37:46.593750,46.56
17:37:46.609375,55.29
17:37:46.625000,62.22
17:37:46.640625,67.26
17:37:46.656250,70.28
17:37:46.671875,71.49
17:37:46.687500,71.43
17:37:46.703125,70.88
17:37:46.718750,70.53
17:37:46.734375,70.73
17:37:46.750000,71.42
17:37:46.765625,72.22
17:37:46.781250,72.71
17:37:46.796875,72.66
17:37:46.812500,72.13
17:37:46.828125,71.37
17:37:46.843750,70.62
17:37:46.859375,69.92
17:37:46.875000,69.03
17:37:46.890625,67.50
17:37:46.906250,64.89
17:37:46.921875,60.97
17:37:46.937500,55.77
17:37:46.953125,49.60
17:37:46.968750,42.93
17:37:46.984375,36.26
17:37:47,29.98
17:37:47.015625,24.32
17:37:47.031250,19.25
17:37:47.046875,14.54
17:37:47.062500,9.78
17:37:47.078125,4.60
17:37:47.093750,-1.25
17:37:47.109375,-7.77
17:37:47.125000,-14.68
17:37:47.140625,-21.55
17:37:47.156250,-27.95
17:37:47.171875,-33.67
17:37:47.187500,-38.84
17:37:47.203125,-43.85
17:37:47.218750,-49.30
17:37:47.234375,-55.81
17:37:47.250000,-63.78
17:37:47.265625,-73.20
17:37:47.281250,-83.50
17:37:47.296875,-93.38
17:37:47.312500,-101.02
17:37:47.328125,-104.43
17:37:47.343750,-101.97
17:37:47.359375,-92.97
17:37:47.375000,-78.02
17:37:47.390625,-58.87
17:37:47.406250,-37.91
17:37:47.421875,-17.48
17:37:47.437500,0.74
17:37:47.453125,15.95
17:37:47.468750,28.15
17:37:47.484375,37.68
17:37:47.500000,44.89
17:37:47.515625,49.99
17:37:47.531250,53.08
17:37:47.546875,54.41
17:37:47.562500,54.40
17:37:47.578125,53.71
17:37:47.593750,53.00
17:37:47.609375,52.72
17:37:47.625000,53.00
17:37:47.640625,53.63
17:37:47.656250,54.31
17:37:47.671875,54.73
17:37:47.687500,54.77
17:37:47.703125,54.48
17:37:47.718750,53.97
17:37:47.734375,53.30
17:37:47.750000,52.47
17:37:47.765625,51.31
17:37:47.781250,49.61
17:37:47.796875,47.14
17:37:47.812500,43.76
17:37:47.828125,39.49
17:37:47.843750,34.54
17:37:47.859375,29.28
17:37:47.875000,24.10
17:37:47.890625,19.28
17:37:47.906250,14.88
17:37:47.921875,10.71
17:37:47.937500,6.40
17:37:47.953125,1.56
17:37:47.968750,-3.99
17:37:47.984375,-10.15
17:37:48,-16.53
17:37:48.015625,-22.62
17:37:48.031250,-27.96
17:37:48.046875,-32.40
17:37:48.062500,-36.17
17:37:48.078125,-39.85
17:37:48.093750,-44.15
17:37:48.109375,-49.72
17:37:48.125000,-56.90
17:37:48.140625,-65.59
17:37:48.156250,-75.17
17:37:48.171875,-84.52
17:37:48.187500,-92.06
17:37:48.203125,-96.04
17:37:48.218750,-94.89
17:37:48.234375,-87.74
17:37:48.250000,-74.74
17:37:48.265625,-57.21
17:37:48.281250,-37.31
17:37:48.296875,-17.36
17:37:48.312500,0.75
17:37:48.328125,16.04
17:37:48.343750,28.38
17:37:48.359375,38.17
17:37:48.375000,45.89
17:37:48.390625,51.83
17:37:48.406250,56.01
17:37:48.421875,58.43
17:37:48.437500,59.27
17:37:48.453125,58.98
17:37:48.468750,58.21
17:37:48.484375,57.58
17:37:48.500000,57.50
17:37:48.515625,58.04
17:37:48.531250,59.03
17:37:48.546875,60.16
17:37:48.562500,61.15
17:37:48.578125,61.81
17:37:48.593750,62.12
17:37:48.609375,62.10
17:37:48.625000,61.77
17:37:48.640625,61.06
17:37:48.656250,59.86
17:37:48.671875,57.98
17:37:48.687500,55.28
17:37:48.703125,51.77
17:37:48.718750,47.61
17:37:48.734375,43.08
17:37:48.750000,38.52
17:37:48.765625,34.18
17:37:48.781250,30.18
17:37:48.796875,26.50
17:37:48.812500,22.97
17:37:48.828125,19.43
17:37:48.843750,15.71
17:37:48.859375,11.68
17:37:48.875000,7.32
17:37:48.890625,2.70
17:37:48.906250,-2.05
17:37:48.921875,-6.75
17:37:48.937500,-11.28
17:37:48.953125,-15.62
17:37:48.968750,-19.87
17:37:48.984375,-24.23
17:37:49,-28.91
17:37:49.015625,-34.11
17:37:49.031250,-39.95
17:37:49.046875,-46.30
17:37:49.062500,-52.75
17:37:49.078125,-58.42
17:37:49.093750,-62.07
17:37:49.109375,-62.30
17:37:49.125000,-58.06
17:37:49.140625,-49.10
17:37:49.156250,-36.21
17:37:49.171875,-21.09
17:37:49.187500,-5.74
17:37:49.203125,8.07
17:37:49.218750,19.31
17:37:49.234375,27.68
17:37:49.250000,33.39
17:37:49.265625,36.85
17:37:49.281250,38.38
17:37:49.296875,38.23
17:37:49.312500,36.66
17:37:49.328125,34.05
17:37:49.343750,30.85
17:37:49.359375,27.48
17:37:49.375000,24.20
17:37:49.390625,21.02
17:37:49.406250,17.80
17:37:49.421875,14.33
17:37:49.437500,10.48
17:37:49.453125,6.21
17:37:49.468750,1.59
17:37:49.484375,-3.30
17:37:49.500000,-8.42
17:37:49.515625,-13.89
17:37:49.531250,-19.91
17:37:49.546875,-26.71
17:37:49.562500,-34.39
17:37:49.578125,-42.79
17:37:49.593750,-51.52
17:37:49.609375,-60.11
17:37:49.625000,-68.21
17:37:49.640625,-75.78
17:37:49.656250,-83.12
17:37:49.671875,-90.71
17:37:49.687500,-98.96
17:37:49.703125,-107.93
17:37:49.718750,-117.31
17:37:49.734375,-126.47
17:37:49.750000,-134.75
17:37:49.765625,-141.60
17:37:49.781250,-146.74
17:37:49.796875,-150.16
17:37:49.812500,-152.10
17:37:49.828125,-152.95
17:37:49.843750,-153.14
17:37:49.859375,-152.90
17:37:49.875000,-152.06
17:37:49.890625,-149.85
17:37:49.906250,-145.06
17:37:49.921875,-136.41
17:37:49.937500,-123.13
17:37:49.953125,-105.49
17:37:49.968750,-84.87
17:37:49.984375,-63.32
17:37:50,-42.93
17:37:50.015625,-25.05
17:37:50.031250,-10.09
17:37:50.046875,2.31
17:37:50.062500,12.77
17:37:50.078125,21.66
17:37:50.093750,28.90
17:37:50.109375,34.11
17:37:50.125000,37.03
17:37:50.140625,37.77
17:37:50.156250,37.03
17:37:50.171875,35.80
17:37:50.187500,35.12
17:37:50.203125,35.69
17:37:50.218750,37.71
17:37:50.234375,40.94
17:37:50.250000,44.83
17:37:50.265625,48.87
17:37:50.281250,52.70
17:37:50.296875,56.23
17:37:50.312500,59.47
17:37:50.328125,62.39
17:37:50.343750,64.79
17:37:50.359375,66.27
17:37:50.375000,66.41
17:37:50.390625,64.97
17:37:50.406250,62.05
17:37:50.421875,58.02
17:37:50.437500,53.43
17:37:50.453125,48.70
17:37:50.468750,44.03
17:37:50.484375,39.32
17:37:50.500000,34.33
17:37:50.515625,28.86
17:37:50.531250,22.96
17:37:50.546875,16.96
17:37:50.562500,11.35
17:37:50.578125,6.61
17:37:50.593750,2.97
17:37:50.609375,0.28
17:37:50.625000,-1.94
17:37:50.640625,-4.37
17:37:50.656250,-7.72
17:37:50.671875,-12.44
17:37:50.687500,-18.62
17:37:50.703125,-25.79
17:37:50.718750,-33.00
17:37:50.734375,-38.79
17:37:50.750000,-41.52
17:37:50.765625,-39.74
17:37:50.781250,-32.67
17:37:50.796875,-20.51
17:37:50.812500,-4.50
17:37:50.828125,13.47
17:37:50.843750,31.41
17:37:50.859375,47.74
17:37:50.875000,61.58
17:37:50.890625,72.65
17:37:50.906250,80.97
17:37:50.921875,86.64
17:37:50.937500,89.69
17:37:50.953125,90.29
17:37:50.968750,88.87
17:37:50.984375,86.22
17:37:51,83.29
17:37:51.015625,80.93
17:37:51.031250,79.56
17:37:51.046875,79.15
17:37:51.062500,79.28
17:37:51.078125,79.43
17:37:51.093750,79.22
17:37:51.109375,78.52
17:37:51.125000,77.43
17:37:51.140625,76.11
17:37:51.156250,74.63
17:37:51.171875,72.92
17:37:51.187500,70.73
17:37:51.203125,67.83
17:37:51.218750,64.05
17:37:51.234375,59.38
17:37:51.250000,53.91
17:37:51.265625,47.78
17:37:51.281250,41.06
17:37:51.296875,33.77
17:37:51.312500,25.81
17:37:51.328125,17.18
17:37:51.343750,7.94
17:37:51.359375,-1.71
17:37:51.375000,-11.52
17:37:51.390625,-21.28
17:37:51.406250,-30.95
17:37:51.421875,-40.62
17:37:51.437500,-50.48
17:37:51.453125,-60.69
17:37:51.468750,-71.25
17:37:51.484375,-82.03
17:37:51.500000,-92.76
17:37:51.515625,-103.08
17:37:51.531250,-112.53
17:37:51.546875,-120.48
17:37:51.562500,-126.11
17:37:51.578125,-128.58
17:37:51.593750,-127.29
17:37:51.609375,-122.17
17:37:51.625000,-113.79
17:37:51.640625,-103.26
17:37:51.656250,-91.86
17:37:51.671875,-80.61
17:37:51.687500,-70.14
17:37:51.703125,-60.70
17:37:51.718750,-52.38
17:37:51.734375,-45.40
17:37:51.750000,-40.05
17:37:51.765625,-36.50
17:37:51.781250,-34.57
17:37:51.796875,-33.61
17:37:51.812500,-32.69
17:37:51.828125,-30.91
17:37:51.843750,-27.87
17:37:51.859375,-23.77
17:37:51.875000,-19.35
17:37:51.890625,-15.58
17:37:51.906250,-13.28
17:37:51.921875,-12.86
17:37:51.937500,-14.21
17:37:51.953125,-16.89
17:37:51.968750,-20.26
17:37:51.984375,-23.77
17:37:52,-27.14
17:37:52.015625,-30.39
17:37:52.031250,-33.72
17:37:52.046875,-37.36
17:37:52.062500,-41.35
17:37:52.078125,-45.45
17:37:52.093750,-49.28
17:37:52.109375,-52.46
17:37:52.125000,-54.92
17:37:52.140625,-57.00
17:37:52.156250,-59.43
17:37:52.171875,-63.11
17:37:52.187500,-68.81
17:37:52.203125,-76.95
17:37:52.218750,-87.36
17:37:52.234375,-99.18
17:37:52.250000,-110.88
17:37:52.265625,-120.39
17:37:52.281250,-125.48
17:37:52.296875,-124.26
17:37:52.312500,-115.69
17:37:52.328125,-99.99
17:37:52.343750,-78.60
17:37:52.359375,-53.80
17:37:52.375000,-28.09
17:37:52.390625,-3.49
17:37:52.406250,18.76
17:37:52.421875,38.30
17:37:52.437500,55.35
17:37:52.453125,70.30
17:37:52.468750,83.41
17:37:52.484375,94.70
17:37:52.500000,104.07
17:37:52.515625,111.40
17:37:52.531250,116.74
17:37:52.546875,120.36
17:37:52.562500,122.60
17:37:52.578125,123.84
17:37:52.593750,124.34
17:37:52.609375,124.26
17:37:52.625000,123.72
17:37:52.640625,122.94
17:37:52.656250,122.22
17:37:52.671875,121.86
17:37:52.687500,122.01
17:37:52.703125,122.54
17:37:52.718750,123.00
17:37:52.734375,122.85
17:37:52.750000,121.65
17:37:52.765625,119.24
17:37:52.781250,115.86
17:37:52.796875,111.91
17:37:52.812500,107.77
17:37:52.828125,103.53
17:37:52.843750,98.98
17:37:52.859375,93.68
17:37:52.875000,87.23
17:37:52.890625,79.48
17:37:52.906250,70.62
17:37:52.921875,61.10
17:37:52.937500,51.40
17:37:52.953125,41.82
17:37:52.968750,32.31
17:37:52.984375,22.54
17:37:53,11.94
17:37:53.015625,-0.05
17:37:53.031250,-13.81
17:37:53.046875,-29.30
17:37:53.062500,-45.85
17:37:53.078125,-62.11
17:37:53.093750,-76.09
17:37:53.109375,-85.61
17:37:53.125000,-88.92
17:37:53.140625,-85.36
17:37:53.156250,-75.74
17:37:53.171875,-62.15
17:37:53.187500,-47.24
17:37:53.203125,-33.34
17:37:53.218750,-21.71
17:37:53.234375,-12.30
17:37:53.250000,-4.24
17:37:53.265625,3.55
17:37:53.281250,11.61
17:37:53.296875,19.77
17:37:53.312500,27.25
17:37:53.328125,33.21
17:37:53.343750,37.11
17:37:53.359375,38.98
17:37:53.375000,39.35
17:37:53.390625,38.88
17:37:53.406250,38.13
17:37:53.421875,37.27
17:37:53.437500,36.18
17:37:53.453125,34.51
17:37:53.468750,32.02
17:37:53.484375,28.68
17:37:53.500000,24.70
17:37:53.515625,20.39
17:37:53.531250,15.91
17:37:53.546875,11.13
17:37:53.562500,5.62
17:37:53.578125,-1.15
17:37:53.593750,-9.52
17:37:53.609375,-19.40
17:37:53.625000,-30.17
17:37:53.640625,-40.92
17:37:53.656250,-50.74
17:37:53.671875,-59.14
17:37:53.687500,-66.25
17:37:53.703125,-72.79
17:37:53.718750,-79.73
17:37:53.734375,-87.83
17:37:53.750000,-97.29
17:37:53.765625,-107.66
17:37:53.781250,-118.06
17:37:53.796875,-127.55
17:37:53.812500,-135.51
17:37:53.828125,-141.85
17:37:53.843750,-146.93
17:37:53.859375,-151.44
17:37:53.875000,-156.17
17:37:53.890625,-161.82
17:37:53.906250,-168.91
17:37:53.921875,-177.47
17:37:53.937500,-186.77
17:37:53.953125,-195.19
17:37:53.968750,-200.33
17:37:53.984375,-199.57
17:37:54,-191.00
17:37:54.015625,-174.17
17:37:54.031250,-150.37
17:37:54.046875,-122.30
17:37:54.062500,-93.11
17:37:54.078125,-65.38
17:37:54.093750,-40.46
17:37:54.109375,-18.41
17:37:54.125000,1.54
17:37:54.140625,20.29
17:37:54.156250,38.43
17:37:54.171875,55.99
17:37:54.187500,72.74
17:37:54.203125,88.40
17:37:54.218750,102.88
17:37:54.234375,116.26
17:37:54.250000,128.64
17:37:54.265625,140.01
17:37:54.281250,150.19
17:37:54.296875,158.91
17:37:54.312500,165.99
17:37:54.328125,171.44
17:37:54.343750,175.50
17:37:54.359375,178.55
17:37:54.375000,180.88
17:37:54.390625,182.56
17:37:54.406250,183.33
17:37:54.421875,182.73
17:37:54.437500,180.31
17:37:54.453125,175.86
17:37:54.468750,169.61
17:37:54.484375,162.21
17:37:54.500000,154.54
17:37:54.515625,147.33
17:37:54.531250,140.97
17:37:54.546875,135.32
17:37:54.562500,129.89
17:37:54.578125,124.12
17:37:54.593750,117.65
17:37:54.609375,110.48
17:37:54.625000,102.89
17:37:54.640625,95.19
17:37:54.656250,87.61
17:37:54.671875,80.10
17:37:54.687500,72.45
17:37:54.703125,64.41
17:37:54.718750,55.82
17:37:54.734375,46.67
17:37:54.750000,37.10
17:37:54.765625,27.29
17:37:54.781250,17.39
17:37:54.796875,7.51
17:37:54.812500,-2.41
17:37:54.828125,-12.48
17:37:54.843750,-22.95
17:37:54.859375,-34.05
17:37:54.875000,-46.03
17:37:54.890625,-58.94
17:37:54.906250,-72.55
17:37:54.921875,-86.18
17:37:54.937500,-98.65
17:37:54.953125,-108.39
17:37:54.968750,-113.82
17:37:54.984375,-113.87
17:37:55,-108.40
17:37:55.015625,-98.25
17:37:55.031250,-85.07
17:37:55.046875,-70.70
17:37:55.062500,-56.65
17:37:55.078125,-43.73
17:37:55.093750,-32.11
17:37:55.109375,-21.64
17:37:55.125000,-12.24
17:37:55.140625,-4.07
17:37:55.156250,2.51
17:37:55.171875,7.21
17:37:55.187500,10.06
17:37:55.203125,11.47
17:37:55.218750,12.08
17:37:55.234375,12.49
17:37:55.250000,13.05
17:37:55.265625,13.75
17:37:55.281250,14.37
17:37:55.296875,14.63
17:37:55.312500,14.40
17:37:55.328125,13.74
17:37:55.343750,12.79
17:37:55.359375,11.71
17:37:55.375000,10.51
17:37:55.390625,9.07
17:37:55.406250,7.22
17:37:55.421875,4.83
17:37:55.437500,1.94
17:37:55.453125,-1.29
17:37:55.468750,-4.66
17:37:55.484375,-8.01
17:37:55.500000,-11.35
17:37:55.515625,-14.81
17:37:55.531250,-18.56
17:37:55.546875,-22.67
17:37:55.562500,-27.04
17:37:55.578125,-31.43
17:37:55.593750,-35.58
17:37:55.609375,-39.38
17:37:55.625000,-42.89
17:37:55.640625,-46.37
17:37:55.656250,-50.13
17:37:55.671875,-54.36
17:37:55.687500,-59.10
17:37:55.703125,-64.21
17:37:55.718750,-69.56
17:37:55.734375,-75.03
17:37:55.750000,-80.70
17:37:55.765625,-86.79
17:37:55.781250,-93.67
17:37:55.796875,-101.77
17:37:55.812500,-111.36
17:37:55.828125,-122.28
17:37:55.843750,-133.60
17:37:55.859375,-143.54
17:37:55.875000,-149.67
17:37:55.890625,-149.50
17:37:55.906250,-141.29
17:37:55.921875,-124.75
17:37:55.937500,-101.23
17:37:55.953125,-73.40
17:37:55.968750,-44.40
17:37:55.984375,-16.93
17:37:56,7.37
17:37:56.015625,28.04
17:37:56.031250,45.45
17:37:56.046875,60.22
17:37:56.062500,72.82
17:37:56.078125,83.42
17:37:56.093750,91.96
17:37:56.109375,98.47
17:37:56.125000,103.14
17:37:56.140625,106.32
17:37:56.156250,108.46
17:37:56.171875,109.86
17:37:56.187500,110.67
17:37:56.203125,110.95
17:37:56.218750,110.76
17:37:56.234375,110.30
17:37:56.250000,109.87
17:37:56.265625,109.77
17:37:56.281250,110.13
17:37:56.296875,110.79
17:37:56.312500,111.30
17:37:56.328125,111.11
17:37:56.343750,109.80
17:37:56.359375,107.26
17:37:56.375000,103.68
17:37:56.390625,99.51
17:37:56.406250,95.19
17:37:56.421875,90.93
17:37:56.437500,86.66
17:37:56.453125,82.07
17:37:56.468750,76.79
17:37:56.484375,70.58
17:37:56.500000,63.51
17:37:56.515625,55.88
17:37:56.531250,48.13
17:37:56.546875,40.61
17:37:56.562500,33.41
17:37:56.578125,26.40
17:37:56.593750,19.26
17:37:56.609375,11.73
17:37:56.625000,3.72
17:37:56.640625,-4.60
17:37:56.656250,-12.92
17:37:56.671875,-20.93
17:37:56.687500,-28.55
17:37:56.703125,-35.96
17:37:56.718750,-43.54
17:37:56.734375,-51.76
17:37:56.750000,-61.01
17:37:56.765625,-71.50
17:37:56.781250,-83.04
17:37:56.796875,-94.87
17:37:56.812500,-105.61
17:37:56.828125,-113.33
17:37:56.843750,-116.01
17:37:56.859375,-112.23
17:37:56.875000,-101.71
17:37:56.890625,-85.61
17:37:56.906250,-66.21
17:37:56.921875,-46.17
17:37:56.937500,-27.77
17:37:56.953125,-12.26
17:37:56.968750,0.08
17:37:56.984375,9.67
17:37:57,17.03
17:37:57.015625,22.44
17:37:57.031250,25.95
17:37:57.046875,27.57
17:37:57.062500,27.50
17:37:57.078125,26.26
17:37:57.093750,24.50
17:37:57.109375,22.79
17:37:57.125000,21.41
17:37:57.140625,20.33
17:37:57.156250,19.33
17:37:57.171875,18.19
17:37:57.187500,16.88
17:37:57.203125,15.52
17:37:57.218750,14.26
17:37:57.234375,13.23
17:37:57.250000,12.33
17:37:57.265625,11.29
17:37:57.281250,9.78
17:37:57.296875,7.49
17:37:57.312500,4.28
17:37:57.328125,0.22
17:37:57.343750,-4.44
17:37:57.359375,-9.38
17:37:57.375000,-14.32
17:37:57.390625,-19.06
17:37:57.406250,-23.56
17:37:57.421875,-27.85
17:37:57.437500,-31.96
17:37:57.453125,-35.91
17:37:57.468750,-39.71
17:37:57.484375,-43.37
17:37:57.500000,-46.98
17:37:57.515625,-50.71
17:37:57.531250,-54.64
17:37:57.546875,-58.74
17:37:57.562500,-62.81
17:37:57.578125,-66.54
17:37:57.593750,-69.66
17:37:57.609375,-72.04
17:37:57.625000,-73.84
17:37:57.640625,-75.45
17:37:57.656250,-77.43
17:37:57.671875,-80.42
17:37:57.687500,-84.88
17:37:57.703125,-90.92
17:37:57.718750,-98.05
17:37:57.734375,-104.94
17:37:57.750000,-109.63
17:37:57.765625,-109.95
17:37:57.781250,-104.20
17:37:57.796875,-91.81
17:37:57.812500,-73.60
17:37:57.828125,-51.61
17:37:57.843750,-28.41
17:37:57.859375,-6.34
17:37:57.875000,13.03
17:37:57.890625,29.09
17:37:57.906250,41.91
17:37:57.921875,51.90
17:37:57.937500,59.47
17:37:57.953125,64.91
17:37:57.968750,68.47
17:37:57.984375,70.46
17:37:58,71.36
17:37:58.015625,71.72
17:37:58.031250,72.08
17:37:58.046875,72.75
17:37:58.062500,73.78
17:37:58.078125,74.95
17:37:58.093750,75.92
17:37:58.109375,76.43
17:37:58.125000,76.43
17:37:58.140625,76.11
17:37:58.156250,75.77
17:37:58.171875,75.66
17:37:58.187500,75.77
17:37:58.203125,75.82
17:37:58.218750,75.41
17:37:58.234375,74.19
17:37:58.250000,72.07
17:37:58.265625,69.22
17:37:58.281250,65.98
17:37:58.296875,62.70
17:37:58.312500,59.57
17:37:58.328125,56.62
17:37:58.343750,53.76
17:37:58.359375,50.84
17:37:58.375000,47.74
17:37:58.390625,44.35
17:37:58.406250,40.61
17:37:58.421875,36.45
17:37:58.437500,31.95
17:37:58.453125,27.26
17:37:58.468750,22.64
17:37:58.484375,18.29
17:37:58.500000,14.21
17:37:58.515625,10.13
17:37:58.531250,5.52
17:37:58.546875,-0.14
17:37:58.562500,-7.21
17:37:58.578125,-15.60
17:37:58.593750,-24.79
17:37:58.609375,-33.83
17:37:58.625000,-41.49
17:37:58.640625,-46.47
17:37:58.656250,-47.66
17:37:58.671875,-44.45
17:37:58.687500,-36.89
17:37:58.703125,-25.86
17:37:58.718750,-12.86
17:37:58.734375,0.33
17:37:58.750000,12.14
17:37:58.765625,21.54
17:37:58.781250,28.19
17:37:58.796875,32.21
17:37:58.812500,33.97
17:37:58.828125,33.82
17:37:58.843750,32.09
17:37:58.859375,29.10
17:37:58.875000,25.32
17:37:58.890625,21.28
17:37:58.906250,17.43
17:37:58.921875,14.04
17:37:58.937500,11.09
17:37:58.953125,8.40
17:37:58.968750,5.73
17:37:58.984375,2.99
17:37:59,0.21
17:37:59.015625,-2.45
17:37:59.031250,-4.90
17:37:59.046875,-7.21
17:37:59.062500,-9.62
17:37:59.078125,-12.46
17:37:59.093750,-16.00
17:37:59.109375,-20.37
17:37:59.125000,-25.41
17:37:59.140625,-30.77
17:37:59.156250,-36.04
17:37:59.171875,-40.95
17:37:59.187500,-45.50
17:37:59.203125,-49.96
17:37:59.218750,-54.67
17:37:59.234375,-59.84
17:37:59.250000,-65.39
17:37:59.265625,-70.98
17:37:59.281250,-76.21
17:37:59.296875,-80.88
17:37:59.312500,-85.16
17:37:59.328125,-89.59
17:37:59.343750,-94.84
17:37:59.359375,-101.52
17:37:59.375000,-110.00
17:37:59.390625,-120.32
17:37:59.406250,-131.97
17:37:59.421875,-143.81
17:37:59.437500,-153.95
17:37:59.453125,-159.96
17:37:59.468750,-159.46
17:37:59.484375,-150.93
17:37:59.500000,-134.43
17:37:59.515625,-111.79
17:37:59.531250,-86.05
17:37:59.546875,-60.47
17:37:59.562500,-37.44
17:37:59.578125,-17.95
17:37:59.593750,-1.74
17:37:59.609375,12.07
17:37:59.625000,24.20
17:37:59.640625,34.84
17:37:59.656250,43.73
17:37:59.671875,50.54
17:37:59.687500,55.35
17:37:59.703125,58.69
17:37:59.718750,61.43
17:37:59.734375,64.29
17:37:59.750000,67.62
17:37:59.765625,71.21
17:37:59.781250,74.49
17:37:59.796875,76.81
17:37:59.812500,77.89
17:37:59.828125,77.90
17:37:59.843750,77.42
17:37:59.859375,77.16
17:37:59.875000,77.50
17:37:59.890625,78.33
17:37:59.906250,79.05
17:37:59.921875,78.95
17:37:59.937500,77.58
17:37:59.953125,75.00
17:37:59.968750,71.76
17:37:59.984375,68.54
17:38:00,65.79
17:38:00.015625,63.45
17:38:00.031250,60.94
17:38:00.046875,57.52
17:38:00.062500,52.58
17:38:00.078125,45.91
17:38:00.093750,37.73
17:38:00.109375,28.57
17:38:00.125000,18.97
17:38:00.140625,9.37
17:38:00.156250,-0.04
17:38:00.171875,-9.32
17:38:00.187500,-18.70
17:38:00.203125,-28.48
17:38:00.218750,-38.93
17:38:00.234375,-50.22
17:38:00.250000,-62.30
17:38:00.265625,-74.74
17:38:00.281250,-86.58
17:38:00.296875,-96.41
17:38:00.312500,-102.55
17:38:00.328125,-103.56
17:38:00.343750,-98.72
17:38:00.359375,-88.39
17:38:00.375000,-73.96
17:38:00.390625,-57.38
17:38:00.406250,-40.56
17:38:00.421875,-24.85
17:38:00.437500,-10.88
17:38:00.453125,1.20
17:38:00.468750,11.33
17:38:00.484375,19.31
17:38:00.500000,24.81
17:38:00.515625,27.60
17:38:00.531250,27.89
17:38:00.546875,26.34
17:38:00.562500,23.90
17:38:00.578125,21.48
17:38:00.593750,19.59
17:38:00.609375,18.30
17:38:00.625000,17.30
17:38:00.640625,16.19
17:38:00.656250,14.68
17:38:00.671875,12.72
17:38:00.687500,10.42
17:38:00.703125,7.88
17:38:00.718750,5.08
17:38:00.734375,1.84
17:38:00.750000,-2.08
17:38:00.765625,-6.80
17:38:00.781250,-12.16
17:38:00.796875,-17.76
17:38:00.812500,-23.06
17:38:00.828125,-27.64
17:38:00.843750,-31.43
17:38:00.859375,-34.77
17:38:00.875000,-38.37
17:38:00.890625,-42.99
17:38:00.906250,-49.10
17:38:00.921875,-56.66
17:38:00.937500,-65.10
17:38:00.953125,-73.50
17:38:00.968750,-80.95
17:38:00.984375,-86.95
17:38:01,-91.60
17:38:01.015625,-95.58
17:38:01.031250,-99.93
17:38:01.046875,-105.63
17:38:01.062500,-113.18
17:38:01.078125,-122.25
17:38:01.093750,-131.48
17:38:01.109375,-138.62
17:38:01.125000,-141.07
17:38:01.140625,-136.59
17:38:01.156250,-124.12
17:38:01.171875,-104.16
17:38:01.187500,-78.73
17:38:01.203125,-50.69
17:38:01.218750,-22.87
17:38:01.234375,2.72
17:38:01.250000,25.18
17:38:01.265625,44.58
17:38:01.281250,61.41
17:38:01.296875,76.15
17:38:01.312500,88.94
17:38:01.328125,99.65
17:38:01.343750,108.11
17:38:01.359375,114.33
17:38:01.375000,118.62
17:38:01.390625,121.50
17:38:01.406250,123.54
17:38:01.421875,125.17
17:38:01.437500,126.64
17:38:01.453125,127.99
17:38:01.468750,129.22
17:38:01.484375,130.37
17:38:01.500000,131.61
17:38:01.515625,133.08
17:38:01.531250,134.86
17:38:01.546875,136.74
17:38:01.562500,138.30
17:38:01.578125,139.02
17:38:01.593750,138.44
17:38:01.609375,136.36
17:38:01.625000,132.86
17:38:01.640625,128.28
17:38:01.656250,123.00
17:38:01.671875,117.39
17:38:01.687500,111.60
17:38:01.703125,105.66
17:38:01.718750,99.52
17:38:01.734375,93.06
17:38:01.750000,86.25
17:38:01.765625,79.06
17:38:01.781250,71.50
17:38:01.796875,63.56
17:38:01.812500,55.31
17:38:01.828125,46.85
17:38:01.843750,38.31
17:38:01.859375,29.89
17:38:01.875000,21.68
17:38:01.890625,13.71
17:38:01.906250,5.89
17:38:01.921875,-1.91
17:38:01.937500,-9.82
17:38:01.953125,-17.86
17:38:01.968750,-25.89
17:38:01.984375,-33.65
17:38:02,-40.78
17:38:02.015625,-46.88
17:38:02.031250,-51.53
17:38:02.046875,-54.35
17:38:02.062500,-55.05
17:38:02.078125,-53.53
17:38:02.093750,-49.96
17:38:02.109375,-44.75
17:38:02.125000,-38.60
17:38:02.140625,-32.29
17:38:02.156250,-26.55
17:38:02.171875,-21.89
17:38:02.187500,-18.56
17:38:02.203125,-16.57
17:38:02.218750,-15.79
17:38:02.234375,-16.05
17:38:02.250000,-17.20
17:38:02.265625,-19.12
17:38:02.281250,-21.64
17:38:02.296875,-24.55
17:38:02.312500,-27.65
17:38:02.328125,-30.77
17:38:02.343750,-33.88
17:38:02.359375,-36.98
17:38:02.375000,-40.16
17:38:02.390625,-43.45
17:38:02.406250,-46.80
17:38:02.421875,-50.11
17:38:02.437500,-53.30
17:38:02.453125,-56.38
17:38:02.468750,-59.48
17:38:02.484375,-62.84
17:38:02.500000,-66.67
17:38:02.515625,-71.10
17:38:02.531250,-76.06
17:38:02.546875,-81.29
17:38:02.562500,-86.50
17:38:02.578125,-91.47
17:38:02.593750,-96.15
17:38:02.609375,-100.68
17:38:02.625000,-105.15
17:38:02.640625,-109.45
17:38:02.656250,-113.15
17:38:02.671875,-115.54
17:38:02.687500,-115.94
17:38:02.703125,-113.99
17:38:02.718750,-109.93
17:38:02.734375,-104.63
17:38:02.750000,-99.38
17:38:02.765625,-95.55
17:38:02.781250,-94.27
17:38:02.796875,-96.13
17:38:02.812500,-100.97
17:38:02.828125,-107.81
17:38:02.843750,-114.80
17:38:02.859375,-119.46
17:38:02.875000,-119.19
17:38:02.890625,-112.01
17:38:02.906250,-97.18
17:38:02.921875,-75.60
17:38:02.937500,-49.53
17:38:02.953125,-21.92
17:38:02.968750,4.49
17:38:02.984375,27.91
17:38:03,47.73
17:38:03.015625,64.26
17:38:03.031250,78.22
17:38:03.046875,90.27
17:38:03.062500,100.73
17:38:03.078125,109.60
17:38:03.093750,116.82
17:38:03.109375,122.36
17:38:03.125000,126.42
17:38:03.140625,129.30
17:38:03.156250,131.38
17:38:03.171875,132.96
17:38:03.187500,134.25
17:38:03.203125,135.31
17:38:03.218750,136.08
17:38:03.234375,136.38
17:38:03.250000,136.02
17:38:03.265625,134.83
17:38:03.281250,132.71
17:38:03.296875,129.68
17:38:03.312500,125.79
17:38:03.328125,121.12
17:38:03.343750,115.68
17:38:03.359375,109.42
17:38:03.375000,102.29
17:38:03.390625,94.24
17:38:03.406250,85.42
17:38:03.421875,76.06
17:38:03.437500,66.53
17:38:03.453125,57.11
17:38:03.468750,47.90
17:38:03.484375,38.73
17:38:03.500000,29.23
17:38:03.515625,18.91
17:38:03.531250,7.45
17:38:03.546875,-5.18
17:38:03.562500,-18.59
17:38:03.578125,-32.05
17:38:03.593750,-44.71
17:38:03.609375,-55.89
17:38:03.625000,-65.35
17:38:03.640625,-73.36
17:38:03.656250,-80.64
17:38:03.671875,-88.09
17:38:03.687500,-96.52
17:38:03.703125,-106.43
17:38:03.718750,-117.77
17:38:03.734375,-129.85
17:38:03.750000,-141.18
17:38:03.765625,-149.61
17:38:03.781250,-152.75
17:38:03.796875,-148.70
17:38:03.812500,-136.80
17:38:03.828125,-118.09
17:38:03.843750,-95.09
17:38:03.859375,-70.94
17:38:03.875000,-48.35
17:38:03.890625,-28.86
17:38:03.906250,-12.66
17:38:03.921875,0.85
17:38:03.937500,12.43
17:38:03.953125,22.35
17:38:03.968750,30.45
17:38:03.984375,36.36
17:38:04,39.99
17:38:04.015625,41.76
17:38:04.031250,42.40
17:38:04.046875,42.70
17:38:04.062500,43.17
17:38:04.078125,43.94
17:38:04.093750,44.85
17:38:04.109375,45.62
17:38:04.125000,46.09
17:38:04.140625,46.24
17:38:04.156250,46.16
17:38:04.171875,45.97
17:38:04.187500,45.71
17:38:04.203125,45.19
17:38:04.218750,44.11
17:38:04.234375,42.08
17:38:04.250000,38.79
17:38:04.265625,34.10
17:38:04.281250,28.16
17:38:04.296875,21.35
17:38:04.312500,14.21
17:38:04.328125,7.31
17:38:04.343750,1.08
17:38:04.359375,-4.26
17:38:04.375000,-8.80
17:38:04.390625,-12.86
17:38:04.406250,-16.88
17:38:04.421875,-21.26
17:38:04.437500,-26.16
17:38:04.453125,-31.54
17:38:04.468750,-37.09
17:38:04.484375,-42.41
17:38:04.500000,-47.17
17:38:04.515625,-51.25
17:38:04.531250,-54.86
17:38:04.546875,-58.41
17:38:04.562500,-62.46
17:38:04.578125,-67.50
17:38:04.593750,-73.89
17:38:04.609375,-81.61
17:38:04.625000,-90.20
17:38:04.640625,-98.56
17:38:04.656250,-105.01
17:38:04.671875,-107.54
17:38:04.687500,-104.35
17:38:04.703125,-94.48
17:38:04.718750,-78.22
17:38:04.734375,-57.14
17:38:04.750000,-33.65
17:38:04.765625,-10.23
17:38:04.781250,11.30
17:38:04.796875,30.14
17:38:04.812500,46.42
17:38:04.828125,60.78
17:38:04.843750,73.83
17:38:04.859375,85.82
17:38:04.875000,96.59
17:38:04.890625,105.83
17:38:04.906250,113.29
17:38:04.921875,118.94
17:38:04.937500,123.03
17:38:04.953125,125.89
17:38:04.968750,127.85
17:38:04.984375,129.12
17:38:05,129.79
17:38:05.015625,129.91
17:38:05.031250,129.55
17:38:05.046875,128.80
17:38:05.062500,127.78
17:38:05.078125,126.58
17:38:05.093750,125.13
17:38:05.109375,123.27
17:38:05.125000,120.70
17:38:05.140625,117.11
17:38:05.156250,112.30
17:38:05.171875,106.23
17:38:05.187500,99.12
17:38:05.203125,91.28
17:38:05.218750,83.05
17:38:05.234375,74.66
17:38:05.250000,66.10
17:38:05.265625,57.28
17:38:05.281250,48.07
17:38:05.296875,38.48
17:38:05.312500,28.75
17:38:05.328125,19.27
17:38:05.343750,10.42
17:38:05.359375,2.45
17:38:05.375000,-4.65
17:38:05.390625,-11.15
17:38:05.406250,-17.48
17:38:05.421875,-24.01
17:38:05.437500,-30.95
17:38:05.453125,-38.26
17:38:05.468750,-45.71
17:38:05.484375,-53.01
17:38:05.500000,-59.97
17:38:05.515625,-66.56
17:38:05.531250,-72.92
17:38:05.546875,-79.16
17:38:05.562500,-85.34
17:38:05.578125,-91.36
17:38:05.593750,-97.02
17:38:05.609375,-102.04
17:38:05.625000,-106.07
17:38:05.640625,-108.60
17:38:05.656250,-108.97
17:38:05.671875,-106.49
17:38:05.687500,-100.67
17:38:05.703125,-91.49
17:38:05.718750,-79.54
17:38:05.734375,-65.87
17:38:05.750000,-51.71
17:38:05.765625,-38.15
17:38:05.781250,-25.88
17:38:05.796875,-15.23
17:38:05.812500,-6.34
17:38:05.828125,0.67
17:38:05.843750,5.66
17:38:05.859375,8.55
17:38:05.875000,9.45
17:38:05.890625,8.75
17:38:05.906250,7.07
17:38:05.921875,5.10
17:38:05.937500,3.44
17:38:05.953125,2.52
17:38:05.968750,2.49
17:38:05.984375,3.24
17:38:06,4.46
17:38:06.015625,5.75
17:38:06.031250,6.75
17:38:06.046875,7.29
17:38:06.062500,7.38
17:38:06.078125,7.17
17:38:06.093750,6.79
17:38:06.109375,6.21
17:38:06.125000,5.27
17:38:06.140625,3.72
17:38:06.156250,1.44
17:38:06.171875,-1.49
17:38:06.187500,-4.74
17:38:06.203125,-7.85
17:38:06.218750,-10.46
17:38:06.234375,-12.44
17:38:06.250000,-14.01
17:38:06.265625,-15.61
17:38:06.281250,-17.77
17:38:06.296875,-20.87
17:38:06.312500,-24.97
17:38:06.328125,-29.79
17:38:06.343750,-34.74
17:38:06.359375,-39.25
17:38:06.375000,-42.93
17:38:06.390625,-45.84
17:38:06.406250,-48.47
17:38:06.421875,-51.61
17:38:06.437500,-56.05
17:38:06.453125,-62.28
17:38:06.468750,-70.27
17:38:06.484375,-79.25
17:38:06.500000,-87.75
17:38:06.515625,-93.74
17:38:06.531250,-95.10
17:38:06.546875,-90.22
17:38:06.562500,-78.53
17:38:06.578125,-60.87
17:38:06.593750,-39.31
17:38:06.609375,-16.56
17:38:06.625000,4.81
17:38:06.640625,23.04
17:38:06.656250,37.48
17:38:06.671875,48.36
17:38:06.687500,56.37
17:38:06.703125,62.19
17:38:06.718750,66.23
17:38:06.734375,68.72
17:38:06.750000,69.82
17:38:06.765625,69.85
17:38:06.781250,69.24
17:38:06.796875,68.44
17:38:06.812500,67.77
17:38:06.828125,67.27
17:38:06.843750,66.81
17:38:06.859375,66.16
17:38:06.875000,65.19
17:38:06.890625,63.88
17:38:06.906250,62.35
17:38:06.921875,60.72
17:38:06.937500,59.05
17:38:06.953125,57.26
17:38:06.968750,55.22
17:38:06.984375,52.78
17:38:07,49.83
17:38:07.015625,46.36
17:38:07.031250,42.39
17:38:07.046875,37.99
17:38:07.062500,33.27
17:38:07.078125,28.34
17:38:07.093750,23.34
17:38:07.109375,18.36
17:38:07.125000,13.50
17:38:07.140625,8.80
17:38:07.156250,4.19
17:38:07.171875,-0.40
17:38:07.187500,-5.14
17:38:07.203125,-10.14
17:38:07.218750,-15.45
17:38:07.234375,-20.99
17:38:07.250000,-26.57
17:38:07.265625,-31.97
17:38:07.281250,-37.04
17:38:07.296875,-41.76
17:38:07.312500,-46.33
17:38:07.328125,-51.09
17:38:07.343750,-56.42
17:38:07.359375,-62.71
17:38:07.375000,-70.13
17:38:07.390625,-78.56
17:38:07.406250,-87.33
17:38:07.421875,-95.10
17:38:07.437500,-100.01
17:38:07.453125,-100.08
17:38:07.468750,-93.93
17:38:07.484375,-81.38
17:38:07.500000,-63.72
17:38:07.515625,-43.31
17:38:07.531250,-22.86
17:38:07.546875,-4.51
17:38:07.562500,10.65
17:38:07.578125,22.58
17:38:07.593750,31.81
17:38:07.609375,38.90
17:38:07.625000,44.11
17:38:07.640625,47.43
17:38:07.656250,48.87
17:38:07.671875,48.70
17:38:07.687500,47.50
17:38:07.703125,46.05
17:38:07.718750,45.02
17:38:07.734375,44.76
17:38:07.750000,45.24
17:38:07.765625,46.12
17:38:07.781250,46.93
17:38:07.796875,47.32
17:38:07.812500,47.13
17:38:07.828125,46.49
17:38:07.843750,45.64
17:38:07.859375,44.77
17:38:07.875000,43.89
17:38:07.890625,42.73
17:38:07.906250,40.85
17:38:07.921875,37.89
17:38:07.937500,33.72
17:38:07.953125,28.56
17:38:07.968750,22.94
17:38:07.984375,17.46
17:38:08,12.62
17:38:08.015625,8.56
17:38:08.031250,5.09
17:38:08.046875,1.67
17:38:08.062500,-2.27
17:38:08.078125,-7.13
17:38:08.093750,-12.93
17:38:08.109375,-19.32
17:38:08.125000,-25.70
17:38:08.140625,-31.49
17:38:08.156250,-36.40
17:38:08.171875,-40.55
17:38:08.187500,-44.39
17:38:08.203125,-48.58
17:38:08.218750,-53.73
17:38:08.234375,-60.29
17:38:08.250000,-68.40
17:38:08.265625,-77.73
17:38:08.281250,-87.39
17:38:08.296875,-95.83
17:38:08.312500,-101.05
17:38:08.328125,-101.09
17:38:08.343750,-94.67
17:38:08.359375,-81.79
17:38:08.375000,-63.88
17:38:08.390625,-43.41
17:38:08.406250,-23.12
17:38:08.421875,-5.11
17:38:08.437500,9.62
17:38:08.453125,21.12
17:38:08.468750,30.03
17:38:08.484375,37.03
17:38:08.500000,42.42
17:38:08.515625,46.18
17:38:08.531250,48.25
17:38:08.546875,48.76
17:38:08.562500,48.21
17:38:08.578125,47.27
17:38:08.593750,46.53
17:38:08.609375,46.31
17:38:08.625000,46.58
17:38:08.640625,47.01
17:38:08.656250,47.25
17:38:08.671875,47.09
17:38:08.687500,46.54
17:38:08.703125,45.76
17:38:08.718750,44.94
17:38:08.734375,44.14
17:38:08.750000,43.15
17:38:08.765625,41.56
17:38:08.781250,38.94
17:38:08.796875,35.01
17:38:08.812500,29.84
17:38:08.828125,23.80
17:38:08.843750,17.49
17:38:08.859375,11.52
17:38:08.875000,6.24
17:38:08.890625,1.70
17:38:08.906250,-2.41
17:38:08.921875,-6.59
17:38:08.937500,-11.42
17:38:08.953125,-17.28
17:38:08.968750,-24.21
17:38:08.984375,-31.89
17:38:09,-39.74
17:38:09.015625,-47.18
17:38:09.031250,-53.87
17:38:09.046875,-59.84
17:38:09.062500,-65.53
17:38:09.078125,-71.58
17:38:09.093750,-78.61
17:38:09.109375,-87.08
17:38:09.125000,-97.08
17:38:09.140625,-108.26
17:38:09.156250,-119.69
17:38:09.171875,-129.92
17:38:09.187500,-137.01
17:38:09.203125,-139.04
17:38:09.218750,-134.66
17:38:09.234375,-123.62
17:38:09.250000,-107.01
17:38:09.265625,-86.95
17:38:09.281250,-65.94
17:38:09.296875,-46.04
17:38:09.312500,-28.35
17:38:09.328125,-12.91
17:38:09.343750,0.91
17:38:09.359375,13.82
17:38:09.375000,26.16
17:38:09.390625,37.78
17:38:09.406250,48.22
17:38:09.421875,57.10
17:38:09.437500,64.40
17:38:09.453125,70.45
17:38:09.468750,75.74
17:38:09.484375,80.66
17:38:09.500000,85.34
17:38:09.515625,89.63
17:38:09.531250,93.33
17:38:09.546875,96.30
17:38:09.562500,98.57
17:38:09.578125,100.32
17:38:09.593750,101.66
17:38:09.609375,102.57
17:38:09.625000,102.87
17:38:09.640625,102.30
17:38:09.656250,100.61
17:38:09.671875,97.71
17:38:09.687500,93.66
17:38:09.703125,88.65
17:38:09.718750,82.97
17:38:09.734375,76.94
17:38:09.750000,70.83
17:38:09.765625,64.89
17:38:09.781250,59.20
17:38:09.796875,53.71
17:38:09.812500,48.31
17:38:09.828125,42.78
17:38:09.843750,36.96
17:38:09.859375,30.73
17:38:09.875000,24.06
17:38:09.890625,17.00
17:38:09.906250,9.73
17:38:09.921875,2.46
17:38:09.937500,-4.56
17:38:09.953125,-11.16
17:38:09.968750,-17.40
17:38:09.984375,-23.58
17:38:10,-30.25
17:38:10.015625,-38.02
17:38:10.031250,-47.34
17:38:10.046875,-58.22
17:38:10.062500,-70.03
17:38:10.078125,-81.40
17:38:10.093750,-90.50
17:38:10.109375,-95.40
17:38:10.125000,-94.60
17:38:10.140625,-87.60
17:38:10.156250,-75.05
17:38:10.171875,-58.65
17:38:10.187500,-40.63
17:38:10.203125,-23.15
17:38:10.218750,-7.72
17:38:10.234375,4.98
17:38:10.250000,14.97
17:38:10.265625,22.61
17:38:10.281250,28.27
17:38:10.296875,32.15
17:38:10.312500,34.30
17:38:10.328125,34.86
17:38:10.343750,34.17
17:38:10.359375,32.80
17:38:10.375000,31.41
17:38:10.390625,30.52
17:38:10.406250,30.35
17:38:10.421875,30.75
17:38:10.437500,31.36
17:38:10.453125,31.82
17:38:10.468750,31.92
17:38:10.484375,31.76
17:38:10.500000,31.52
17:38:10.515625,31.38
17:38:10.531250,31.23
17:38:10.546875,30.74
17:38:10.562500,29.41
17:38:10.578125,26.87
17:38:10.593750,23.01
17:38:10.609375,18.09
17:38:10.625000,12.66
17:38:10.640625,7.28
17:38:10.656250,2.39
17:38:10.671875,-1.86
17:38:10.687500,-5.64
17:38:10.703125,-9.32
17:38:10.718750,-13.31
17:38:10.734375,-17.97
17:38:10.750000,-23.39
17:38:10.765625,-29.40
17:38:10.781250,-35.63
17:38:10.796875,-41.62
17:38:10.812500,-47.02
17:38:10.828125,-51.80
17:38:10.843750,-56.24
17:38:10.859375,-60.94
17:38:10.875000,-66.57
17:38:10.890625,-73.62
17:38:10.906250,-82.11
17:38:10.921875,-91.36
17:38:10.937500,-99.99
17:38:10.953125,-106.07
17:38:10.968750,-107.58
17:38:10.984375,-103.03
17:38:11,-91.98
17:38:11.015625,-75.26
17:38:11.031250,-54.80
17:38:11.046875,-33.08
17:38:11.062500,-12.40
17:38:11.078125,5.67
17:38:11.093750,20.54
17:38:11.109375,32.44
17:38:11.125000,41.97
17:38:11.140625,49.74
17:38:11.156250,56.05
17:38:11.171875,60.93
17:38:11.187500,64.32
17:38:11.203125,66.29
17:38:11.218750,67.14
17:38:11.234375,67.37
17:38:11.250000,67.50
17:38:11.265625,67.87
17:38:11.281250,68.59
17:38:11.296875,69.52
17:38:11.312500,70.36
17:38:11.328125,70.84
17:38:11.343750,70.75
17:38:11.359375,69.96
17:38:11.375000,68.43
17:38:11.390625,66.08
17:38:11.406250,62.85
17:38:11.421875,58.60
17:38:11.437500,53.21
17:38:11.453125,46.61
17:38:11.468750,38.85
17:38:11.484375,30.16
17:38:11.500000,20.94
17:38:11.515625,11.69
17:38:11.531250,2.93
17:38:11.546875,-4.98
17:38:11.562500,-11.96
17:38:11.578125,-18.25
17:38:11.593750,-24.32
17:38:11.609375,-30.72
17:38:11.625000,-37.83
17:38:11.640625,-45.73
17:38:11.656250,-54.15
17:38:11.671875,-62.53
17:38:11.687500,-70.26
17:38:11.703125,-76.91
17:38:11.718750,-82.40
17:38:11.734375,-87.06
17:38:11.750000,-91.56
17:38:11.765625,-96.75
17:38:11.781250,-103.41
17:38:11.796875,-111.97
17:38:11.812500,-122.28
17:38:11.828125,-133.31
17:38:11.843750,-143.11
17:38:11.859375,-149.13
17:38:11.875000,-148.81
17:38:11.890625,-140.50
17:38:11.906250,-124.07
17:38:11.921875,-101.17
17:38:11.937500,-74.67
17:38:11.953125,-47.77
17:38:11.968750,-23.02
17:38:11.984375,-1.73
17:38:12,16.06
17:38:12.015625,31.03
17:38:12.031250,43.99
17:38:12.046875,55.39
17:38:12.062500,65.26
17:38:12.078125,73.46
17:38:12.093750,79.89
17:38:12.109375,84.67
17:38:12.125000,88.06
17:38:12.140625,90.28
17:38:12.156250,91.48
17:38:12.171875,91.65
17:38:12.187500,90.86
17:38:12.203125,89.29
17:38:12.218750,87.33
17:38:12.234375,85.39
17:38:12.250000,83.75
17:38:12.265625,82.41
17:38:12.281250,81.09
17:38:12.296875,79.31
17:38:12.312500,76.67
17:38:12.328125,72.98
17:38:12.343750,68.29
17:38:12.359375,62.86
17:38:12.375000,57.02
17:38:12.390625,51.02
17:38:12.406250,45.00
17:38:12.421875,39.01
17:38:12.437500,33.03
17:38:12.453125,27.07
17:38:12.468750,21.16
17:38:12.484375,15.33
17:38:12.500000,9.57
17:38:12.515625,3.82
17:38:12.531250,-2.13
17:38:12.546875,-8.44
17:38:12.562500,-15.23
17:38:12.578125,-22.42
17:38:12.593750,-29.76
17:38:12.609375,-36.89
17:38:12.625000,-43.50
17:38:12.640625,-49.50
17:38:12.656250,-55.03
17:38:12.671875,-60.52
17:38:12.687500,-66.46
17:38:12.703125,-73.37
17:38:12.718750,-81.51
17:38:12.734375,-90.75
17:38:12.750000,-100.44
17:38:12.765625,-109.25
17:38:12.781250,-115.41
17:38:12.796875,-116.99
17:38:12.812500,-112.54
17:38:12.828125,-101.63
17:38:12.843750,-85.08
17:38:12.859375,-64.86
17:38:12.875000,-43.39
17:38:12.890625,-22.89
17:38:12.906250,-4.80
17:38:12.921875,10.41
17:38:12.937500,22.98
17:38:12.953125,33.39
17:38:12.968750,42.03
17:38:12.984375,49.01
17:38:13,54.30
17:38:13.015625,57.91
17:38:13.031250,60.08
17:38:13.046875,61.21
17:38:13.062500,61.74
17:38:13.078125,61.93
17:38:13.093750,61.90
17:38:13.109375,61.59
17:38:13.125000,60.96
17:38:13.140625,60.11
17:38:13.156250,59.24
17:38:13.171875,58.61
17:38:13.187500,58.33
17:38:13.203125,58.26
17:38:13.218750,58.05
17:38:13.234375,57.22
17:38:13.250000,55.37
17:38:13.265625,52.36
17:38:13.281250,48.34
17:38:13.296875,43.73
17:38:13.312500,39.00
17:38:13.328125,34.51
17:38:13.343750,30.40
17:38:13.359375,26.52
17:38:13.375000,22.57
17:38:13.390625,18.27
17:38:13.406250,13.48
17:38:13.421875,8.30
17:38:13.437500,3.04
17:38:13.453125,-2.00
17:38:13.468750,-6.65
17:38:13.484375,-11.02
17:38:13.500000,-15.40
17:38:13.515625,-20.10
17:38:13.531250,-25.33
17:38:13.546875,-31.03
17:38:13.562500,-36.91
17:38:13.578125,-42.61
17:38:13.593750,-47.91
17:38:13.609375,-52.80
17:38:13.625000,-57.53
17:38:13.640625,-62.59
17:38:13.656250,-68.50
17:38:13.671875,-75.72
17:38:13.687500,-84.36
17:38:13.703125,-94.00
17:38:13.718750,-103.50
17:38:13.734375,-111.01
17:38:13.750000,-114.36
17:38:13.765625,-111.71
17:38:13.781250,-102.21
17:38:13.796875,-86.46
17:38:13.812500,-66.40
17:38:13.828125,-44.66
17:38:13.843750,-23.76
17:38:13.859375,-5.35
17:38:13.875000,9.96
17:38:13.890625,22.42
17:38:13.906250,32.59
17:38:13.921875,40.88
17:38:13.937500,47.42
17:38:13.953125,52.16
17:38:13.968750,55.14
17:38:13.984375,56.64
17:38:14,57.20
17:38:14.015625,57.36
17:38:14.031250,57.52
17:38:14.046875,57.78
17:38:14.062500,58.06
17:38:14.078125,58.22
17:38:14.093750,58.22
17:38:14.109375,58.10
17:38:14.125000,57.96
17:38:14.140625,57.80
17:38:14.156250,57.48
17:38:14.171875,56.75
17:38:14.187500,55.39
17:38:14.203125,53.29
17:38:14.218750,50.51
17:38:14.234375,47.23
17:38:14.250000,43.63
17:38:14.265625,39.82
17:38:14.281250,35.83
17:38:14.296875,31.64
17:38:14.312500,27.20
17:38:14.328125,22.50
17:38:14.343750,17.63
17:38:14.359375,12.70
17:38:14.375000,7.88
17:38:14.390625,3.27
17:38:14.406250,-1.12
17:38:14.421875,-5.43
17:38:14.437500,-9.90
17:38:14.453125,-14.73
17:38:14.468750,-20.03
17:38:14.484375,-25.69
17:38:14.500000,-31.47
17:38:14.515625,-37.08
17:38:14.531250,-42.36
17:38:14.546875,-47.32
17:38:14.562500,-52.17
17:38:14.578125,-57.28
17:38:14.593750,-63.09
17:38:14.609375,-70.00
17:38:14.625000,-78.19
17:38:14.640625,-87.40
17:38:14.656250,-96.75
17:38:14.671875,-104.68
17:38:14.687500,-109.13
17:38:14.703125,-108.16
17:38:14.718750,-100.57
17:38:14.734375,-86.50
17:38:14.750000,-67.49
17:38:14.765625,-46.05
17:38:14.781250,-24.93
17:38:14.796875,-6.20
17:38:14.812500,9.16
17:38:14.828125,21.23
17:38:14.843750,30.69
17:38:14.859375,38.27
17:38:14.875000,44.37
17:38:14.890625,49.04
17:38:14.906250,52.20
17:38:14.921875,53.94
17:38:14.937500,54.61
17:38:14.953125,54.77
17:38:14.968750,54.89
17:38:14.984375,55.22
17:38:15,55.71
17:38:15.015625,56.10
17:38:15.031250,56.21
17:38:15.046875,55.96
17:38:15.062500,55.45
17:38:15.078125,54.87
17:38:15.093750,54.28
17:38:15.109375,53.58
17:38:15.125000,52.51
17:38:15.140625,50.79
17:38:15.156250,48.25
17:38:15.171875,44.95
17:38:15.187500,41.12
17:38:15.203125,37.07
17:38:15.218750,33.05
17:38:15.234375,29.10
17:38:15.250000,25.13
17:38:15.265625,20.96
17:38:15.281250,16.50
17:38:15.296875,11.73
17:38:15.312500,6.79
17:38:15.328125,1.86
17:38:15.343750,-2.93
17:38:15.359375,-7.57
17:38:15.375000,-12.18
17:38:15.390625,-16.96
17:38:15.406250,-22.05
17:38:15.421875,-27.48
17:38:15.437500,-33.10
17:38:15.453125,-38.60
17:38:15.468750,-43.72
17:38:15.484375,-48.36
17:38:15.500000,-52.72
17:38:15.515625,-57.30
17:38:15.531250,-62.75
17:38:15.546875,-69.66
17:38:15.562500,-78.24
17:38:15.578125,-88.04
17:38:15.593750,-97.84
17:38:15.609375,-105.78
17:38:15.625000,-109.72
17:38:15.640625,-107.87
17:38:15.656250,-99.40
17:38:15.671875,-84.82
17:38:15.687500,-65.88
17:38:15.703125,-45.06
17:38:15.718750,-24.88
17:38:15.734375,-7.13
17:38:15.750000,7.38
17:38:15.765625,18.81
17:38:15.781250,27.80
17:38:15.796875,35.05
17:38:15.812500,40.97
17:38:15.828125,45.66
17:38:15.843750,49.07
17:38:15.859375,51.24
17:38:15.875000,52.38
17:38:15.890625,52.86
17:38:15.906250,53.01
17:38:15.921875,53.02
17:38:15.937500,52.91
17:38:15.953125,52.63
17:38:15.968750,52.17
17:38:15.984375,51.65
17:38:16,51.22
17:38:16.015625,50.98
17:38:16.031250,50.83
17:38:16.046875,50.45
17:38:16.062500,49.44
17:38:16.078125,47.45
17:38:16.093750,44.41
17:38:16.109375,40.52
17:38:16.125000,36.15
17:38:16.140625,31.71
17:38:16.156250,27.43
17:38:16.171875,23.40
17:38:16.187500,19.52
17:38:16.203125,15.63
17:38:16.218750,11.63
17:38:16.234375,7.52
17:38:16.250000,3.38
17:38:16.265625,-0.66
17:38:16.281250,-4.53
17:38:16.296875,-8.25
17:38:16.312500,-11.95
17:38:16.328125,-15.82
17:38:16.343750,-20.00
17:38:16.359375,-24.58
17:38:16.375000,-29.46
17:38:16.390625,-34.42
17:38:16.406250,-39.20
17:38:16.421875,-43.64
17:38:16.437500,-47.77
17:38:16.453125,-51.88
17:38:16.468750,-56.46
17:38:16.484375,-62.11
17:38:16.500000,-69.31
17:38:16.515625,-78.14
17:38:16.531250,-88.04
17:38:16.546875,-97.67
17:38:16.562500,-105.08
17:38:16.578125,-108.12
17:38:16.593750,-105.11
17:38:16.609375,-95.42
17:38:16.625000,-79.82
17:38:16.640625,-60.27
17:38:16.656250,-39.31
17:38:16.671875,-19.31
17:38:16.687500,-1.86
17:38:16.703125,12.48
17:38:16.718750,23.96
17:38:16.734375,33.19
17:38:16.750000,40.75
17:38:16.765625,46.93
17:38:16.781250,51.79
17:38:16.796875,55.31
17:38:16.812500,57.52
17:38:16.828125,58.68
17:38:16.843750,59.15
17:38:16.859375,59.33
17:38:16.875000,59.54
17:38:16.890625,59.92
17:38:16.906250,60.44
17:38:16.921875,60.91
17:38:16.937500,61.16
17:38:16.953125,61.10
17:38:16.968750,60.74
17:38:16.984375,60.15
17:38:17,59.39
17:38:17.015625,58.35
17:38:17.031250,56.82
17:38:17.046875,54.51
17:38:17.062500,51.31
17:38:17.078125,47.30
17:38:17.093750,42.82
17:38:17.109375,38.27
17:38:17.125000,33.94
17:38:17.140625,29.87
17:38:17.156250,25.85
17:38:17.171875,21.58
17:38:17.187500,16.88
17:38:17.203125,11.86
17:38:17.218750,6.86
17:38:17.234375,2.25
17:38:17.250000,-1.81
17:38:17.265625,-5.47
17:38:17.281250,-9.20
17:38:17.296875,-13.50
17:38:17.312500,-18.68
17:38:17.328125,-24.62
17:38:17.343750,-30.89
17:38:17.359375,-36.89
17:38:17.375000,-42.22
17:38:17.390625,-46.81
17:38:17.406250,-51.02
17:38:17.421875,-55.48
17:38:17.437500,-60.88
17:38:17.453125,-67.74
17:38:17.468750,-76.16
17:38:17.484375,-85.68
17:38:17.500000,-95.17
17:38:17.515625,-102.94
17:38:17.531250,-107.00
17:38:17.546875,-105.64
17:38:17.562500,-97.96
17:38:17.578125,-84.22
17:38:17.593750,-65.95
17:38:17.609375,-45.45
17:38:17.625000,-25.18
17:38:17.640625,-7.04
17:38:17.656250,8.00
17:38:17.671875,19.87
17:38:17.687500,29.10
17:38:17.703125,36.30
17:38:17.718750,41.92
17:38:17.734375,46.10
17:38:17.750000,48.92
17:38:17.765625,50.48
17:38:17.781250,51.10
17:38:17.796875,51.24
17:38:17.812500,51.31
17:38:17.828125,51.58
17:38:17.843750,52.04
17:38:17.859375,52.53
17:38:17.875000,52.88
17:38:17.890625,53.02
17:38:17.906250,53.00
17:38:17.921875,52.88
17:38:17.937500,52.66
17:38:17.953125,52.21
17:38:17.968750,51.27
17:38:17.984375,49.60
17:38:18,47.10
17:38:18.015625,43.82
17:38:18.031250,40.01
17:38:18.046875,35.91
17:38:18.062500,31.71
17:38:18.078125,27.45
17:38:18.093750,23.10
17:38:18.109375,18.61
17:38:18.125000,14.01
17:38:18.140625,9.44
17:38:18.156250,5.04
17:38:18.171875,0.90
17:38:18.187500,-3.07
17:38:18.203125,-7.07
17:38:18.218750,-11.43
17:38:18.234375,-16.33
17:38:18.250000,-21.81
17:38:18.265625,-27.64
17:38:18.281250,-33.48
17:38:18.296875,-39.00
17:38:18.312500,-43.97
17:38:18.328125,-48.46
17:38:18.343750,-52.77
17:38:18.359375,-57.46
17:38:18.375000,-63.14
17:38:18.390625,-70.33
17:38:18.406250,-79.16
17:38:18.421875,-89.10
17:38:18.437500,-98.84
17:38:18.453125,-106.41
17:38:18.468750,-109.64
17:38:18.484375,-106.77
17:38:18.500000,-97.15
17:38:18.515625,-81.51
17:38:18.531250,-61.84
17:38:18.546875,-40.76
17:38:18.562500,-20.73
17:38:18.578125,-3.39
17:38:18.593750,10.67
17:38:18.609375,21.69
17:38:18.625000,30.31
17:38:18.640625,37.11
17:38:18.656250,42.45
17:38:18.671875,46.41
17:38:18.687500,49.08
17:38:18.703125,50.67
17:38:18.718750,51.52
17:38:18.734375,52.04
17:38:18.750000,52.52
17:38:18.765625,53.06
17:38:18.781250,53.58
17:38:18.796875,53.94
17:38:18.812500,54.03
17:38:18.828125,53.93
17:38:18.843750,53.76
17:38:18.859375,53.66
17:38:18.875000,53.56
17:38:18.890625,53.26
17:38:18.906250,52.39
17:38:18.921875,50.64
17:38:18.937500,47.94
17:38:18.953125,44.47
17:38:18.968750,40.61
17:38:18.984375,36.76
17:38:19,33.10
17:38:19.015625,29.58
17:38:19.031250,25.94
17:38:19.046875,21.94
17:38:19.062500,17.50
17:38:19.078125,12.78
17:38:19.093750,8.07
17:38:19.109375,3.63
17:38:19.125000,-0.49
17:38:19.140625,-4.48
17:38:19.156250,-8.71
17:38:19.171875,-13.48
17:38:19.187500,-18.90
17:38:19.203125,-24.78
17:38:19.218750,-30.70
17:38:19.234375,-36.22
17:38:19.250000,-41.10
17:38:19.265625,-45.43
17:38:19.281250,-49.64
17:38:19.296875,-54.37
17:38:19.312500,-60.31
17:38:19.328125,-67.88
17:38:19.343750,-77.11
17:38:19.359375,-87.42
17:38:19.375000,-97.52
17:38:19.390625,-105.50
17:38:19.406250,-109.20
17:38:19.421875,-106.78
17:38:19.437500,-97.39
17:38:19.453125,-81.63
17:38:19.468750,-61.44
17:38:19.484375,-39.60
17:38:19.500000,-18.80
17:38:19.515625,-0.90
17:38:19.531250,13.43
17:38:19.546875,24.57
17:38:19.562500,33.35
17:38:19.578125,40.56
17:38:19.593750,46.59
17:38:19.609375,51.46
17:38:19.625000,55.08
17:38:19.640625,57.50
17:38:19.656250,58.95
17:38:19.671875,59.75
17:38:19.687500,60.18
17:38:19.703125,60.35
17:38:19.718750,60.24
17:38:19.734375,59.80
17:38:19.750000,59.09
17:38:19.765625,58.27
17:38:19.781250,57.54
17:38:19.796875,56.96
17:38:19.812500,56.45
17:38:19.828125,55.71
17:38:19.843750,54.41
17:38:19.859375,52.33
17:38:19.875000,49.43
17:38:19.890625,45.86
17:38:19.906250,41.84
17:38:19.921875,37.57
17:38:19.937500,33.17
17:38:19.953125,28.67
17:38:19.968750,24.09
17:38:19.984375,19.45
17:38:20,14.82
17:38:20.015625,10.26
17:38:20.031250,5.78
17:38:20.046875,1.27
17:38:20.062500,-3.41
17:38:20.078125,-8.39
17:38:20.093750,-13.69
17:38:20.109375,-19.26
17:38:20.125000,-24.90
17:38:20.140625,-30.40
17:38:20.156250,-35.64
17:38:20.171875,-40.52
17:38:20.187500,-45.14
17:38:20.203125,-49.67
17:38:20.218750,-54.43
17:38:20.234375,-59.80
17:38:20.250000,-66.21
17:38:20.265625,-73.97
17:38:20.281250,-83.05
17:38:20.296875,-92.83
17:38:20.312500,-101.93
17:38:20.328125,-108.37
17:38:20.343750,-110.04
17:38:20.359375,-105.38
17:38:20.375000,-94.01
17:38:20.390625,-76.97
17:38:20.406250,-56.50
17:38:20.421875,-35.29
17:38:20.437500,-15.70
17:38:20.453125,0.86
17:38:20.468750,14.07
17:38:20.484375,24.42
17:38:20.500000,32.75
17:38:20.515625,39.72
17:38:20.531250,45.60
17:38:20.546875,50.34
17:38:20.562500,53.77
17:38:20.578125,55.84
17:38:20.593750,56.74
17:38:20.609375,56.85
17:38:20.625000,56.60
17:38:20.640625,56.32
17:38:20.656250,56.17
17:38:20.671875,56.15
17:38:20.687500,56.22
17:38:20.703125,56.31
17:38:20.718750,56.38
17:38:20.734375,56.36
17:38:20.750000,56.07
17:38:20.765625,55.28
17:38:20.781250,53.74
17:38:20.796875,51.32
17:38:20.812500,48.08
17:38:20.828125,44.25
17:38:20.843750,40.17
17:38:20.859375,36.13
17:38:20.875000,32.29
17:38:20.890625,28.62
17:38:20.906250,24.94
17:38:20.921875,21.00
17:38:20.937500,16.66
17:38:20.953125,11.94
17:38:20.968750,7.05
17:38:20.984375,2.28
17:38:21,-2.20
17:38:21.015625,-6.42
17:38:21.031250,-10.65
17:38:21.046875,-15.28
17:38:21.062500,-20.53
17:38:21.078125,-26.33
17:38:21.093750,-32.32
17:38:21.109375,-38.05
17:38:21.125000,-43.16
17:38:21.140625,-47.67
17:38:21.156250,-51.98
17:38:21.171875,-56.71
17:38:21.187500,-62.51
17:38:21.203125,-69.79
17:38:21.218750,-78.50
17:38:21.234375,-88.03
17:38:21.250000,-97.13
17:38:21.265625,-104.06
17:38:21.281250,-106.87
17:38:21.296875,-103.98
17:38:21.312500,-94.67
17:38:21.328125,-79.50
17:38:21.343750,-60.23
17:38:21.359375,-39.36
17:38:21.375000,-19.35
17:38:21.390625,-1.97
17:38:21.406250,12.03
17:38:21.421875,22.81
17:38:21.437500,31.00
17:38:21.453125,37.29
17:38:21.468750,42.11
17:38:21.484375,45.71
17:38:21.500000,48.20
17:38:21.515625,49.73
17:38:21.531250,50.54
17:38:21.546875,50.88
17:38:21.562500,50.94
17:38:21.578125,50.83
17:38:21.593750,50.57
17:38:21.609375,50.18
17:38:21.625000,49.74
17:38:21.640625,49.33
17:38:21.656250,49.05
17:38:21.671875,48.92
17:38:21.687500,48.90
17:38:21.703125,48.81
17:38:21.718750,48.39
17:38:21.734375,47.37
17:38:21.750000,45.56
17:38:21.765625,42.97
17:38:21.781250,39.77
17:38:21.796875,36.22
17:38:21.812500,32.55
17:38:21.828125,28.82
17:38:21.843750,24.95
17:38:21.859375,20.78
17:38:21.875000,16.26
17:38:21.890625,11.48
17:38:21.906250,6.64
17:38:21.921875,1.97
17:38:21.937500,-2.49
17:38:21.953125,-6.85
17:38:21.968750,-11.34
17:38:21.984375,-16.19
17:38:22,-21.44
17:38:22.015625,-26.93
17:38:22.031250,-32.41
17:38:22.046875,-37.64
17:38:22.062500,-42.51
17:38:22.078125,-47.10
17:38:22.093750,-51.68
17:38:22.109375,-56.61
17:38:22.125000,-62.27
17:38:22.140625,-69.01
17:38:22.156250,-76.95
17:38:22.171875,-85.83
17:38:22.187500,-94.74
17:38:22.203125,-102.07
17:38:22.218750,-105.81
17:38:22.234375,-104.03
17:38:22.250000,-95.68
17:38:22.265625,-81.03
17:38:22.281250,-61.78
17:38:22.296875,-40.57
17:38:22.312500,-20.12
17:38:22.328125,-2.41
17:38:22.343750,11.70
17:38:22.359375,22.44
17:38:22.375000,30.62
17:38:22.390625,37.11
17:38:22.406250,42.44
17:38:22.421875,46.75
17:38:22.437500,49.99
17:38:22.453125,52.11
17:38:22.468750,53.26
17:38:22.484375,53.71
17:38:22.500000,53.81
17:38:22.515625,53.84
17:38:22.531250,53.92
17:38:22.546875,54.03
17:38:22.562500,54.09
17:38:22.578125,53.99
17:38:22.593750,53.73
17:38:22.609375,53.37
17:38:22.625000,52.97
17:38:22.640625,52.45
17:38:22.656250,51.58
17:38:22.671875,50.04
17:38:22.687500,47.60
17:38:22.703125,44.24
17:38:22.718750,40.22
17:38:22.734375,35.95
17:38:22.750000,31.81
17:38:22.765625,27.96
17:38:22.781250,24.34
17:38:22.796875,20.69
17:38:22.812500,16.80
17:38:22.828125,12.56
17:38:22.843750,8.07
17:38:22.859375,3.49
17:38:22.875000,-1.02
17:38:22.890625,-5.44
17:38:22.906250,-9.90
17:38:22.921875,-14.60
17:38:22.937500,-19.71
17:38:22.953125,-25.24
17:38:22.968750,-31.06
17:38:22.984375,-36.84
17:38:23,-42.28
17:38:23.015625,-47.18
17:38:23.031250,-51.60
17:38:23.046875,-55.91
17:38:23.062500,-60.69
17:38:23.078125,-66.54
17:38:23.093750,-73.92
17:38:23.109375,-82.81
17:38:23.125000,-92.51
17:38:23.140625,-101.57
17:38:23.156250,-107.99
17:38:23.171875,-109.66
17:38:23.187500,-105.07
17:38:23.203125,-93.85
17:38:23.218750,-77.06
17:38:23.234375,-56.85
17:38:23.250000,-35.84
17:38:23.265625,-16.31
17:38:23.281250,0.33
17:38:23.296875,13.67
17:38:23.312500,24.05
17:38:23.328125,32.16
17:38:23.343750,38.60
17:38:23.359375,43.79
17:38:23.375000,47.92
17:38:23.390625,51.08
17:38:23.406250,53.35
17:38:23.421875,54.82
17:38:23.437500,55.63
17:38:23.453125,55.94
17:38:23.468750,55.93
17:38:23.484375,55.78
17:38:23.500000,55.66
17:38:23.515625,55.66
17:38:23.531250,55.77
17:38:23.546875,55.88
17:38:23.562500,55.81
17:38:23.578125,55.34
17:38:23.593750,54.28
17:38:23.609375,52.52
17:38:23.625000,50.04
17:38:23.640625,46.98
17:38:23.656250,43.52
17:38:23.671875,39.87
17:38:23.687500,36.13
17:38:23.703125,32.29
17:38:23.718750,28.27
17:38:23.734375,23.95
17:38:23.750000,19.33
17:38:23.765625,14.52
17:38:23.781250,9.74
17:38:23.796875,5.26
17:38:23.812500,1.20
17:38:23.828125,-2.52
17:38:23.843750,-6.17
17:38:23.859375,-10.10
17:38:23.875000,-14.57
17:38:23.890625,-19.64
17:38:23.906250,-25.12
17:38:23.921875,-30.70
17:38:23.937500,-36.06
17:38:23.953125,-41.03
17:38:23.968750,-45.70
17:38:23.984375,-50.38
17:38:24,-55.50
17:38:24.015625,-61.54
17:38:24.031250,-68.84
17:38:24.046875,-77.43
17:38:24.062500,-86.86
17:38:24.078125,-96.04
17:38:24.093750,-103.30
17:38:24.109375,-106.71
17:38:24.125000,-104.56
17:38:24.140625,-96.03
17:38:24.156250,-81.57
17:38:24.171875,-62.87
17:38:24.187500,-42.41
17:38:24.203125,-22.67
17:38:24.218750,-5.40
17:38:24.234375,8.69
17:38:24.250000,19.83
17:38:24.265625,28.72
17:38:24.281250,36.01
17:38:24.296875,42.01
17:38:24.312500,46.69
17:38:24.328125,49.96
17:38:24.343750,51.85
17:38:24.359375,52.73
17:38:24.375000,53.19
17:38:24.390625,53.82
17:38:24.406250,55.02
17:38:24.421875,56.92
17:38:24.437500,59.33
17:38:24.453125,61.99
17:38:24.468750,64.68
17:38:24.484375,67.36
17:38:24.500000,70.13
17:38:24.515625,73.07
17:38:24.531250,76.10
17:38:24.546875,78.91
17:38:24.562500,80.98
17:38:24.578125,81.87
17:38:24.593750,81.41
17:38:24.609375,79.83
17:38:24.625000,77.64
17:38:24.640625,75.40
17:38:24.656250,73.36
17:38:24.671875,71.30
17:38:24.687500,68.52
17:38:24.703125,64.08
17:38:24.718750,57.09
17:38:24.734375,47.06
17:38:24.750000,34.08
17:38:24.765625,18.83
17:38:24.781250,2.38
17:38:24.796875,-14.08
17:38:24.812500,-29.62
17:38:24.828125,-43.73
17:38:24.843750,-56.47
17:38:24.859375,-68.34
17:38:24.875000,-79.99
17:38:24.890625,-92.05
17:38:24.906250,-104.86
17:38:24.921875,-118.47
17:38:24.937500,-132.40
17:38:24.953125,-145.54
17:38:24.968750,-156.02
17:38:24.984375,-161.47
17:38:25,-159.62
17:38:25.015625,-149.17
17:38:25.031250,-130.58
17:38:25.046875,-106.13
17:38:25.062500,-79.40
17:38:25.078125,-54.02
17:38:25.093750,-32.55
17:38:25.109375,-15.84
17:38:25.125000,-3.31
17:38:25.140625,6.27
17:38:25.156250,13.91
17:38:25.171875,19.86
17:38:25.187500,23.80
17:38:25.203125,25.34
17:38:25.218750,24.52
17:38:25.234375,21.95
17:38:25.250000,18.60
17:38:25.265625,15.41
17:38:25.281250,12.87
17:38:25.296875,11.03
17:38:25.312500,9.58
17:38:25.328125,8.19
17:38:25.343750,6.67
17:38:25.359375,5.03
17:38:25.375000,3.38
17:38:25.390625,1.75
17:38:25.406250,0.04
17:38:25.421875,-2.04
17:38:25.437500,-4.78
17:38:25.453125,-8.32
17:38:25.468750,-12.55
17:38:25.484375,-17.05
17:38:25.500000,-21.26
17:38:25.515625,-24.57
17:38:25.531250,-26.60
17:38:25.546875,-27.25
17:38:25.562500,-26.80
17:38:25.578125,-25.77
17:38:25.593750,-24.81
17:38:25.609375,-24.52
17:38:25.625000,-25.29
17:38:25.640625,-27.25
17:38:25.656250,-30.29
17:38:25.671875,-34.03
17:38:25.687500,-38.01
17:38:25.703125,-41.79
17:38:25.718750,-45.05
17:38:25.734375,-47.74
17:38:25.750000,-50.12
17:38:25.765625,-52.64
17:38:25.781250,-55.94
17:38:25.796875,-60.63
17:38:25.812500,-67.10
17:38:25.828125,-75.27
17:38:25.843750,-84.33
17:38:25.859375,-92.66
17:38:25.875000,-98.07
17:38:25.890625,-98.21
17:38:25.906250,-91.38
17:38:25.921875,-77.09
17:38:25.937500,-56.34
17:38:25.953125,-31.40
17:38:25.968750,-5.09
17:38:25.984375,20.07
17:38:26,42.47
17:38:26.015625,61.62
17:38:26.031250,77.81
17:38:26.046875,91.66
17:38:26.062500,103.67
17:38:26.078125,114.04
17:38:26.093750,122.74
17:38:26.109375,129.72
17:38:26.125000,135.14
17:38:26.140625,139.31
17:38:26.156250,142.66
17:38:26.171875,145.55
17:38:26.187500,148.14
17:38:26.203125,150.37
17:38:26.218750,152.05
17:38:26.234375,153.05
17:38:26.250000,153.37
17:38:26.265625,153.15
17:38:26.281250,152.55
17:38:26.296875,151.64
17:38:26.312500,150.21
17:38:26.328125,147.85
17:38:26.343750,144.09
17:38:26.359375,138.60
17:38:26.375000,131.38
17:38:26.390625,122.75
17:38:26.406250,113.24
17:38:26.421875,103.27
17:38:26.437500,93.00
17:38:26.453125,82.24
17:38:26.468750,70.64
17:38:26.484375,57.92
17:38:26.500000,44.13
17:38:26.515625,29.69
17:38:26.531250,15.28
17:38:26.546875,1.51
17:38:26.562500,-11.31
17:38:26.578125,-23.27
17:38:26.593750,-34.72
17:38:26.609375,-46.00
17:38:26.625000,-57.20
17:38:26.640625,-68.05
17:38:26.656250,-78.08
17:38:26.671875,-86.95
17:38:26.687500,-94.66
17:38:26.703125,-101.62
17:38:26.718750,-108.51
17:38:26.734375,-115.98
17:38:26.750000,-124.45
17:38:26.765625,-134.10
17:38:26.781250,-144.81
17:38:26.796875,-156.16
17:38:26.812500,-167.24
17:38:26.828125,-176.44
17:38:26.843750,-181.70
17:38:26.859375,-181.02
17:38:26.875000,-173.32
17:38:26.890625,-159.02
17:38:26.906250,-140.14
17:38:26.921875,-119.60
17:38:26.937500,-100.13
17:38:26.953125,-83.34
17:38:26.968750,-69.39
17:38:26.984375,-57.48
17:38:27,-46.58
17:38:27.015625,-36.21
17:38:27.031250,-26.55
17:38:27.046875,-18.14
17:38:27.062500,-11.30
17:38:27.078125,-5.82
17:38:27.093750,-1.00
17:38:27.109375,3.94
17:38:27.125000,9.47
17:38:27.140625,15.60
17:38:27.156250,21.91
17:38:27.171875,27.89
17:38:27.187500,33.22
17:38:27.203125,37.93
17:38:27.218750,42.24
17:38:27.234375,46.42
17:38:27.250000,50.50
17:38:27.265625,54.27
17:38:27.281250,57.33
17:38:27.296875,59.31
17:38:27.312500,60.03
17:38:27.328125,59.63
17:38:27.343750,58.51
17:38:27.359375,57.16
17:38:27.375000,55.98
17:38:27.390625,55.18
17:38:27.406250,54.67
17:38:27.421875,54.17
17:38:27.437500,53.34
17:38:27.453125,51.96
17:38:27.468750,50.01
17:38:27.484375,47.73
17:38:27.500000,45.42
17:38:27.515625,43.28
17:38:27.531250,41.30
17:38:27.546875,39.25
17:38:27.562500,36.84
17:38:27.578125,33.85
17:38:27.593750,30.34
17:38:27.609375,26.57
17:38:27.625000,22.92
17:38:27.640625,19.69
17:38:27.656250,16.95
17:38:27.671875,14.45
17:38:27.687500,11.76
17:38:27.703125,8.34
17:38:27.718750,3.73
17:38:27.734375,-2.22
17:38:27.750000,-9.17
17:38:27.765625,-16.18
17:38:27.781250,-21.69
17:38:27.796875,-23.96
17:38:27.812500,-21.50
17:38:27.828125,-13.69
17:38:27.843750,-1.09
17:38:27.859375,14.61
17:38:27.875000,31.17
17:38:27.890625,46.45
17:38:27.906250,59.01
17:38:27.921875,68.39
17:38:27.937500,74.92
17:38:27.953125,79.27
17:38:27.968750,82.08
17:38:27.984375,83.66
17:38:28,84.05
17:38:28.015625,83.17
17:38:28.031250,80.90
17:38:28.046875,77.19
17:38:28.062500,71.94
17:38:28.078125,65.04
17:38:28.093750,56.52
17:38:28.109375,46.66
17:38:28.125000,36.17
17:38:28.140625,26.15
17:38:28.156250,17.82
17:38:28.171875,12.18
17:38:28.187500,9.56
17:38:28.203125,9.55
17:38:28.218750,11.07
17:38:28.234375,12.76
17:38:28.250000,13.36
17:38:28.265625,12.02
17:38:28.281250,8.44
17:38:28.296875,2.82
17:38:28.312500,-4.41
17:38:28.328125,-12.71
17:38:28.343750,-21.61
17:38:28.359375,-30.81
17:38:28.375000,-40.12
17:38:28.390625,-49.37
17:38:28.406250,-58.32
17:38:28.421875,-66.72
17:38:28.437500,-74.33
17:38:28.453125,-81.09
17:38:28.468750,-87.18
17:38:28.484375,-92.99
17:38:28.500000,-98.96
17:38:28.515625,-105.45
17:38:28.531250,-112.50
17:38:28.546875,-119.83
17:38:28.562500,-126.90
17:38:28.578125,-133.11
17:38:28.593750,-138.00
17:38:28.609375,-141.38
17:38:28.625000,-143.39
17:38:28.640625,-144.42
17:38:28.656250,-145.06
17:38:28.671875,-145.94
17:38:28.687500,-147.51
17:38:28.703125,-149.73
17:38:28.718750,-151.83
17:38:28.734375,-152.26
17:38:28.750000,-149.01
17:38:28.765625,-140.17
17:38:28.781250,-124.73
17:38:28.796875,-103.07
17:38:28.812500,-77.02
17:38:28.828125,-49.31
17:38:28.843750,-22.73
17:38:28.859375,0.66
17:38:28.875000,19.93
17:38:28.890625,35.13
17:38:28.906250,46.89
17:38:28.921875,55.84
17:38:28.937500,62.47
17:38:28.953125,67.07
17:38:28.968750,70.03
17:38:28.984375,71.91
17:38:29,73.47
17:38:29.015625,75.44
17:38:29.031250,78.27
17:38:29.046875,82.01
17:38:29.062500,86.28
17:38:29.078125,90.54
17:38:29.093750,94.26
17:38:29.109375,97.22
17:38:29.125000,99.45
17:38:29.140625,101.20
17:38:29.156250,102.67
17:38:29.171875,103.90
17:38:29.187500,104.76
17:38:29.203125,104.98
17:38:29.218750,104.40
17:38:29.234375,102.98
17:38:29.250000,100.83
17:38:29.265625,98.10
17:38:29.281250,94.90
17:38:29.296875,91.27
17:38:29.312500,87.18
17:38:29.328125,82.70
17:38:29.343750,77.92
17:38:29.359375,73.01
17:38:29.375000,68.03
17:38:29.390625,63.00
17:38:29.406250,57.77
17:38:29.421875,52.15
17:38:29.437500,46.03
17:38:29.453125,39.40
17:38:29.468750,32.40
17:38:29.484375,25.20
17:38:29.500000,18.02
17:38:29.515625,10.95
17:38:29.531250,4.02
17:38:29.546875,-2.86
17:38:29.562500,-9.89
17:38:29.578125,-17.34
17:38:29.593750,-25.51
17:38:29.609375,-34.61
17:38:29.625000,-44.54
17:38:29.640625,-54.66
17:38:29.656250,-63.70
17:38:29.671875,-69.95
17:38:29.687500,-71.77
17:38:29.703125,-68.12
17:38:29.718750,-59.06
17:38:29.734375,-45.75
17:38:29.750000,-30.07
17:38:29.765625,-13.93
17:38:29.781250,1.26
17:38:29.796875,14.75
17:38:29.812500,26.28
17:38:29.828125,35.69
17:38:29.843750,42.65
17:38:29.859375,46.63
17:38:29.875000,47.24
17:38:29.890625,44.50
17:38:29.906250,38.98
17:38:29.921875,31.70
17:38:29.937500,23.77
17:38:29.953125,16.03
17:38:29.968750,8.87
17:38:29.984375,2.26
17:38:30,-4.09
17:38:30.015625,-10.46
17:38:30.031250,-16.91
17:38:30.046875,-23.28
17:38:30.062500,-29.25
17:38:30.078125,-34.53
17:38:30.093750,-39.00
17:38:30.109375,-42.78
17:38:30.125000,-46.18
17:38:30.140625,-49.55
17:38:30.156250,-53.09
17:38:30.171875,-56.73
17:38:30.187500,-60.15
17:38:30.203125,-62.82
17:38:30.218750,-64.27
17:38:30.234375,-64.19
17:38:30.250000,-62.66
17:38:30.265625,-60.06
17:38:30.281250,-57.02
17:38:30.296875,-54.16
17:38:30.312500,-51.88
17:38:30.328125,-50.31
17:38:30.343750,-49.31
17:38:30.359375,-48.70
17:38:30.375000,-48.46
17:38:30.390625,-48.78
17:38:30.406250,-50.09
17:38:30.421875,-52.91
17:38:30.437500,-57.66
17:38:30.453125,-64.61
17:38:30.468750,-73.67
17:38:30.484375,-84.24
17:38:30.500000,-95.11
17:38:30.515625,-104.31
17:38:30.531250,-109.51
17:38:30.546875,-108.55
17:38:30.562500,-100.24
17:38:30.578125,-84.95
17:38:30.593750,-64.55
17:38:30.609375,-41.93
17:38:30.625000,-19.99
17:38:30.640625,-0.77
17:38:30.656250,14.92
17:38:30.671875,27.34
17:38:30.687500,37.27
17:38:30.703125,45.43
17:38:30.718750,52.20
17:38:30.734375,57.62
17:38:30.750000,61.63
17:38:30.765625,64.28
17:38:30.781250,65.79
17:38:30.796875,66.44
17:38:30.812500,66.42
17:38:30.828125,65.84
17:38:30.843750,64.74
17:38:30.859375,63.21
17:38:30.875000,61.50
17:38:30.890625,60.11
17:38:30.906250,59.75
17:38:30.921875,61.12
17:38:30.937500,64.72
17:38:30.953125,70.60
17:38:30.968750,78.29
17:38:30.984375,86.81
17:38:31,94.90
17:38:31.015625,101.38
17:38:31.031250,105.38
17:38:31.046875,106.56
17:38:31.062500,105.14
17:38:31.078125,101.73
17:38:31.093750,97.09
17:38:31.109375,91.82
17:38:31.125000,86.21
17:38:31.140625,80.17
17:38:31.156250,73.44
17:38:31.171875,65.80
17:38:31.187500,57.29
17:38:31.203125,48.39
17:38:31.218750,39.84
17:38:31.234375,32.40
17:38:31.250000,26.58
17:38:31.265625,22.37
17:38:31.281250,19.20
17:38:31.296875,16.13
17:38:31.312500,12.10
17:38:31.328125,6.20
17:38:31.343750,-2.03
17:38:31.359375,-12.42
17:38:31.375000,-24.06
17:38:31.390625,-35.27
17:38:31.406250,-43.83
17:38:31.421875,-47.50
17:38:31.437500,-44.77
17:38:31.453125,-35.44
17:38:31.468750,-20.94
17:38:31.484375,-4.00
17:38:31.500000,12.16
17:38:31.515625,24.83
17:38:31.531250,32.57
17:38:31.546875,35.40
17:38:31.562500,34.32
17:38:31.578125,30.71
17:38:31.593750,25.60
17:38:31.609375,19.55
17:38:31.625000,12.68
17:38:31.640625,5.10
17:38:31.656250,-2.93
17:38:31.671875,-10.98
17:38:31.687500,-18.59
17:38:31.703125,-25.55
17:38:31.718750,-31.84
17:38:31.734375,-37.65
17:38:31.750000,-43.08
17:38:31.765625,-48.07
17:38:31.781250,-52.38
17:38:31.796875,-55.66
17:38:31.812500,-57.72
17:38:31.828125,-58.59
17:38:31.843750,-58.63
17:38:31.859375,-58.35
17:38:31.875000,-58.32
17:38:31.890625,-59.00
17:38:31.906250,-60.58
17:38:31.921875,-62.96
17:38:31.937500,-65.80
17:38:31.953125,-68.64
17:38:31.968750,-71.05
17:38:31.984375,-72.74
17:38:32,-73.67
17:38:32.015625,-74.00
17:38:32.031250,-74.04
17:38:32.046875,-74.14
17:38:32.062500,-74.50
17:38:32.078125,-75.15
17:38:32.093750,-75.92
17:38:32.109375,-76.48
17:38:32.125000,-76.51
17:38:32.140625,-75.78
17:38:32.156250,-74.27
17:38:32.171875,-72.20
17:38:32.187500,-69.95
17:38:32.203125,-68.00
17:38:32.218750,-66.84
17:38:32.234375,-66.78
17:38:32.250000,-67.86
17:38:32.265625,-69.61
17:38:32.281250,-71.00
17:38:32.296875,-70.54
17:38:32.312500,-66.61
17:38:32.328125,-58.01
17:38:32.343750,-44.43
17:38:32.359375,-26.62
17:38:32.375000,-6.25
17:38:32.390625,14.66
17:38:32.406250,34.27
17:38:32.421875,51.42
17:38:32.437500,65.65
17:38:32.453125,77.03
17:38:32.468750,85.84
17:38:32.484375,92.31
17:38:32.500000,96.67
17:38:32.515625,99.19
17:38:32.531250,100.38
17:38:32.546875,100.95
17:38:32.562500,101.63
17:38:32.578125,102.94
17:38:32.593750,104.98
17:38:32.609375,107.37
17:38:32.625000,109.45
17:38:32.640625,110.59
17:38:32.656250,110.46
17:38:32.671875,109.17
17:38:32.687500,107.14
17:38:32.703125,104.83
17:38:32.718750,102.51
17:38:32.734375,100.14
17:38:32.750000,97.47
17:38:32.765625,94.26
17:38:32.781250,90.40
17:38:32.796875,86.00
17:38:32.812500,81.29
17:38:32.828125,76.49
17:38:32.843750,71.70
17:38:32.859375,66.92
17:38:32.875000,62.01
17:38:32.890625,56.82
17:38:32.906250,51.19
17:38:32.921875,45.02
17:38:32.937500,38.30
17:38:32.953125,31.08
17:38:32.968750,23.53
17:38:32.984375,15.93
17:38:33,8.59
17:38:33.015625,1.80
17:38:33.031250,-4.28
17:38:33.046875,-9.65
17:38:33.062500,-14.42
17:38:33.078125,-18.67
17:38:33.093750,-22.39
17:38:33.109375,-25.40
17:38:33.125000,-27.46
17:38:33.140625,-28.43
17:38:33.156250,-28.39
17:38:33.171875,-27.70
17:38:33.187500,-26.84
17:38:33.203125,-26.25
17:38:33.218750,-26.15
17:38:33.234375,-26.53
17:38:33.250000,-27.21
17:38:33.265625,-28.03
17:38:33.281250,-28.86
17:38:33.296875,-29.75
17:38:33.312500,-30.81
17:38:33.328125,-32.14
17:38:33.343750,-33.83
17:38:33.359375,-35.91
17:38:33.375000,-38.37
17:38:33.390625,-41.13
17:38:33.406250,-44.07
17:38:33.421875,-46.96
17:38:33.437500,-49.49
17:38:33.453125,-51.25
17:38:33.468750,-51.84
17:38:33.484375,-51.00
17:38:33.500000,-48.75
17:38:33.515625,-45.58
17:38:33.531250,-42.29
17:38:33.546875,-39.89
17:38:33.562500,-39.24
17:38:33.578125,-40.77
17:38:33.593750,-44.31
17:38:33.609375,-49.20
17:38:33.625000,-54.58
17:38:33.640625,-59.79
17:38:33.656250,-64.57
17:38:33.671875,-69.19
17:38:33.687500,-74.11
17:38:33.703125,-79.72
17:38:33.718750,-86.06
17:38:33.734375,-92.68
17:38:33.750000,-98.88
17:38:33.765625,-104.01
17:38:33.781250,-107.72
17:38:33.796875,-110.17
17:38:33.812500,-111.91
17:38:33.828125,-113.70
17:38:33.843750,-116.31
17:38:33.859375,-120.34
17:38:33.875000,-125.98
17:38:33.890625,-132.80
17:38:33.906250,-139.52
17:38:33.921875,-143.95
17:38:33.937500,-143.42
17:38:33.953125,-135.52
17:38:33.968750,-119.05
17:38:33.984375,-94.63
17:38:34,-64.74
17:38:34.015625,-32.96
17:38:34.031250,-2.89
17:38:34.046875,22.88
17:38:34.062500,43.29
17:38:34.078125,58.65
17:38:34.093750,69.96
17:38:34.109375,78.28
17:38:34.125000,84.34
17:38:34.140625,88.50
17:38:34.156250,91.00
17:38:34.171875,92.25
17:38:34.187500,92.86
17:38:34.203125,93.56
17:38:34.218750,94.91
17:38:34.234375,97.09
17:38:34.250000,99.91
17:38:34.265625,102.86
17:38:34.281250,105.40
17:38:34.296875,107.11
17:38:34.312500,107.82
17:38:34.328125,107.55
17:38:34.343750,106.40
17:38:34.359375,104.40
17:38:34.375000,101.49
17:38:34.390625,97.55
17:38:34.406250,92.53
17:38:34.421875,86.48
17:38:34.437500,79.54
17:38:34.453125,71.95
17:38:34.468750,63.97
17:38:34.484375,55.84
17:38:34.500000,47.80
17:38:34.515625,40.02
17:38:34.531250,32.59
17:38:34.546875,25.48
17:38:34.562500,18.54
17:38:34.578125,11.56
17:38:34.593750,4.31
17:38:34.609375,-3.37
17:38:34.625000,-11.52
17:38:34.640625,-20.04
17:38:34.656250,-28.66
17:38:34.671875,-36.88
17:38:34.687500,-43.84
17:38:34.703125,-48.36
17:38:34.718750,-49.15
17:38:34.734375,-45.22
17:38:34.750000,-36.43
17:38:34.765625,-23.68
17:38:34.781250,-8.85
17:38:34.796875,5.81
17:38:34.812500,18.30
17:38:34.828125,27.53
17:38:34.843750,33.39
17:38:34.859375,36.47
17:38:34.875000,37.56
17:38:34.890625,37.25
17:38:34.906250,35.76
17:38:34.921875,33.09
17:38:34.937500,29.26
17:38:34.953125,24.49
17:38:34.968750,19.16
17:38:34.984375,13.69
17:38:35,8.36
17:38:35.015625,3.26
17:38:35.031250,-1.67
17:38:35.046875,-6.54
17:38:35.062500,-11.39
17:38:35.078125,-16.17
17:38:35.093750,-20.78
17:38:35.109375,-25.20
17:38:35.125000,-29.48
17:38:35.140625,-33.81
17:38:35.156250,-38.33
17:38:35.171875,-43.06
17:38:35.187500,-47.87
17:38:35.203125,-52.61
17:38:35.218750,-57.28
17:38:35.234375,-62.20
17:38:35.250000,-67.95
17:38:35.265625,-75.13
17:38:35.281250,-84.01
17:38:35.296875,-94.27
17:38:35.312500,-105.11
17:38:35.328125,-115.53
17:38:35.343750,-124.76
17:38:35.359375,-132.64
17:38:35.375000,-139.60
17:38:35.390625,-146.55
17:38:35.406250,-154.50
17:38:35.421875,-164.24
17:38:35.437500,-176.02
17:38:35.453125,-189.17
17:38:35.468750,-201.95
17:38:35.484375,-211.62
17:38:35.500000,-214.96
17:38:35.515625,-209.26
17:38:35.531250,-193.34
17:38:35.546875,-168.09
17:38:35.562500,-136.38
17:38:35.578125,-102.05
17:38:35.593750,-68.71
17:38:35.609375,-38.72
17:38:35.625000,-12.83
17:38:35.640625,9.38
17:38:35.656250,28.81
17:38:35.671875,46.19
17:38:35.687500,61.75
17:38:35.703125,75.37
17:38:35.718750,86.82
17:38:35.734375,95.99
17:38:35.750000,102.99
17:38:35.765625,108.11
17:38:35.781250,111.69
17:38:35.796875,114.08
17:38:35.812500,115.50
17:38:35.828125,116.15
17:38:35.843750,116.14
17:38:35.859375,115.70
17:38:35.875000,115.14
17:38:35.890625,114.88
17:38:35.906250,115.23
17:38:35.921875,116.18
17:38:35.937500,117.36
17:38:35.953125,118.05
17:38:35.968750,117.47
17:38:35.984375,115.06
17:38:36,110.80
17:38:36.015625,105.12
17:38:36.031250,98.81
17:38:36.046875,92.61
17:38:36.062500,86.91
17:38:36.078125,81.63
17:38:36.093750,76.24
17:38:36.109375,70.04
17:38:36.125000,62.49
17:38:36.140625,53.40
17:38:36.156250,43.04
17:38:36.171875,32.03
17:38:36.187500,21.07
17:38:36.203125,10.69
17:38:36.218750,1.01
17:38:36.234375,-8.25
17:38:36.250000,-17.74
17:38:36.265625,-28.20
17:38:36.281250,-40.26
17:38:36.296875,-54.19
17:38:36.312500,-69.73
17:38:36.328125,-85.91
17:38:36.343750,-101.08
17:38:36.359375,-113.08
17:38:36.375000,-119.67
17:38:36.390625,-119.13
17:38:36.406250,-110.86
17:38:36.421875,-95.65
17:38:36.437500,-75.56
17:38:36.453125,-53.33
17:38:36.468750,-31.59
17:38:36.484375,-12.13
17:38:36.500000,4.44
17:38:36.515625,18.48
17:38:36.531250,30.81
17:38:36.546875,42.10
17:38:36.562500,52.50
17:38:36.578125,61.65
17:38:36.593750,69.00
17:38:36.609375,74.17
17:38:36.625000,77.16
17:38:36.640625,78.33
17:38:36.656250,78.22
17:38:36.671875,77.33
17:38:36.687500,76.00
17:38:36.703125,74.48
17:38:36.718750,72.98
17:38:36.734375,71.75
17:38:36.750000,71.07
17:38:36.765625,71.02
17:38:36.781250,71.42
17:38:36.796875,71.76
17:38:36.812500,71.40
17:38:36.828125,69.75
17:38:36.843750,66.59
17:38:36.859375,62.10
17:38:36.875000,56.85
17:38:36.890625,51.56
17:38:36.906250,46.80
17:38:36.921875,42.74
17:38:36.937500,39.13
17:38:36.953125,35.42
17:38:36.968750,31.04
17:38:36.984375,25.70
17:38:37,19.52
17:38:37.015625,12.98
17:38:37.031250,6.61
17:38:37.046875,0.78
17:38:37.062500,-4.54
17:38:37.078125,-9.75
17:38:37.093750,-15.35
17:38:37.109375,-21.73
17:38:37.125000,-28.90
17:38:37.140625,-36.48
17:38:37.156250,-43.90
17:38:37.171875,-50.65
17:38:37.187500,-56.52
17:38:37.203125,-61.71
17:38:37.218750,-66.77
17:38:37.234375,-72.44
17:38:37.250000,-79.50
17:38:37.265625,-88.49
17:38:37.281250,-99.43
17:38:37.296875,-111.53
17:38:37.312500,-123.01
17:38:37.328125,-131.28
17:38:37.343750,-133.54
17:38:37.359375,-127.74
17:38:37.375000,-113.36
17:38:37.390625,-91.79
17:38:37.406250,-65.92
17:38:37.421875,-39.20
17:38:37.437500,-14.55
17:38:37.453125,6.42
17:38:37.468750,23.47
17:38:37.484375,37.32
17:38:37.500000,48.88
17:38:37.515625,58.80
17:38:37.531250,67.25
17:38:37.546875,74.11
17:38:37.562500,79.27
17:38:37.578125,82.83
17:38:37.593750,85.05
17:38:37.609375,86.25
17:38:37.625000,86.68
17:38:37.640625,86.49
17:38:37.656250,85.71
17:38:37.671875,84.47
17:38:37.687500,83.04
17:38:37.703125,81.78
17:38:37.718750,81.08
17:38:37.734375,81.11
17:38:37.750000,81.71
17:38:37.765625,82.41
17:38:37.781250,82.48
17:38:37.796875,81.28
17:38:37.812500,78.41
17:38:37.828125,73.94
17:38:37.843750,68.36
17:38:37.859375,62.38
17:38:37.875000,56.73
17:38:37.890625,51.81
17:38:37.906250,47.60
17:38:37.921875,43.65
17:38:37.937500,39.30
17:38:37.953125,34.02
17:38:37.968750,27.68
17:38:37.984375,20.59
17:38:38,13.43
17:38:38.015625,6.81
17:38:38.031250,1.04
17:38:38.046875,-4.04
17:38:38.062500,-8.98
17:38:38.078125,-14.37
17:38:38.093750,-20.57
17:38:38.109375,-27.56
17:38:38.125000,-34.97
17:38:38.140625,-42.32
17:38:38.156250,-49.20
17:38:38.171875,-55.47
17:38:38.187500,-61.30
17:38:38.203125,-67.04
17:38:38.218750,-73.27
17:38:38.234375,-80.55
17:38:38.250000,-89.36
17:38:38.265625,-99.75
17:38:38.281250,-111.04
17:38:38.296875,-121.65
17:38:38.312500,-129.28
17:38:38.328125,-131.45
17:38:38.343750,-126.31
17:38:38.359375,-113.42
17:38:38.375000,-94.00
17:38:38.390625,-70.59
17:38:38.406250,-46.28
17:38:38.421875,-23.67
17:38:38.437500,-4.26
17:38:38.453125,11.74
17:38:38.468750,24.95
17:38:38.484375,36.23
17:38:38.500000,46.11
17:38:38.515625,54.66
17:38:38.531250,61.61
17:38:38.546875,66.69
17:38:38.562500,69.91
17:38:38.578125,71.62
17:38:38.593750,72.32
17:38:38.609375,72.49
17:38:38.625000,72.37
17:38:38.640625,71.98
17:38:38.656250,71.25
17:38:38.671875,70.19
17:38:38.687500,68.99
17:38:38.703125,67.98
17:38:38.718750,67.46
17:38:38.734375,67.54
17:38:38.750000,67.93
17:38:38.765625,68.07
17:38:38.781250,67.30
17:38:38.796875,65.12
17:38:38.812500,61.41
17:38:38.828125,56.53
17:38:38.843750,51.16
17:38:38.859375,46.04
17:38:38.875000,41.67
17:38:38.890625,38.09
17:38:38.906250,34.92
17:38:38.921875,31.53
17:38:38.937500,27.37
17:38:38.953125,22.23
17:38:38.968750,16.34
17:38:38.984375,10.25
17:38:39,4.60
17:38:39.015625,-0.26
17:38:39.031250,-4.32
17:38:39.046875,-7.99
17:38:39.062500,-11.90
17:38:39.078125,-16.58
17:38:39.093750,-22.24
17:38:39.109375,-28.72
17:38:39.125000,-35.51
17:38:39.140625,-41.99
17:38:39.156250,-47.70
17:38:39.171875,-52.54
17:38:39.187500,-56.78
17:38:39.203125,-61.00
17:38:39.218750,-65.92
17:38:39.234375,-72.17
17:38:39.250000,-80.12
17:38:39.265625,-89.70
17:38:39.281250,-100.22
17:38:39.296875,-110.27
17:38:39.312500,-117.80
17:38:39.328125,-120.59
17:38:39.343750,-116.84
17:38:39.359375,-105.94
17:38:39.375000,-88.73
17:38:39.390625,-67.44
17:38:39.406250,-44.91
17:38:39.421875,-23.78
17:38:39.437500,-5.69
17:38:39.453125,8.93
17:38:39.468750,20.57
17:38:39.484375,30.06
17:38:39.500000,38.06
17:38:39.515625,44.80
17:38:39.531250,50.21
17:38:39.546875,54.12
17:38:39.562500,56.54
17:38:39.578125,57.74
17:38:39.593750,58.15
17:38:39.609375,58.22
17:38:39.625000,58.21
17:38:39.640625,58.21
17:38:39.656250,58.12
17:38:39.671875,57.86
17:38:39.687500,57.43
17:38:39.703125,56.98
17:38:39.718750,56.73
17:38:39.734375,56.79
17:38:39.750000,57.05
17:38:39.765625,57.16
17:38:39.781250,56.59
17:38:39.796875,54.92
17:38:39.812500,51.97
17:38:39.828125,47.99
17:38:39.843750,43.51
17:38:39.859375,39.14
17:38:39.875000,35.30
17:38:39.890625,31.98
17:38:39.906250,28.85
17:38:39.921875,25.40
17:38:39.937500,21.27
17:38:39.953125,16.46
17:38:39.968750,11.32
17:38:39.984375,6.40
17:38:40,2.11
17:38:40.015625,-1.47
17:38:40.031250,-4.67
17:38:40.046875,-8.03
17:38:40.062500,-12.06
17:38:40.078125,-16.98
17:38:40.093750,-22.62
17:38:40.109375,-28.54
17:38:40.125000,-34.21
17:38:40.140625,-39.27
17:38:40.156250,-43.63
17:38:40.171875,-47.50
17:38:40.187500,-51.30
17:38:40.203125,-55.55
17:38:40.218750,-60.75
17:38:40.234375,-67.22
17:38:40.250000,-74.96
17:38:40.265625,-83.40
17:38:40.281250,-91.38
17:38:40.296875,-97.15
17:38:40.312500,-98.84
17:38:40.328125,-94.97
17:38:40.343750,-85.08
17:38:40.359375,-69.99
17:38:40.375000,-51.63
17:38:40.390625,-32.45
17:38:40.406250,-14.64
17:38:40.421875,0.42
17:38:40.437500,12.36
17:38:40.453125,21.58
17:38:40.468750,28.71
17:38:40.484375,34.29
17:38:40.500000,38.49
17:38:40.515625,41.29
17:38:40.531250,42.66
17:38:40.546875,42.80
17:38:40.562500,42.12
17:38:40.578125,41.13
17:38:40.593750,40.29
17:38:40.609375,39.83
17:38:40.625000,39.76
17:38:40.640625,39.93
17:38:40.656250,40.22
17:38:40.671875,40.56
17:38:40.687500,40.98
17:38:40.703125,41.45
17:38:40.718750,41.80
17:38:40.734375,41.70
17:38:40.750000,40.78
17:38:40.765625,38.83
17:38:40.781250,35.91
17:38:40.796875,32.35
17:38:40.812500,28.65
17:38:40.828125,25.16
17:38:40.843750,22.02
17:38:40.859375,19.07
17:38:40.875000,16.01
17:38:40.890625,12.59
17:38:40.906250,8.73
17:38:40.921875,4.57
17:38:40.937500,0.36
17:38:40.953125,-3.65
17:38:40.968750,-7.34
17:38:40.984375,-10.76
17:38:41,-14.12
17:38:41.015625,-17.66
17:38:41.031250,-21.56
17:38:41.046875,-25.83
17:38:41.062500,-30.30
17:38:41.078125,-34.65
17:38:41.093750,-38.61
17:38:41.109375,-42.10
17:38:41.125000,-45.31
17:38:41.140625,-48.68
17:38:41.156250,-52.79
17:38:41.171875,-58.17
17:38:41.187500,-65.07
17:38:41.203125,-73.24
17:38:41.218750,-81.82
17:38:41.234375,-89.33
17:38:41.250000,-93.94
17:38:41.265625,-93.89
17:38:41.281250,-88.09
17:38:41.296875,-76.50
17:38:41.312500,-60.32
17:38:41.328125,-41.61
17:38:41.343750,-22.76
17:38:41.359375,-5.78
17:38:41.375000,8.18
17:38:41.390625,18.86
17:38:41.406250,26.67
17:38:41.421875,32.20
17:38:41.437500,35.99
17:38:41.453125,38.31
17:38:41.468750,39.33
17:38:41.484375,39.25
17:38:41.500000,38.44
17:38:41.515625,37.38
17:38:41.531250,36.55
17:38:41.546875,36.24
17:38:41.562500,36.42
17:38:41.578125,36.84
17:38:41.593750,37.13
17:38:41.609375,37.04
17:38:41.625000,36.51
17:38:41.640625,35.73
17:38:41.656250,34.95
17:38:41.671875,34.33
17:38:41.687500,33.79
17:38:41.703125,33.03
17:38:41.718750,31.63
17:38:41.734375,29.23
17:38:41.750000,25.74
17:38:41.765625,21.33
17:38:41.781250,16.46
17:38:41.796875,11.62
17:38:41.812500,7.22
17:38:41.828125,3.38
17:38:41.843750,-0.04
17:38:41.859375,-3.35
17:38:41.875000,-6.93
17:38:41.890625,-11.00
17:38:41.906250,-15.59
17:38:41.921875,-20.47
17:38:41.937500,-25.29
17:38:41.953125,-29.72
17:38:41.968750,-33.59
17:38:41.984375,-36.97
17:38:42,-40.19
17:38:42.015625,-43.79
17:38:42.031250,-48.28
17:38:42.046875,-54.10
17:38:42.062500,-61.34
17:38:42.078125,-69.58
17:38:42.093750,-77.81
17:38:42.109375,-84.44
17:38:42.125000,-87.67
17:38:42.140625,-85.94
17:38:42.156250,-78.50
17:38:42.171875,-65.76
17:38:42.187500,-49.23
17:38:42.203125,-31.10
17:38:42.218750,-13.58
17:38:42.234375,1.74
17:38:42.250000,14.14
17:38:42.265625,23.69
17:38:42.281250,30.88
17:38:42.296875,36.20
17:38:42.312500,39.96
17:38:42.328125,42.28
17:38:42.343750,43.26
17:38:42.359375,43.15
17:38:42.375000,42.32
17:38:42.390625,41.24
17:38:42.406250,40.30
17:38:42.421875,39.69
17:38:42.437500,39.41
17:38:42.453125,39.33
17:38:42.468750,39.28
17:38:42.484375,39.12
17:38:42.500000,38.82
17:38:42.515625,38.37
17:38:42.531250,37.81
17:38:42.546875,37.12
17:38:42.562500,36.20
17:38:42.578125,34.90
17:38:42.593750,33.06
17:38:42.609375,30.56
17:38:42.625000,27.41
17:38:42.640625,23.70
17:38:42.656250,19.64
17:38:42.671875,15.46
17:38:42.687500,11.34
17:38:42.703125,7.37
17:38:42.718750,3.57
17:38:42.734375,-0.12
17:38:42.750000,-3.80
17:38:42.765625,-7.62
17:38:42.781250,-11.66
17:38:42.796875,-15.97
17:38:42.812500,-20.50
17:38:42.828125,-25.12
17:38:42.843750,-29.65
17:38:42.859375,-33.93
17:38:42.875000,-37.90
17:38:42.890625,-41.61
17:38:42.906250,-45.27
17:38:42.921875,-49.21
17:38:42.937500,-53.85
17:38:42.953125,-59.60
17:38:42.968750,-66.64
17:38:42.984375,-74.73
17:38:43,-82.90
17:38:43.015625,-89.55
17:38:43.031250,-92.66
17:38:43.046875,-90.46
17:38:43.062500,-82.05
17:38:43.078125,-67.88
17:38:43.093750,-49.72
17:38:43.109375,-30.10
17:38:43.125000,-11.49
17:38:43.140625,4.36
17:38:43.156250,16.81
17:38:43.171875,26.08
17:38:43.187500,32.89
17:38:43.203125,37.89
17:38:43.218750,41.50
17:38:43.234375,43.86
17:38:43.250000,45.02
17:38:43.265625,45.18
17:38:43.281250,44.67
17:38:43.296875,43.88
17:38:43.312500,43.17
17:38:43.328125,42.69
17:38:43.343750,42.44
17:38:43.359375,42.30
17:38:43.375000,42.20
17:38:43.390625,42.10
17:38:43.406250,42.04
17:38:43.421875,42.05
17:38:43.437500,42.07
17:38:43.453125,41.88
17:38:43.468750,41.19
17:38:43.484375,39.73
17:38:43.500000,37.38
17:38:43.515625,34.24
17:38:43.531250,30.60
17:38:43.546875,26.79
17:38:43.562500,23.09
17:38:43.578125,19.60
17:38:43.593750,16.25
17:38:43.609375,12.88
17:38:43.625000,9.36
17:38:43.640625,5.67
17:38:43.656250,1.90
17:38:43.671875,-1.81
17:38:43.687500,-5.36
17:38:43.703125,-8.80
17:38:43.718750,-12.30
17:38:43.734375,-16.10
17:38:43.750000,-20.37
17:38:43.765625,-25.07
17:38:43.781250,-29.98
17:38:43.796875,-34.77
17:38:43.812500,-39.20
17:38:43.828125,-43.22
17:38:43.843750,-47.08
17:38:43.859375,-51.19
17:38:43.875000,-56.07
17:38:43.890625,-62.09
17:38:43.906250,-69.39
17:38:43.921875,-77.63
17:38:43.937500,-85.88
17:38:43.953125,-92.66
17:38:43.968750,-96.12
17:38:43.984375,-94.59
17:38:44,-87.11
17:38:44.015625,-73.91
17:38:44.031250,-56.39
17:38:44.046875,-36.76
17:38:44.062500,-17.44
17:38:44.078125,-0.30
17:38:44.093750,13.63
17:38:44.109375,24.22
17:38:44.125000,31.94
17:38:44.140625,37.47
17:38:44.156250,41.41
17:38:44.171875,44.14
17:38:44.187500,45.86
17:38:44.203125,46.71
17:38:44.218750,46.86
17:38:44.234375,46.55
17:38:44.250000,46.04
17:38:44.265625,45.58
17:38:44.281250,45.26
17:38:44.296875,45.09
17:38:44.312500,45.02
17:38:44.328125,45.02
17:38:44.343750,45.11
17:38:44.359375,45.32
17:38:44.375000,45.59
17:38:44.390625,45.69
17:38:44.406250,45.29
17:38:44.421875,44.07
17:38:44.437500,41.91
17:38:44.453125,38.91
17:38:44.468750,35.41
17:38:44.484375,31.77
17:38:44.500000,28.26
17:38:44.515625,24.89
17:38:44.531250,21.53
17:38:44.546875,17.94
17:38:44.562500,13.98
17:38:44.578125,9.68
17:38:44.593750,5.25
17:38:44.609375,1.00
17:38:44.625000,-2.85
17:38:44.640625,-6.31
17:38:44.656250,-9.61
17:38:44.671875,-13.16
17:38:44.687500,-17.29
17:38:44.703125,-22.11
17:38:44.718750,-27.40
17:38:44.734375,-32.69
17:38:44.750000,-37.51
17:38:44.765625,-41.60
17:38:44.781250,-45.08
17:38:44.796875,-48.42
17:38:44.812500,-52.27
17:38:44.828125,-57.27
17:38:44.843750,-63.84
17:38:44.859375,-72.00
17:38:44.875000,-81.17
17:38:44.890625,-90.10
17:38:44.906250,-96.96
17:38:44.921875,-99.69
17:38:44.937500,-96.60
17:38:44.953125,-87.00
17:38:44.968750,-71.58
17:38:44.984375,-52.23
17:38:45,-31.58
17:38:45.015625,-12.10
17:38:45.031250,4.49
17:38:45.046875,17.57
17:38:45.062500,27.35
17:38:45.078125,34.52
17:38:45.093750,39.78
17:38:45.109375,43.58
17:38:45.125000,46.15
17:38:45.140625,47.63
17:38:45.156250,48.18
17:38:45.171875,48.08
17:38:45.187500,47.64
17:38:45.203125,47.14
17:38:45.218750,46.77
17:38:45.234375,46.62
17:38:45.250000,46.66
17:38:45.265625,46.84
17:38:45.281250,47.11
17:38:45.296875,47.44
17:38:45.312500,47.77
17:38:45.328125,48.05
17:38:45.343750,48.11
17:38:45.359375,47.73
17:38:45.375000,46.68
17:38:45.390625,44.77
17:38:45.406250,41.99
17:38:45.421875,38.50
17:38:45.437500,34.65
17:38:45.453125,30.81
17:38:45.468750,27.23
17:38:45.484375,23.95
17:38:45.500000,20.73
17:38:45.515625,17.24
17:38:45.531250,13.25
17:38:45.546875,8.78
17:38:45.562500,4.10
17:38:45.578125,-0.39
17:38:45.593750,-4.40
17:38:45.609375,-7.94
17:38:45.625000,-11.35
17:38:45.640625,-15.10
17:38:45.656250,-19.57
17:38:45.671875,-24.83
17:38:45.687500,-30.55
17:38:45.703125,-36.19
17:38:45.718750,-41.23
17:38:45.734375,-45.44
17:38:45.750000,-49.02
17:38:45.765625,-52.52
17:38:45.781250,-56.62
17:38:45.796875,-61.97
17:38:45.812500,-68.91
17:38:45.828125,-77.26
17:38:45.843750,-86.22
17:38:45.859375,-94.26
17:38:45.875000,-99.41
17:38:45.890625,-99.66
17:38:45.906250,-93.63
17:38:45.921875,-81.16
17:38:45.937500,-63.50
17:38:45.953125,-43.01
17:38:45.968750,-22.42
17:38:45.984375,-3.99
17:38:46,11.06
17:38:46.015625,22.63
17:38:46.031250,31.30
17:38:46.046875,37.83
17:38:46.062500,42.74
17:38:46.078125,46.23
17:38:46.093750,48.36
17:38:46.109375,49.23
17:38:46.125000,49.14
17:38:46.140625,48.51
17:38:46.156250,47.75
17:38:46.171875,47.16
17:38:46.187500,46.84
17:38:46.203125,46.81
17:38:46.218750,47.02
17:38:46.234375,47.45
17:38:46.250000,48.07
17:38:46.265625,48.84
17:38:46.281250,49.63
17:38:46.296875,50.24
17:38:46.312500,50.37
17:38:46.328125,49.70
17:38:46.343750,47.94
17:38:46.359375,45.00
17:38:46.375000,41.02
17:38:46.390625,36.44
17:38:46.406250,31.80
17:38:46.421875,27.57
17:38:46.437500,23.93
17:38:46.453125,20.71
17:38:46.468750,17.48
17:38:46.484375,13.78
17:38:46.500000,9.40
17:38:46.515625,4.45
17:38:46.531250,-0.63
17:38:46.546875,-5.40
17:38:46.562500,-9.61
17:38:46.578125,-13.39
17:38:46.593750,-17.15
17:38:46.609375,-21.40
17:38:46.625000,-26.44
17:38:46.640625,-32.21
17:38:46.656250,-38.32
17:38:46.671875,-44.20
17:38:46.687500,-49.45
17:38:46.703125,-53.96
17:38:46.718750,-58.04
17:38:46.734375,-62.33
17:38:46.750000,-67.56
17:38:46.765625,-74.36
17:38:46.781250,-82.92
17:38:46.796875,-92.82
17:38:46.812500,-102.89
17:38:46.828125,-111.28
17:38:46.843750,-115.81
17:38:46.859375,-114.53
17:38:46.875000,-106.32
17:38:46.890625,-91.36
17:38:46.906250,-71.15
17:38:46.921875,-48.13
17:38:46.937500,-24.99
17:38:46.953125,-3.92
17:38:46.968750,13.79
17:38:46.984375,27.82
17:38:47,38.51
17:38:47.015625,46.51
17:38:47.031250,52.46
17:38:47.046875,56.82
17:38:47.062500,59.95
17:38:47.078125,62.14
17:38:47.093750,63.68
17:38:47.109375,64.86
17:38:47.125000,65.92
17:38:47.140625,67.04
17:38:47.156250,68.32
17:38:47.171875,69.77
17:38:47.187500,71.39
17:38:47.203125,73.19
17:38:47.218750,75.18
17:38:47.234375,77.37
17:38:47.250000,79.67
17:38:47.265625,81.89
17:38:47.281250,83.71
17:38:47.296875,84.83
17:38:47.312500,85.00
17:38:47.328125,84.22
17:38:47.343750,82.73
17:38:47.359375,80.94
17:38:47.375000,79.31
17:38:47.390625,78.17
17:38:47.406250,77.67
17:38:47.421875,77.71
17:38:47.437500,78.12
17:38:47.453125,78.70
17:38:47.468750,79.43
17:38:47.484375,80.45
17:38:47.500000,82.01
17:38:47.515625,84.32
17:38:47.531250,87.40
17:38:47.546875,90.99
17:38:47.562500,94.53
17:38:47.578125,97.32
17:38:47.593750,98.66
17:38:47.609375,98.06
17:38:47.625000,95.32
17:38:47.640625,90.52
17:38:47.656250,83.99
17:38:47.671875,76.14
17:38:47.687500,67.36
17:38:47.703125,58.03
17:38:47.718750,48.44
17:38:47.734375,38.86
17:38:47.750000,29.52
17:38:47.765625,20.65
17:38:47.781250,12.43
17:38:47.796875,5.03
17:38:47.812500,-1.49
17:38:47.828125,-7.10
17:38:47.843750,-11.86
17:38:47.859375,-15.92
17:38:47.875000,-19.49
17:38:47.890625,-22.86
17:38:47.906250,-26.33
17:38:47.921875,-30.12
17:38:47.937500,-34.34
17:38:47.953125,-38.92
17:38:47.968750,-43.70
17:38:47.984375,-48.48
17:38:48,-53.12
17:38:48.015625,-57.57
17:38:48.031250,-61.89
17:38:48.046875,-66.18
17:38:48.062500,-70.58
17:38:48.078125,-75.26
17:38:48.093750,-80.41
17:38:48.109375,-86.16
17:38:48.125000,-92.55
17:38:48.140625,-99.42
17:38:48.156250,-106.40
17:38:48.171875,-112.98
17:38:48.187500,-118.63
17:38:48.203125,-123.03
17:38:48.218750,-126.14
17:38:48.234375,-128.23
17:38:48.250000,-129.71
17:38:48.265625,-130.95
17:38:48.281250,-132.12
17:38:48.296875,-133.15
17:38:48.312500,-133.75
17:38:48.328125,-133.53
17:38:48.343750,-132.13
17:38:48.359375,-129.32
17:38:48.375000,-124.97
17:38:48.390625,-119.06
17:38:48.406250,-111.62
17:38:48.421875,-102.75
17:38:48.437500,-92.59
17:38:48.453125,-81.38
17:38:48.468750,-69.49
17:38:48.484375,-57.41
17:38:48.500000,-45.74
17:38:48.515625,-35.18
17:38:48.531250,-26.36
17:38:48.546875,-19.81
17:38:48.562500,-15.71
17:38:48.578125,-13.89
17:38:48.593750,-13.85
17:38:48.609375,-14.89
17:38:48.625000,-16.40
17:38:48.640625,-18.09
17:38:48.656250,-20.08
17:38:48.671875,-22.82
17:38:48.687500,-26.90
17:38:48.703125,-32.73
17:38:48.718750,-40.27
17:38:48.734375,-48.86
17:38:48.750000,-57.10
17:38:48.765625,-63.04
17:38:48.781250,-64.56
17:38:48.796875,-59.95
17:38:48.812500,-48.58
17:38:48.828125,-31.17
17:38:48.843750,-9.75
17:38:48.859375,12.93
17:38:48.875000,34.27
17:38:48.890625,52.54
17:38:48.906250,67.13
17:38:48.921875,78.45
17:38:48.937500,87.32
17:38:48.953125,94.55
17:38:48.968750,100.60
17:38:48.984375,105.67
17:38:49,109.90
17:38:49.015625,113.55
17:38:49.031250,117.03
17:38:49.046875,120.79
17:38:49.062500,125.11
17:38:49.078125,130.00
17:38:49.093750,135.16
17:38:49.109375,140.11
17:38:49.125000,144.34
17:38:49.140625,147.42
17:38:49.156250,149.12
17:38:49.171875,149.37
17:38:49.187500,148.20
17:38:49.203125,145.74
17:38:49.218750,142.10
17:38:49.234375,137.36
17:38:49.250000,131.55
17:38:49.265625,124.74
17:38:49.281250,117.02
17:38:49.296875,108.57
17:38:49.312500,99.66
17:38:49.328125,90.52
17:38:49.343750,81.28
17:38:49.359375,71.88
17:38:49.375000,62.15
17:38:49.390625,51.91
17:38:49.406250,41.09
17:38:49.421875,29.87
17:38:49.437500,18.64
17:38:49.453125,7.86
17:38:49.468750,-2.08
17:38:49.484375,-11.08
17:38:49.500000,-19.32
17:38:49.515625,-27.19
17:38:49.531250,-35.09
17:38:49.546875,-43.31
17:38:49.562500,-51.89
17:38:49.578125,-60.62
17:38:49.593750,-69.14
17:38:49.609375,-77.07
17:38:49.625000,-83.98
17:38:49.640625,-89.50
17:38:49.656250,-93.20
17:38:49.671875,-94.73
17:38:49.687500,-93.85
17:38:49.703125,-90.62
17:38:49.718750,-85.41
17:38:49.734375,-78.86
17:38:49.750000,-71.77
17:38:49.765625,-64.82
17:38:49.781250,-58.51
17:38:49.796875,-53.07
17:38:49.812500,-48.57
17:38:49.828125,-44.97
17:38:49.843750,-42.20
17:38:49.859375,-40.18
17:38:49.875000,-38.74
17:38:49.890625,-37.72
17:38:49.906250,-36.92
17:38:49.921875,-36.26
17:38:49.937500,-35.70
17:38:49.953125,-35.28
17:38:49.968750,-35.02
17:38:49.984375,-34.92
17:38:50,-34.93
17:38:50.015625,-35.03
17:38:50.031250,-35.20
17:38:50.046875,-35.45
17:38:50.062500,-35.73
17:38:50.078125,-35.93
17:38:50.093750,-35.81
17:38:50.109375,-35.18
17:38:50.125000,-33.94
17:38:50.140625,-32.23
17:38:50.156250,-30.46
17:38:50.171875,-29.13
17:38:50.187500,-28.66
17:38:50.203125,-29.15
17:38:50.218750,-30.38
17:38:50.234375,-31.86
17:38:50.250000,-33.08
17:38:50.265625,-33.74
17:38:50.281250,-33.97
17:38:50.296875,-34.22
17:38:50.312500,-35.20
17:38:50.328125,-37.52
17:38:50.343750,-41.51
17:38:50.359375,-47.02
17:38:50.375000,-53.45
17:38:50.390625,-60.04
17:38:50.406250,-66.09
17:38:50.421875,-71.30
17:38:50.437500,-75.85
17:38:50.453125,-80.29
17:38:50.468750,-85.35
17:38:50.484375,-91.63
17:38:50.500000,-99.50
17:38:50.515625,-108.84
17:38:50.531250,-118.84
17:38:50.546875,-127.80
17:38:50.562500,-133.22
17:38:50.578125,-132.24
17:38:50.593750,-122.59
17:38:50.609375,-103.59
17:38:50.625000,-76.66
17:38:50.640625,-45.12
17:38:50.656250,-13.06
17:38:50.671875,15.98
17:38:50.687500,40.08
17:38:50.703125,59.10
17:38:50.718750,74.10
17:38:50.734375,86.38
17:38:50.750000,96.71
17:38:50.765625,105.21
17:38:50.781250,111.68
17:38:50.796875,116.15
17:38:50.812500,119.13
17:38:50.828125,121.48
17:38:50.843750,124.00
17:38:50.859375,126.99
17:38:50.875000,130.14
17:38:50.890625,132.66
17:38:50.906250,133.75
17:38:50.921875,133.01
17:38:50.937500,130.57
17:38:50.953125,126.97
17:38:50.968750,122.81
17:38:50.984375,118.32
17:38:51,113.34
17:38:51.015625,107.37
17:38:51.031250,99.93
17:38:51.046875,90.84
17:38:51.062500,80.33
17:38:51.078125,69.00
17:38:51.093750,57.50
17:38:51.109375,46.30
17:38:51.125000,35.50
17:38:51.140625,24.90
17:38:51.156250,14.11
17:38:51.171875,2.82
17:38:51.187500,-9.03
17:38:51.203125,-21.16
17:38:51.218750,-33.07
17:38:51.234375,-44.21
17:38:51.250000,-54.24
17:38:51.265625,-63.16
17:38:51.281250,-71.26
17:38:51.296875,-78.96
17:38:51.312500,-86.53
17:38:51.328125,-93.96
17:38:51.343750,-100.98
17:38:51.359375,-107.32
17:38:51.375000,-112.87
17:38:51.390625,-117.85
17:38:51.406250,-122.65
17:38:51.421875,-127.64
17:38:51.437500,-132.91
17:38:51.453125,-138.26
17:38:51.468750,-143.29
17:38:51.484375,-147.45
17:38:51.500000,-150.08
17:38:51.515625,-150.24
17:38:51.531250,-146.74
17:38:51.546875,-138.46
17:38:51.562500,-124.79
17:38:51.578125,-106.12
17:38:51.593750,-83.99
17:38:51.609375,-60.69
17:38:51.625000,-38.52
17:38:51.640625,-19.07
17:38:51.656250,-2.88
17:38:51.671875,10.32
