12:29:07,-0.00
12:29:07.015625,-0.00
12:29:07.031250,-0.00
12:29:07.046875,-0.00
12:29:07.062500,-0.00
12:29:07.078125,-0.00
12:29:07.093750,-0.00
12:29:07.109375,-0.00
12:29:07.125000,-0.00
12:29:07.140625,-0.01
12:29:07.156250,-0.00
12:29:07.171875,0.00
12:29:07.187500,0.01
12:29:07.203125,0.01
12:29:07.218750,-0.00
12:29:07.234375,-0.03
12:29:07.250000,-0.05
12:29:07.265625,-0.05
12:29:07.281250,-0.00
12:29:07.296875,0.13
12:29:07.312500,0.36
12:29:07.328125,0.66
12:29:07.343750,1.01
12:29:07.359375,1.37
12:29:07.375000,1.72
12:29:07.390625,2.06
12:29:07.406250,2.40
12:29:07.421875,2.77
12:29:07.437500,3.24
12:29:07.453125,3.80
12:29:07.468750,4.42
12:29:07.484375,5.06
12:29:07.500000,5.66
12:29:07.515625,6.20
12:29:07.531250,6.68
12:29:07.546875,7.15
12:29:07.562500,7.64
12:29:07.578125,8.31
12:29:07.593750,9.14
12:29:07.609375,10.09
12:29:07.625000,11.04
12:29:07.640625,11.88
12:29:07.656250,12.56
12:29:07.671875,13.14
12:29:07.687500,13.76
12:29:07.703125,14.58
12:29:07.718750,15.96
12:29:07.734375,17.91
12:29:07.750000,20.32
12:29:07.765625,22.90
12:29:07.781250,25.38
12:29:07.796875,27.58
12:29:07.812500,29.57
12:29:07.828125,31.68
12:29:07.843750,34.20
12:29:07.859375,37.81
12:29:07.875000,42.54
12:29:07.890625,48.15
12:29:07.906250,54.10
12:29:07.921875,59.83
12:29:07.937500,64.97
12:29:07.953125,69.58
12:29:07.968750,74.14
12:29:07.984375,79.19
12:29:08,85.71
12:29:08.015625,93.76
12:29:08.031250,103.00
12:29:08.046875,112.62
12:29:08.062500,121.73
12:29:08.078125,129.77
12:29:08.093750,136.75
12:29:08.109375,144.29
12:29:08.125000,150.58
12:29:08.140625,157.77
12:29:08.156250,166.64
12:29:08.171875,177.95
12:29:08.187500,191.79
12:29:08.203125,206.97
12:29:08.218750,220.57
12:29:08.234375,228.25
12:29:08.250000,225.36
12:29:08.265625,208.37
12:29:08.281250,176.87
12:29:08.296875,132.76
12:29:08.312500,80.05
12:29:08.328125,23.07
12:29:08.343750,-34.94
12:29:08.359375,-92.44
12:29:08.375000,-149.16
12:29:08.390625,-205.23
12:29:08.406250,-260.49
12:29:08.421875,-313.74
12:29:08.437500,-363.87
12:29:08.453125,-409.83
12:29:08.468750,-450.91
12:29:08.484375,-486.50
12:29:08.500000,-515.74
12:29:08.515625,-537.23
12:29:08.531250,-549.22
12:29:08.546875,-550.04
12:29:08.562500,-538.37
12:29:08.578125,-514.20
12:29:08.593750,-478.67
12:29:08.609375,-433.88
12:29:08.625000,-382.45
12:29:08.640625,-327.02
12:29:08.656250,-269.84
12:29:08.671875,-212.63
12:29:08.687500,-156.70
12:29:08.703125,-102.95
12:29:08.718750,-52.37
12:29:08.734375,-5.90
12:29:08.750000,35.58
12:29:08.765625,71.43
12:29:08.781250,101.35
12:29:08.796875,125.50
12:29:08.812500,144.38
12:29:08.828125,158.68
12:29:08.843750,169.15
12:29:08.859375,176.37
12:29:08.875000,180.75
12:29:08.890625,182.57
12:29:08.906250,182.07
12:29:08.921875,179.51
12:29:08.937500,175.23
12:29:08.953125,169.65
12:29:08.968750,163.18
12:29:08.984375,156.15
12:29:09,148.81
12:29:09.015625,141.30
12:29:09.031250,133.69
12:29:09.046875,126.02
12:29:09.062500,118.33
12:29:09.078125,110.69
12:29:09.093750,103.16
12:29:09.109375,95.80
12:29:09.125000,88.68
12:29:09.140625,81.83
12:29:09.156250,75.25
12:29:09.171875,68.95
12:29:09.187500,62.95
12:29:09.203125,57.25
12:29:09.218750,51.86
12:29:09.234375,46.78
12:29:09.250000,42.03
12:29:09.265625,37.59
12:29:09.281250,33.45
12:29:09.296875,29.61
12:29:09.312500,26.07
12:29:09.328125,22.81
12:29:09.343750,19.82
12:29:09.359375,17.11
12:29:09.375000,14.67
12:29:09.390625,12.48
12:29:09.406250,10.54
12:29:09.421875,8.83
12:29:09.437500,7.35
12:29:09.453125,6.07
12:29:09.468750,4.97
12:29:09.484375,4.05
12:29:09.500000,3.27
12:29:09.515625,2.62
12:29:09.531250,2.09
12:29:09.546875,1.65
12:29:09.562500,1.30
12:29:09.578125,1.01
12:29:09.593750,0.79
12:29:09.609375,0.61
12:29:09.625000,0.47
12:29:09.640625,0.37
12:29:09.656250,0.29
12:29:09.671875,0.23
12:29:09.687500,0.19
12:29:09.703125,0.17
12:29:09.718750,0.15
12:29:09.734375,0.15
12:29:09.750000,0.16
12:29:09.765625,0.18
12:29:09.781250,0.20
12:29:09.796875,0.23
12:29:09.812500,0.26
12:29:09.828125,0.31
12:29:09.843750,0.34
12:29:09.859375,0.39
12:29:09.875000,0.43
12:29:09.890625,0.48
12:29:09.906250,0.52
12:29:09.921875,0.57
12:29:09.937500,0.62
12:29:09.953125,0.68
12:29:09.968750,0.74
12:29:09.984375,0.80
12:29:10,0.86
12:29:10.015625,0.94
12:29:10.031250,1.02
12:29:10.046875,1.11
12:29:10.062500,1.21
12:29:10.078125,1.33
12:29:10.093750,1.45
12:29:10.109375,1.59
12:29:10.125000,1.75
12:29:10.140625,1.93
12:29:10.156250,2.13
12:29:10.171875,2.35
12:29:10.187500,2.60
12:29:10.203125,2.87
12:29:10.218750,3.16
12:29:10.234375,3.50
12:29:10.250000,3.85
12:29:10.265625,4.25
12:29:10.281250,4.67
12:29:10.296875,5.13
12:29:10.312500,5.63
12:29:10.328125,6.17
12:29:10.343750,6.74
12:29:10.359375,7.36
12:29:10.375000,8.02
12:29:10.390625,8.72
12:29:10.406250,9.46
12:29:10.421875,10.25
12:29:10.437500,11.09
12:29:10.453125,11.97
12:29:10.468750,12.89
12:29:10.484375,13.87
12:29:10.500000,14.90
12:29:10.515625,16.00
12:29:10.531250,17.16
12:29:10.546875,18.39
12:29:10.562500,19.64
12:29:10.578125,20.91
12:29:10.593750,22.12
12:29:10.609375,23.20
12:29:10.625000,24.06
12:29:10.640625,24.56
12:29:10.656250,24.60
12:29:10.671875,24.04
12:29:10.687500,22.82
12:29:10.703125,20.88
12:29:10.718750,18.23
12:29:10.734375,14.92
12:29:10.750000,11.05
12:29:10.765625,6.79
12:29:10.781250,2.35
12:29:10.796875,-2.08
12:29:10.812500,-6.27
12:29:10.828125,-10.03
12:29:10.843750,-13.21
12:29:10.859375,-15.69
12:29:10.875000,-17.43
12:29:10.890625,-18.41
12:29:10.906250,-18.69
12:29:10.921875,-18.34
12:29:10.937500,-17.50
12:29:10.953125,-16.27
12:29:10.968750,-14.77
12:29:10.984375,-13.10
12:29:11,-11.33
12:29:11.015625,-9.51
12:29:11.031250,-7.67
12:29:11.046875,-5.77
12:29:11.062500,-3.86
12:29:11.078125,-1.95
12:29:11.093750,-0.08
12:29:11.109375,1.72
12:29:11.125000,3.36
12:29:11.140625,4.84
12:29:11.156250,6.17
12:29:11.171875,7.44
12:29:11.187500,8.80
12:29:11.203125,10.33
12:29:11.218750,12.05
12:29:11.234375,14.01
12:29:11.250000,16.18
12:29:11.265625,18.49
12:29:11.281250,20.89
12:29:11.296875,23.39
12:29:11.312500,26.08
12:29:11.328125,29.21
12:29:11.343750,32.68
12:29:11.359375,36.48
12:29:11.375000,40.56
12:29:11.390625,44.77
12:29:11.406250,48.92
12:29:11.421875,52.88
12:29:11.437500,56.64
12:29:11.453125,60.45
12:29:11.468750,64.77
12:29:11.484375,69.64
12:29:11.500000,75.10
12:29:11.515625,81.02
12:29:11.531250,87.02
12:29:11.546875,92.54
12:29:11.562500,97.11
12:29:11.578125,100.61
12:29:11.593750,103.41
12:29:11.609375,106.32
12:29:11.625000,109.68
12:29:11.640625,113.67
12:29:11.656250,117.95
12:29:11.671875,121.50
12:29:11.687500,122.80
12:29:11.703125,120.23
12:29:11.718750,112.43
12:29:11.734375,98.28
12:29:11.750000,81.72
12:29:11.765625,64.89
12:29:11.781250,49.19
12:29:11.796875,34.91
12:29:11.812500,21.10
12:29:11.828125,6.07
12:29:11.843750,-11.79
12:29:11.859375,-33.17
12:29:11.875000,-57.33
12:29:11.890625,-82.35
12:29:11.906250,-106.44
12:29:11.921875,-128.10
12:29:11.937500,-146.90
12:29:11.953125,-163.72
12:29:11.968750,-180.47
12:29:11.984375,-199.78
12:29:12,-224.32
12:29:12.015625,-256.00
12:29:12.031250,-294.68
12:29:12.046875,-337.40
12:29:12.062500,-377.23
12:29:12.078125,-404.41
12:29:12.093750,-409.26
12:29:12.109375,-385.89
12:29:12.125000,-335.03
12:29:12.140625,-264.37
12:29:12.156250,-186.13
12:29:12.171875,-112.84
12:29:12.187500,-53.74
12:29:12.203125,-12.56
12:29:12.218750,11.92
12:29:12.234375,23.58
12:29:12.250000,26.67
12:29:12.265625,24.56
12:29:12.281250,19.81
12:29:12.296875,14.84
12:29:12.312500,12.36
12:29:12.328125,14.97
12:29:12.343750,24.69
12:29:12.359375,42.22
12:29:12.375000,66.58
12:29:12.390625,95.04
12:29:12.406250,123.76
12:29:12.421875,148.61
12:29:12.437500,166.01
12:29:12.453125,173.83
12:29:12.468750,171.93
12:29:12.484375,162.10
12:29:12.500000,147.51
12:29:12.515625,131.60
12:29:12.531250,116.91
12:29:12.546875,104.33
12:29:12.562500,92.87
12:29:12.578125,80.13
12:29:12.593750,63.33
12:29:12.609375,40.38
12:29:12.625000,10.81
12:29:12.640625,-23.97
12:29:12.656250,-61.02
12:29:12.671875,-96.62
12:29:12.687500,-127.28
12:29:12.703125,-150.52
12:29:12.718750,-165.26
12:29:12.734375,-172.03
12:29:12.750000,-172.81
12:29:12.765625,-170.75
12:29:12.781250,-169.51
12:29:12.796875,-172.02
12:29:12.812500,-179.30
12:29:12.828125,-189.56
12:29:12.843750,-198.31
12:29:12.859375,-199.72
12:29:12.875000,-188.61
12:29:12.890625,-162.10
12:29:12.906250,-120.21
12:29:12.921875,-65.32
12:29:12.937500,-1.02
12:29:12.953125,68.69
12:29:12.968750,139.54
12:29:12.984375,206.67
12:29:13,264.51
12:29:13.015625,307.64
12:29:13.031250,332.32
12:29:13.046875,338.00
12:29:13.062500,327.84
12:29:13.078125,307.80
12:29:13.093750,284.56
12:29:13.109375,263.41
12:29:13.125000,246.97
12:29:13.140625,235.17
12:29:13.156250,226.31
12:29:13.171875,218.42
12:29:13.187500,210.22
12:29:13.203125,201.32
12:29:13.218750,191.82
12:29:13.234375,181.65
12:29:13.250000,170.27
12:29:13.265625,156.72
12:29:13.281250,140.07
12:29:13.296875,120.07
12:29:13.312500,97.46
12:29:13.328125,73.91
12:29:13.343750,51.54
12:29:13.359375,32.24
12:29:13.375000,17.13
12:29:13.390625,6.36
12:29:13.406250,-0.89
12:29:13.421875,-6.11
12:29:13.437500,-11.12
12:29:13.453125,-17.98
12:29:13.468750,-28.71
12:29:13.484375,-45.14
12:29:13.500000,-68.58
12:29:13.515625,-99.41
12:29:13.531250,-136.80
12:29:13.546875,-178.78
12:29:13.562500,-222.82
12:29:13.578125,-266.39
12:29:13.593750,-307.41
12:29:13.609375,-343.89
12:29:13.625000,-373.37
12:29:13.640625,-392.55
12:29:13.656250,-397.59
12:29:13.671875,-385.35
12:29:13.687500,-354.77
12:29:13.703125,-307.51
12:29:13.718750,-247.37
12:29:13.734375,-178.86
12:29:13.750000,-105.66
12:29:13.765625,-30.39
12:29:13.781250,44.66
12:29:13.796875,116.08
12:29:13.812500,178.73
12:29:13.828125,226.54
12:29:13.843750,254.54
12:29:13.859375,261.10
12:29:13.875000,248.85
12:29:13.890625,223.91
12:29:13.906250,193.70
12:29:13.921875,164.58
12:29:13.937500,140.44
12:29:13.953125,122.60
12:29:13.968750,110.64
12:29:13.984375,103.47
12:29:14,99.98
12:29:14.015625,99.08
12:29:14.031250,99.49
12:29:14.046875,99.55
12:29:14.062500,97.54
12:29:14.078125,92.11
12:29:14.093750,82.61
12:29:14.109375,69.36
12:29:14.125000,53.23
12:29:14.140625,35.23
12:29:14.156250,16.09
12:29:14.171875,-3.90
12:29:14.187500,-24.74
12:29:14.203125,-46.41
12:29:14.218750,-68.60
12:29:14.234375,-90.80
12:29:14.250000,-112.35
12:29:14.265625,-132.82
12:29:14.281250,-152.13
12:29:14.296875,-170.59
12:29:14.312500,-188.67
12:29:14.328125,-206.95
12:29:14.343750,-225.95
12:29:14.359375,-246.07
12:29:14.375000,-267.14
12:29:14.390625,-287.88
12:29:14.406250,-305.55
12:29:14.421875,-316.12
12:29:14.437500,-315.22
12:29:14.453125,-299.64
12:29:14.468750,-268.52
12:29:14.484375,-223.63
12:29:14.500000,-168.41
12:29:14.515625,-106.53
12:29:14.531250,-40.69
12:29:14.546875,27.27
12:29:14.562500,95.35
12:29:14.578125,160.10
12:29:14.593750,216.30
12:29:14.609375,257.97
12:29:14.625000,280.52
12:29:14.640625,282.68
12:29:14.656250,267.35
12:29:14.671875,240.70
12:29:14.687500,210.17
12:29:14.703125,182.25
12:29:14.718750,160.89
12:29:14.734375,147.21
12:29:14.750000,140.04
12:29:14.765625,137.03
12:29:14.781250,135.72
12:29:14.796875,134.03
12:29:14.812500,130.53
12:29:14.828125,124.22
12:29:14.843750,114.42
12:29:14.859375,100.63
12:29:14.875000,82.60
12:29:14.890625,60.51
12:29:14.906250,35.01
12:29:14.921875,7.28
12:29:14.937500,-21.16
12:29:14.953125,-48.75
12:29:14.968750,-74.19
12:29:14.984375,-96.63
12:29:15,-115.85
12:29:15.015625,-132.15
12:29:15.031250,-146.20
12:29:15.046875,-158.80
12:29:15.062500,-170.79
12:29:15.078125,-183.06
12:29:15.093750,-196.60
12:29:15.109375,-212.44
12:29:15.125000,-231.20
12:29:15.140625,-252.30
12:29:15.156250,-273.27
12:29:15.171875,-289.88
12:29:15.187500,-297.01
12:29:15.203125,-290.35
12:29:15.218750,-268.02
12:29:15.234375,-231.13
12:29:15.250000,-183.02
12:29:15.265625,-127.66
12:29:15.281250,-68.00
12:29:15.296875,-5.68
12:29:15.312500,58.07
12:29:15.328125,120.84
12:29:15.343750,178.11
12:29:15.359375,223.74
12:29:15.375000,251.97
12:29:15.390625,259.77
12:29:15.406250,248.26
12:29:15.421875,222.52
12:29:15.437500,189.80
12:29:15.453125,157.26
12:29:15.468750,130.14
12:29:15.484375,111.07
12:29:15.500000,100.48
12:29:15.515625,97.42
12:29:15.531250,100.31
12:29:15.546875,107.33
12:29:15.562500,116.43
12:29:15.578125,125.40
12:29:15.593750,132.16
12:29:15.609375,135.10
12:29:15.625000,133.41
12:29:15.640625,127.07
12:29:15.656250,116.63
12:29:15.671875,102.73
12:29:15.687500,85.81
12:29:15.703125,66.10
12:29:15.718750,43.80
12:29:15.734375,19.48
12:29:15.750000,-5.82
12:29:15.765625,-30.86
12:29:15.781250,-54.56
12:29:15.796875,-76.56
12:29:15.812500,-97.37
12:29:15.828125,-118.25
12:29:15.843750,-140.87
12:29:15.859375,-166.92
12:29:15.875000,-197.60
12:29:15.890625,-233.19
12:29:15.906250,-272.29
12:29:15.921875,-311.40
12:29:15.937500,-345.14
12:29:15.953125,-367.38
12:29:15.968750,-373.03
12:29:15.984375,-359.92
12:29:16,-329.52
12:29:16.015625,-286.33
12:29:16.031250,-236.03
12:29:16.046875,-183.24
12:29:16.062500,-130.07
12:29:16.078125,-76.06
12:29:16.093750,-19.59
12:29:16.109375,39.99
12:29:16.125000,100.70
12:29:16.140625,157.57
12:29:16.156250,203.92
12:29:16.171875,233.78
12:29:16.187500,244.35
12:29:16.203125,237.30
12:29:16.218750,218.33
12:29:16.234375,195.09
12:29:16.250000,174.55
12:29:16.265625,160.96
12:29:16.281250,155.20
12:29:16.296875,155.66
12:29:16.312500,159.66
12:29:16.328125,164.82
12:29:16.343750,169.55
12:29:16.359375,172.86
12:29:16.375000,173.83
12:29:16.390625,171.49
12:29:16.406250,164.94
12:29:16.421875,153.70
12:29:16.437500,137.97
12:29:16.453125,118.52
12:29:16.468750,96.58
12:29:16.484375,73.39
12:29:16.500000,50.06
12:29:16.515625,27.34
12:29:16.531250,5.59
12:29:16.546875,-15.21
12:29:16.562500,-35.46
12:29:16.578125,-55.87
12:29:16.593750,-77.27
12:29:16.609375,-100.56
12:29:16.625000,-126.55
12:29:16.640625,-155.88
12:29:16.656250,-188.73
12:29:16.671875,-224.40
12:29:16.687500,-260.72
12:29:16.703125,-293.86
12:29:16.718750,-318.81
12:29:16.734375,-330.62
12:29:16.750000,-325.98
12:29:16.765625,-304.47
12:29:16.781250,-268.66
12:29:16.796875,-223.10
12:29:16.812500,-172.47
12:29:16.828125,-119.84
12:29:16.843750,-65.92
12:29:16.859375,-9.76
12:29:16.875000,49.43
12:29:16.890625,110.28
12:29:16.906250,168.42
12:29:16.921875,217.29
12:29:16.937500,250.37
12:29:16.953125,263.94
12:29:16.968750,258.76
12:29:16.984375,240.09
12:29:17,215.72
12:29:17.015625,193.16
12:29:17.031250,177.23
12:29:17.046875,169.16
12:29:17.062500,167.24
12:29:17.078125,168.64
12:29:17.093750,170.94
12:29:17.109375,172.92
12:29:17.125000,174.25
12:29:17.140625,174.71
12:29:17.156250,173.54
12:29:17.171875,169.31
12:29:17.187500,160.39
12:29:17.203125,145.56
12:29:17.218750,124.53
12:29:17.234375,98.18
12:29:17.250000,68.31
12:29:17.265625,37.16
12:29:17.281250,6.71
12:29:17.296875,-21.74
12:29:17.312500,-47.87
12:29:17.328125,-72.22
12:29:17.343750,-95.89
12:29:17.359375,-120.19
12:29:17.375000,-146.34
12:29:17.390625,-175.35
12:29:17.406250,-207.87
12:29:17.421875,-243.69
12:29:17.437500,-281.21
12:29:17.453125,-317.02
12:29:17.468750,-346.09
12:29:17.484375,-363.07
12:29:17.500000,-363.78
12:29:17.515625,-346.93
12:29:17.531250,-314.53
12:29:17.546875,-271.06
12:29:17.562500,-221.80
12:29:17.578125,-170.76
12:29:17.593750,-119.57
12:29:17.609375,-67.48
12:29:17.625000,-12.66
12:29:17.640625,45.82
12:29:17.656250,106.26
12:29:17.671875,163.82
12:29:17.687500,211.62
12:29:17.703125,243.11
12:29:17.718750,254.68
12:29:17.734375,247.43
12:29:17.750000,227.01
12:29:17.765625,201.73
12:29:17.781250,179.58
12:29:17.796875,165.63
12:29:17.812500,160.98
12:29:17.828125,163.46
12:29:17.843750,169.37
12:29:17.859375,175.36
12:29:17.875000,179.36
12:29:17.890625,180.52
12:29:17.906250,178.55
12:29:17.921875,173.14
12:29:17.937500,163.72
12:29:17.953125,149.75
12:29:17.968750,131.08
12:29:17.984375,108.23
12:29:18,82.58
12:29:18.015625,56.01
12:29:18.031250,30.51
12:29:18.046875,7.46
12:29:18.062500,-12.74
12:29:18.078125,-30.84
12:29:18.093750,-48.53
12:29:18.109375,-67.73
12:29:18.125000,-90.08
12:29:18.140625,-116.50
12:29:18.156250,-147.23
12:29:18.171875,-181.81
12:29:18.187500,-218.99
12:29:18.203125,-256.39
12:29:18.218750,-290.27
12:29:18.234375,-315.94
12:29:18.250000,-328.68
12:29:18.265625,-325.27
12:29:18.281250,-305.15
12:29:18.296875,-270.58
12:29:18.312500,-225.80
12:29:18.328125,-175.38
12:29:18.343750,-122.62
12:29:18.359375,-68.67
12:29:18.375000,-12.94
12:29:18.390625,45.53
12:29:18.406250,106.29
12:29:18.421875,166.28
12:29:18.437500,219.98
12:29:18.453125,260.96
12:29:18.468750,284.23
12:29:18.484375,288.44
12:29:18.500000,276.57
12:29:18.515625,255.02
12:29:18.531250,231.34
12:29:18.546875,211.65
12:29:18.562500,199.13
12:29:18.578125,194.04
12:29:18.593750,194.69
12:29:18.609375,198.97
12:29:18.625000,204.97
12:29:18.640625,211.10
12:29:18.656250,215.65
12:29:18.671875,216.66
12:29:18.687500,212.28
12:29:18.703125,201.52
12:29:18.718750,184.71
12:29:18.734375,163.29
12:29:18.750000,139.27
12:29:18.765625,114.35
12:29:18.781250,89.35
12:29:18.796875,64.23
12:29:18.812500,38.48
12:29:18.828125,11.67
12:29:18.843750,-16.17
12:29:18.859375,-44.51
12:29:18.875000,-72.73
12:29:18.890625,-100.46
12:29:18.906250,-127.90
12:29:18.921875,-155.88
12:29:18.937500,-185.66
12:29:18.953125,-218.47
12:29:18.968750,-254.75
12:29:18.984375,-293.31
12:29:19,-330.79
12:29:19.015625,-361.95
12:29:19.031250,-380.76
12:29:19.046875,-382.39
12:29:19.062500,-364.83
12:29:19.078125,-329.69
12:29:19.093750,-281.52
12:29:19.109375,-225.87
12:29:19.125000,-167.16
12:29:19.140625,-107.23
12:29:19.156250,-45.57
12:29:19.171875,19.13
12:29:19.187500,86.56
12:29:19.203125,153.30
12:29:19.218750,212.95
12:29:19.234375,258.04
12:29:19.250000,282.90
12:29:19.265625,286.13
12:29:19.281250,271.30
12:29:19.296875,245.74
12:29:19.312500,217.89
12:29:19.328125,194.54
12:29:19.343750,179.14
12:29:19.359375,171.79
12:29:19.375000,170.44
12:29:19.390625,172.49
12:29:19.406250,175.73
12:29:19.421875,178.57
12:29:19.437500,179.57
12:29:19.453125,177.23
12:29:19.468750,170.04
12:29:19.484375,157.05
12:29:19.500000,138.27
12:29:19.515625,114.76
12:29:19.531250,88.32
12:29:19.546875,60.82
12:29:19.562500,33.66
12:29:19.578125,7.51
12:29:19.593750,-17.48
12:29:19.609375,-41.39
12:29:19.625000,-64.26
12:29:19.640625,-86.00
12:29:19.656250,-106.54
12:29:19.671875,-125.99
12:29:19.687500,-144.85
12:29:19.703125,-163.93
12:29:19.718750,-184.33
12:29:19.734375,-207.20
12:29:19.750000,-233.30
12:29:19.765625,-262.27
12:29:19.781250,-291.96
12:29:19.796875,-318.19
12:29:19.812500,-335.44
12:29:19.828125,-338.44
12:29:19.843750,-323.96
12:29:19.859375,-292.02
12:29:19.875000,-245.83
12:29:19.890625,-190.24
12:29:19.906250,-129.65
12:29:19.921875,-66.42
12:29:19.937500,-0.87
12:29:19.953125,67.17
12:29:19.968750,136.09
12:29:19.984375,201.32
12:29:20,255.78
12:29:20.015625,292.34
12:29:20.031250,306.65
12:29:20.046875,299.18
12:29:20.062500,275.18
12:29:20.078125,242.63
12:29:20.093750,209.53
12:29:20.109375,181.51
12:29:20.125000,160.94
12:29:20.140625,147.54
12:29:20.156250,139.73
12:29:20.171875,135.80
12:29:20.187500,134.35
12:29:20.203125,134.11
12:29:20.218750,133.57
12:29:20.234375,130.96
12:29:20.250000,124.66
12:29:20.265625,113.74
12:29:20.281250,98.26
12:29:20.296875,79.17
12:29:20.312500,57.86
12:29:20.328125,35.56
12:29:20.343750,13.10
12:29:20.359375,-9.26
12:29:20.375000,-31.44
12:29:20.390625,-53.34
12:29:20.406250,-74.72
12:29:20.421875,-95.26
12:29:20.437500,-114.74
12:29:20.453125,-133.24
12:29:20.468750,-151.04
12:29:20.484375,-168.67
12:29:20.500000,-186.86
12:29:20.515625,-206.51
12:29:20.531250,-228.64
12:29:20.546875,-253.79
12:29:20.562500,-281.21
12:29:20.578125,-308.06
12:29:20.593750,-329.56
12:29:20.609375,-339.99
12:29:20.625000,-334.62
12:29:20.640625,-311.52
12:29:20.656250,-272.10
12:29:20.671875,-220.25
12:29:20.687500,-160.46
12:29:20.703125,-96.14
12:29:20.718750,-29.42
12:29:20.734375,37.72
12:29:20.750000,101.84
12:29:20.765625,157.43
12:29:20.781250,197.93
12:29:20.796875,218.22
12:29:20.812500,217.06
12:29:20.828125,198.00
12:29:20.843750,168.38
12:29:20.859375,136.78
12:29:20.875000,110.25
12:29:20.890625,92.74
12:29:20.906250,84.88
12:29:20.921875,84.90
12:29:20.937500,90.08
12:29:20.953125,97.74
12:29:20.968750,105.67
12:29:20.984375,112.27
12:29:21,116.45
12:29:21.015625,117.53
12:29:21.031250,115.27
12:29:21.046875,109.71
12:29:21.062500,101.10
12:29:21.078125,89.89
12:29:21.093750,76.70
12:29:21.109375,62.24
12:29:21.125000,47.34
12:29:21.140625,32.67
12:29:21.156250,18.50
12:29:21.171875,4.59
12:29:21.187500,-9.76
12:29:21.203125,-25.37
12:29:21.218750,-42.88
12:29:21.234375,-62.52
12:29:21.250000,-84.33
12:29:21.265625,-108.56
12:29:21.281250,-135.90
12:29:21.296875,-167.13
12:29:21.312500,-202.06
12:29:21.328125,-238.46
12:29:21.343750,-271.53
12:29:21.359375,-294.80
12:29:21.375000,-302.12
12:29:21.390625,-289.82
12:29:21.406250,-258.04
12:29:21.421875,-210.23
12:29:21.437500,-151.49
12:29:21.453125,-86.71
12:29:21.468750,-19.65
12:29:21.484375,46.65
12:29:21.500000,108.72
12:29:21.515625,162.07
12:29:21.531250,201.69
12:29:21.546875,223.74
12:29:21.562500,227.25
12:29:21.578125,214.90
12:29:21.593750,192.28
12:29:21.609375,166.14
12:29:21.625000,142.40
12:29:21.640625,124.98
12:29:21.656250,115.45
12:29:21.671875,113.51
12:29:21.687500,117.73
12:29:21.703125,126.11
12:29:21.718750,136.42
12:29:21.734375,146.40
12:29:21.750000,153.92
12:29:21.765625,157.35
12:29:21.781250,155.74
12:29:21.796875,148.91
12:29:21.812500,137.38
12:29:21.828125,121.99
12:29:21.843750,103.52
12:29:21.859375,82.43
12:29:21.875000,58.94
12:29:21.890625,33.29
12:29:21.906250,6.13
12:29:21.921875,-21.38
12:29:21.937500,-47.81
12:29:21.953125,-71.93
12:29:21.968750,-93.29
12:29:21.984375,-112.41
12:29:22,-130.55
12:29:22.015625,-149.25
12:29:22.031250,-169.87
12:29:22.046875,-193.40
12:29:22.062500,-220.25
12:29:22.078125,-249.96
12:29:22.093750,-280.58
12:29:22.109375,-308.42
12:29:22.125000,-328.39
12:29:22.140625,-335.23
12:29:22.156250,-325.21
12:29:22.171875,-297.55
12:29:22.187500,-254.62
12:29:22.203125,-200.77
12:29:22.218750,-140.35
12:29:22.234375,-76.24
12:29:22.250000,-9.81
12:29:22.265625,57.74
12:29:22.281250,123.66
12:29:22.296875,182.93
12:29:22.312500,229.23
12:29:22.328125,257.20
12:29:22.343750,264.87
12:29:22.359375,254.67
12:29:22.375000,232.72
12:29:22.390625,206.63
12:29:22.406250,183.20
12:29:22.421875,166.70
12:29:22.437500,158.52
12:29:22.453125,157.89
12:29:22.468750,162.81
12:29:22.484375,170.89
12:29:22.500000,179.75
12:29:22.515625,187.13
12:29:22.531250,190.96
12:29:22.546875,189.70
12:29:22.562500,182.56
12:29:22.578125,169.66
12:29:22.593750,151.89
12:29:22.609375,130.53
12:29:22.625000,106.76
12:29:22.640625,81.37
12:29:22.656250,54.69
12:29:22.671875,26.85
12:29:22.687500,-1.82
12:29:22.703125,-30.62
12:29:22.718750,-58.54
12:29:22.734375,-84.64
12:29:22.750000,-108.51
12:29:22.765625,-130.49
12:29:22.781250,-151.60
12:29:22.796875,-173.17
12:29:22.812500,-196.49
12:29:22.828125,-222.48
12:29:22.843750,-251.46
12:29:22.859375,-282.67
12:29:22.875000,-313.91
12:29:22.890625,-341.30
12:29:22.906250,-359.86
12:29:22.921875,-364.69
12:29:22.937500,-352.59
12:29:22.953125,-323.23
12:29:22.968750,-279.26
12:29:22.984375,-225.09
12:29:23,-164.96
12:29:23.015625,-101.42
12:29:23.031250,-35.23
12:29:23.046875,33.13
12:29:23.062500,101.55
12:29:23.078125,165.04
12:29:23.093750,216.46
12:29:23.109375,248.91
12:29:23.125000,258.74
12:29:23.140625,247.37
12:29:23.156250,221.09
12:29:23.171875,188.77
12:29:23.187500,158.70
12:29:23.203125,136.18
12:29:23.218750,122.65
12:29:23.234375,116.56
12:29:23.250000,115.08
12:29:23.265625,115.60
12:29:23.281250,116.32
12:29:23.296875,116.18
12:29:23.312500,114.32
12:29:23.328125,109.86
12:29:23.343750,102.03
12:29:23.359375,90.48
12:29:23.375000,75.43
12:29:23.390625,57.54
12:29:23.406250,37.59
12:29:23.421875,16.14
12:29:23.437500,-6.50
12:29:23.453125,-30.07
12:29:23.468750,-54.09
12:29:23.484375,-77.73
12:29:23.500000,-99.98
12:29:23.515625,-120.00
12:29:23.531250,-137.48
12:29:23.546875,-152.71
12:29:23.562500,-166.57
12:29:23.578125,-180.23
12:29:23.593750,-195.00
12:29:23.609375,-212.03
12:29:23.625000,-231.84
12:29:23.640625,-253.73
12:29:23.656250,-275.29
12:29:23.671875,-292.43
12:29:23.687500,-300.33
12:29:23.703125,-294.94
12:29:23.718750,-274.45
12:29:23.734375,-239.94
12:29:23.750000,-194.77
12:29:23.765625,-142.83
12:29:23.781250,-86.89
12:29:23.796875,-27.79
12:29:23.812500,34.52
12:29:23.828125,99.08
12:29:23.843750,162.02
12:29:23.859375,216.52
12:29:23.875000,254.82
12:29:23.890625,271.38
12:29:23.906250,265.64
12:29:23.921875,242.61
12:29:23.937500,211.06
12:29:23.953125,180.10
12:29:23.968750,156.02
12:29:23.984375,140.79
12:29:24,132.78
12:29:24.015625,128.94
12:29:24.031250,126.87
12:29:24.046875,125.79
12:29:24.062500,126.15
12:29:24.078125,128.44
12:29:24.093750,132.11
12:29:24.109375,135.31
12:29:24.125000,135.43
12:29:24.140625,129.96
12:29:24.156250,117.37
12:29:24.171875,97.63
12:29:24.187500,72.09
12:29:24.203125,43.14
12:29:24.218750,13.41
12:29:24.234375,-14.97
12:29:24.250000,-40.87
12:29:24.265625,-64.26
12:29:24.281250,-85.83
12:29:24.296875,-106.33
12:29:24.312500,-126.26
12:29:24.328125,-145.89
12:29:24.343750,-165.68
12:29:24.359375,-186.44
12:29:24.375000,-208.89
12:29:24.390625,-232.70
12:29:24.406250,-255.51
12:29:24.421875,-272.95
12:29:24.437500,-279.74
12:29:24.453125,-271.61
12:29:24.468750,-246.93
12:29:24.484375,-207.19
12:29:24.500000,-155.75
12:29:24.515625,-96.11
12:29:24.531250,-30.81
12:29:24.546875,38.11
12:29:24.562500,107.41
12:29:24.578125,171.25
12:29:24.593750,221.53
12:29:24.609375,250.40
12:29:24.625000,253.88
12:29:24.640625,234.35
12:29:24.656250,200.53
12:29:24.671875,164.48
12:29:24.687500,137.12
12:29:24.703125,124.58
12:29:24.718750,126.76
12:29:24.734375,138.56
12:29:24.750000,152.88
12:29:24.765625,163.51
12:29:24.781250,166.87
12:29:24.796875,162.26
12:29:24.812500,151.02
12:29:24.828125,135.38
12:29:24.843750,117.62
12:29:24.859375,99.52
12:29:24.875000,82.03
12:29:24.890625,65.33
12:29:24.906250,48.93
12:29:24.921875,31.97
12:29:24.937500,13.56
12:29:24.953125,-7.05
12:29:24.968750,-30.32
12:29:24.984375,-56.41
12:29:25,-85.13
12:29:25.015625,-115.88
12:29:25.031250,-147.64
12:29:25.046875,-179.16
12:29:25.062500,-209.52
12:29:25.078125,-238.51
12:29:25.093750,-266.53
12:29:25.109375,-293.98
12:29:25.125000,-320.02
12:29:25.140625,-342.04
12:29:25.156250,-355.89
12:29:25.171875,-357.27
12:29:25.187500,-343.53
12:29:25.203125,-314.98
12:29:25.218750,-274.78
12:29:25.234375,-227.54
12:29:25.250000,-177.45
12:29:25.265625,-126.68
12:29:25.281250,-75.05
12:29:25.296875,-20.90
12:29:25.312500,37.04
12:29:25.328125,98.03
12:29:25.343750,158.29
12:29:25.359375,211.62
12:29:25.375000,251.26
12:29:25.390625,272.41
12:29:25.406250,274.43
12:29:25.421875,261.34
12:29:25.437500,240.67
12:29:25.453125,220.66
12:29:25.468750,207.31
12:29:25.484375,202.72
12:29:25.500000,205.22
12:29:25.515625,211.06
12:29:25.531250,216.58
12:29:25.546875,219.60
12:29:25.562500,219.38
12:29:25.578125,215.80
12:29:25.593750,208.25
12:29:25.609375,195.32
12:29:25.625000,175.32
12:29:25.640625,147.30
12:29:25.656250,111.87
12:29:25.671875,71.42
12:29:25.687500,29.67
12:29:25.703125,-9.52
12:29:25.718750,-43.34
12:29:25.734375,-70.79
12:29:25.750000,-92.97
12:29:25.765625,-112.45
12:29:25.781250,-132.46
12:29:25.796875,-155.83
12:29:25.812500,-184.37
12:29:25.828125,-218.49
12:29:25.843750,-256.97
12:29:25.859375,-296.87
12:29:25.875000,-333.65
12:29:25.890625,-361.86
12:29:25.906250,-376.32
12:29:25.921875,-373.70
12:29:25.937500,-353.55
12:29:25.953125,-318.55
12:29:25.968750,-273.44
12:29:25.984375,-223.28
12:29:26,-171.84
12:29:26.015625,-120.77
12:29:26.031250,-69.70
12:29:26.046875,-17.13
12:29:26.062500,38.37
12:29:26.078125,96.91
12:29:26.093750,156.48
12:29:26.109375,212.77
12:29:26.125000,260.04
12:29:26.140625,292.75
12:29:26.156250,307.77
12:29:26.171875,305.82
12:29:26.187500,291.61
12:29:26.203125,272.15
12:29:26.218750,254.12
12:29:26.234375,241.50
12:29:26.250000,234.69
12:29:26.265625,231.34
12:29:26.281250,228.13
12:29:26.296875,222.67
12:29:26.312500,214.12
12:29:26.328125,202.78
12:29:26.343750,189.12
12:29:26.359375,172.91
12:29:26.375000,153.24
12:29:26.390625,129.09
12:29:26.406250,100.14
12:29:26.421875,67.28
12:29:26.437500,32.76
12:29:26.453125,-0.57
12:29:26.468750,-30.14
12:29:26.484375,-54.62
12:29:26.500000,-74.28
12:29:26.515625,-90.91
12:29:26.531250,-107.17
12:29:26.546875,-125.61
12:29:26.562500,-148.13
12:29:26.578125,-175.56
12:29:26.593750,-207.72
12:29:26.609375,-243.39
12:29:26.625000,-280.11
12:29:26.640625,-314.12
12:29:26.656250,-340.61
12:29:26.671875,-354.72
12:29:26.687500,-352.77
12:29:26.703125,-333.61
12:29:26.718750,-299.03
12:29:26.734375,-253.08
12:29:26.750000,-200.59
12:29:26.765625,-145.55
12:29:26.781250,-89.94
12:29:26.796875,-33.63
12:29:26.812500,24.63
12:29:26.828125,85.59
12:29:26.843750,148.04
12:29:26.859375,208.19
12:29:26.875000,260.39
12:29:26.890625,299.00
12:29:26.906250,320.66
12:29:26.921875,325.74
12:29:26.937500,318.39
12:29:26.953125,305.01
12:29:26.968750,291.76
12:29:26.984375,282.48
12:29:27,277.98
12:29:27.015625,276.62
12:29:27.031250,275.71
12:29:27.046875,272.84
12:29:27.062500,266.28
12:29:27.078125,254.86
12:29:27.093750,237.58
12:29:27.109375,213.64
12:29:27.125000,182.78
12:29:27.140625,145.68
12:29:27.156250,103.99
12:29:27.171875,59.94
12:29:27.187500,15.88
12:29:27.203125,-26.15
12:29:27.218750,-64.65
12:29:27.234375,-98.50
12:29:27.250000,-127.02
12:29:27.265625,-150.01
12:29:27.281250,-167.86
12:29:27.296875,-181.68
12:29:27.312500,-193.14
12:29:27.328125,-204.05
12:29:27.343750,-216.06
12:29:27.359375,-230.42
12:29:27.375000,-247.90
12:29:27.390625,-268.52
12:29:27.406250,-291.25
12:29:27.421875,-313.58
12:29:27.437500,-331.57
12:29:27.453125,-340.47
12:29:27.468750,-336.11
12:29:27.484375,-316.40
12:29:27.500000,-282.07
12:29:27.515625,-236.36
12:29:27.531250,-183.57
12:29:27.546875,-127.19
12:29:27.562500,-68.69
12:29:27.578125,-7.76
12:29:27.593750,56.03
12:29:27.609375,121.16
12:29:27.625000,182.94
12:29:27.640625,234.18
12:29:27.656250,267.63
12:29:27.671875,279.03
12:29:27.687500,269.23
12:29:27.703125,244.15
12:29:27.718750,212.72
12:29:27.734375,183.63
12:29:27.750000,162.57
12:29:27.765625,151.15
12:29:27.781250,147.61
12:29:27.796875,148.72
12:29:27.812500,151.42
12:29:27.828125,153.73
12:29:27.843750,154.54
12:29:27.859375,153.07
12:29:27.875000,148.40
12:29:27.890625,139.64
12:29:27.906250,126.32
12:29:27.921875,108.75
12:29:27.937500,88.03
12:29:27.953125,65.78
12:29:27.968750,43.55
12:29:27.984375,22.50
12:29:28,3.18
12:29:28.015625,-14.40
12:29:28.031250,-30.60
12:29:28.046875,-45.98
12:29:28.062500,-61.08
12:29:28.078125,-76.37
12:29:28.093750,-92.13
12:29:28.109375,-108.50
12:29:28.125000,-125.65
12:29:28.140625,-144.07
12:29:28.156250,-164.58
12:29:28.171875,-188.04
12:29:28.187500,-214.45
12:29:28.203125,-241.93
12:29:28.218750,-266.36
12:29:28.234375,-282.05
12:29:28.250000,-283.43
12:29:28.265625,-267.06
12:29:28.281250,-232.89
12:29:28.296875,-183.89
12:29:28.312500,-124.51
12:29:28.328125,-58.76
12:29:28.343750,10.57
12:29:28.359375,81.18
12:29:28.375000,149.68
12:29:28.390625,210.54
12:29:28.406250,256.66
12:29:28.421875,281.69
12:29:28.437500,282.91
12:29:28.453125,262.87
12:29:28.468750,228.92
12:29:28.484375,190.54
12:29:28.500000,156.14
12:29:28.515625,130.64
12:29:28.531250,115.01
12:29:28.546875,107.34
12:29:28.562500,104.71
12:29:28.578125,104.63
12:29:28.593750,105.37
12:29:28.609375,105.61
12:29:28.625000,103.91
12:29:28.640625,98.59
12:29:28.656250,88.12
12:29:28.671875,71.74
12:29:28.687500,49.86
12:29:28.703125,23.98
12:29:28.718750,-3.84
12:29:28.734375,-31.57
12:29:28.750000,-57.64
12:29:28.765625,-81.11
12:29:28.781250,-101.43
12:29:28.796875,-118.49
12:29:28.812500,-132.51
12:29:28.828125,-144.04
12:29:28.843750,-153.93
12:29:28.859375,-163.05
12:29:28.875000,-172.03
12:29:28.890625,-181.21
12:29:28.906250,-190.82
12:29:28.921875,-201.33
12:29:28.937500,-213.24
12:29:28.953125,-226.55
12:29:28.968750,-239.93
12:29:28.984375,-250.28
12:29:29,-253.14
12:29:29.015625,-244.06
12:29:29.031250,-220.29
12:29:29.046875,-181.66
12:29:29.062500,-130.42
12:29:29.078125,-70.05
12:29:29.093750,-4.08
12:29:29.109375,64.33
12:29:29.125000,131.86
12:29:29.140625,194.24
12:29:29.156250,246.09
12:29:29.171875,281.89
12:29:29.187500,297.90
12:29:29.203125,293.99
12:29:29.218750,274.02
12:29:29.234375,244.83
12:29:29.250000,213.99
12:29:29.265625,187.60
12:29:29.281250,168.98
12:29:29.296875,158.62
12:29:29.312500,155.09
12:29:29.328125,156.14
12:29:29.343750,159.53
12:29:29.359375,163.26
12:29:29.375000,165.55
12:29:29.390625,164.75
12:29:29.406250,159.46
12:29:29.421875,148.90
12:29:29.437500,133.16
12:29:29.453125,113.48
12:29:29.468750,91.76
12:29:29.484375,70.03
12:29:29.500000,49.63
12:29:29.515625,30.82
12:29:29.531250,12.83
12:29:29.546875,-5.60
12:29:29.562500,-25.55
12:29:29.578125,-47.31
12:29:29.593750,-70.25
12:29:29.609375,-93.19
12:29:29.625000,-114.85
12:29:29.640625,-134.41
12:29:29.656250,-151.76
12:29:29.671875,-167.50
12:29:29.687500,-182.90
12:29:29.703125,-199.75
12:29:29.718750,-220.12
12:29:29.734375,-245.66
12:29:29.750000,-276.52
12:29:29.765625,-310.33
12:29:29.781250,-341.94
12:29:29.796875,-364.44
12:29:29.812500,-371.23
12:29:29.828125,-358.34
12:29:29.843750,-325.69
12:29:29.859375,-276.72
12:29:29.875000,-216.66
12:29:29.890625,-150.67
12:29:29.906250,-82.78
12:29:29.921875,-16.12
12:29:29.937500,46.17
12:29:29.953125,100.31
12:29:29.968750,142.33
12:29:29.984375,169.46
12:29:30,181.44
12:29:30.015625,181.07
12:29:30.031250,173.30
12:29:30.046875,163.61
12:29:30.062500,156.29
12:29:30.078125,153.63
12:29:30.093750,156.00
12:29:30.109375,162.57
12:29:30.125000,172.13
12:29:30.140625,183.52
12:29:30.156250,195.63
12:29:30.171875,207.12
12:29:30.187500,216.32
12:29:30.203125,221.30
12:29:30.218750,220.32
12:29:30.234375,212.37
12:29:30.250000,197.59
12:29:30.265625,177.27
12:29:30.281250,153.30
12:29:30.296875,127.40
12:29:30.312500,100.52
12:29:30.328125,72.68
12:29:30.343750,43.40
12:29:30.359375,12.47
12:29:30.375000,-19.52
12:29:30.390625,-51.07
12:29:30.406250,-80.31
12:29:30.421875,-105.84
12:29:30.437500,-127.42
12:29:30.453125,-146.14
12:29:30.468750,-163.96
12:29:30.484375,-183.08
12:29:30.500000,-205.22
12:29:30.515625,-231.30
12:29:30.531250,-261.13
12:29:30.546875,-293.18
12:29:30.562500,-324.32
12:29:30.578125,-349.95
12:29:30.593750,-364.80
12:29:30.609375,-364.28
12:29:30.625000,-346.05
12:29:30.640625,-310.85
12:29:30.656250,-262.10
12:29:30.671875,-204.41
12:29:30.687500,-141.80
12:29:30.703125,-76.55
12:29:30.718750,-9.63
12:29:30.734375,57.90
12:29:30.750000,123.39
12:29:30.765625,182.05
12:29:30.781250,228.00
12:29:30.796875,256.38
12:29:30.812500,265.44
12:29:30.828125,257.44
12:29:30.843750,237.90
12:29:30.859375,213.72
12:29:30.875000,190.98
12:29:30.890625,173.49
12:29:30.906250,162.44
12:29:30.921875,157.07
12:29:30.937500,155.66
12:29:30.953125,156.34
12:29:30.968750,157.34
12:29:30.984375,156.95
12:29:31,153.49
12:29:31.015625,145.63
12:29:31.031250,132.79
12:29:31.046875,115.55
12:29:31.062500,95.66
12:29:31.078125,75.44
12:29:31.093750,56.87
12:29:31.109375,40.82
12:29:31.125000,26.75
12:29:31.140625,13.07
12:29:31.156250,-1.95
12:29:31.171875,-19.33
12:29:31.187500,-38.95
12:29:31.203125,-59.76
12:29:31.218750,-80.34
12:29:31.234375,-99.77
12:29:31.250000,-117.98
12:29:31.265625,-135.82
12:29:31.281250,-154.73
12:29:31.296875,-176.32
12:29:31.312500,-201.74
12:29:31.328125,-231.04
12:29:31.343750,-262.45
12:29:31.359375,-292.16
12:29:31.375000,-314.89
12:29:31.390625,-325.07
12:29:31.406250,-318.69
12:29:31.421875,-294.54
12:29:31.437500,-254.44
12:29:31.453125,-202.11
12:29:31.468750,-141.61
12:29:31.484375,-76.13
12:29:31.500000,-8.02
12:29:31.515625,60.15
12:29:31.531250,124.49
12:29:31.546875,179.59
12:29:31.562500,219.71
12:29:31.578125,240.87
12:29:31.593750,242.66
12:29:31.609375,228.75
12:29:31.625000,205.67
12:29:31.640625,180.64
12:29:31.656250,159.37
12:29:31.671875,144.82
12:29:31.687500,137.29
12:29:31.703125,135.34
12:29:31.718750,137.10
12:29:31.734375,141.04
12:29:31.750000,146.21
12:29:31.765625,151.75
12:29:31.781250,156.45
12:29:31.796875,158.51
12:29:31.812500,155.84
12:29:31.828125,146.78
12:29:31.843750,130.88
12:29:31.859375,109.34
12:29:31.875000,84.75
12:29:31.890625,60.21
12:29:31.906250,38.24
12:29:31.921875,19.95
12:29:31.937500,4.66
12:29:31.953125,-9.64
12:29:31.968750,-25.28
12:29:31.984375,-43.95
12:29:32,-65.94
12:29:32.015625,-90.01
12:29:32.031250,-114.02
12:29:32.046875,-135.75
12:29:32.062500,-153.94
12:29:32.078125,-168.81
12:29:32.093750,-182.17
12:29:32.109375,-196.89
12:29:32.125000,-216.10
12:29:32.140625,-242.16
12:29:32.156250,-275.60
12:29:32.171875,-314.33
12:29:32.187500,-353.43
12:29:32.203125,-386.08
12:29:32.218750,-405.23
12:29:32.234375,-405.92
12:29:32.250000,-386.84
12:29:32.265625,-350.70
12:29:32.281250,-303.02
12:29:32.296875,-249.84
12:29:32.312500,-195.67
12:29:32.328125,-142.43
12:29:32.343750,-89.66
12:29:32.359375,-35.70
12:29:32.375000,20.87
12:29:32.390625,80.21
12:29:32.406250,140.55
12:29:32.421875,198.36
12:29:32.437500,248.99
12:29:32.453125,287.90
12:29:32.468750,312.13
12:29:32.484375,321.47
12:29:32.500000,318.82
12:29:32.515625,309.11
12:29:32.531250,297.46
12:29:32.546875,287.45
12:29:32.562500,280.15
12:29:32.578125,274.70
12:29:32.593750,269.47
12:29:32.609375,263.25
12:29:32.625000,255.69
12:29:32.640625,246.75
12:29:32.656250,236.04
12:29:32.671875,222.40
12:29:32.687500,204.46
12:29:32.703125,181.49
12:29:32.718750,154.21
12:29:32.734375,124.86
12:29:32.750000,96.56
12:29:32.765625,72.11
12:29:32.781250,52.82
12:29:32.796875,38.01
12:29:32.812500,25.24
12:29:32.828125,11.34
12:29:32.843750,-6.31
12:29:32.859375,-28.62
12:29:32.875000,-54.54
12:29:32.890625,-81.47
12:29:32.906250,-106.50
12:29:32.921875,-127.62
12:29:32.937500,-144.62
12:29:32.953125,-159.20
12:29:32.968750,-174.29
12:29:32.984375,-193.01
12:29:33,-217.72
12:29:33.015625,-249.22
12:29:33.031250,-286.37
12:29:33.046875,-325.83
12:29:33.062500,-362.50
12:29:33.078125,-390.29
12:29:33.093750,-403.62
12:29:33.109375,-399.00
12:29:33.125000,-376.23
12:29:33.140625,-338.34
12:29:33.156250,-290.39
12:29:33.171875,-237.61
12:29:33.187500,-183.54
12:29:33.203125,-129.24
12:29:33.218750,-73.68
12:29:33.234375,-15.11
12:29:33.250000,47.02
12:29:33.265625,110.71
12:29:33.281250,171.15
12:29:33.296875,221.88
12:29:33.312500,256.97
12:29:33.328125,273.25
12:29:33.343750,271.70
12:29:33.359375,257.19
12:29:33.375000,236.81
12:29:33.390625,217.28
12:29:33.406250,202.91
12:29:33.421875,194.91
12:29:33.437500,192.08
12:29:33.453125,192.33
12:29:33.468750,193.95
12:29:33.484375,196.01
12:29:33.500000,197.85
12:29:33.515625,198.45
12:29:33.531250,196.04
12:29:33.546875,188.55
12:29:33.562500,174.52
12:29:33.578125,153.91
12:29:33.593750,128.37
12:29:33.609375,101.03
12:29:33.625000,75.40
12:29:33.640625,54.19
12:29:33.656250,38.40
12:29:33.671875,26.91
12:29:33.687500,17.02
12:29:33.703125,5.54
12:29:33.718750,-9.86
12:29:33.734375,-29.61
12:29:33.750000,-52.08
12:29:33.765625,-74.30
12:29:33.781250,-93.36
12:29:33.796875,-107.60
12:29:33.812500,-117.46
12:29:33.828125,-125.16
12:29:33.843750,-133.84
12:29:33.859375,-146.39
12:29:33.875000,-164.71
12:29:33.890625,-189.37
12:29:33.906250,-219.63
12:29:33.921875,-253.33
12:29:33.937500,-286.83
12:29:33.953125,-315.23
12:29:33.968750,-333.09
12:29:33.984375,-335.92
12:29:34,-321.58
12:29:34.015625,-291.00
12:29:34.031250,-247.75
12:29:34.046875,-196.47
12:29:34.062500,-140.94
12:29:34.078125,-82.81
12:29:34.093750,-21.78
12:29:34.109375,42.75
12:29:34.125000,109.58
12:29:34.140625,174.36
12:29:34.156250,230.14
12:29:34.171875,269.57
12:29:34.187500,287.93
12:29:34.203125,285.31
12:29:34.218750,266.89
12:29:34.234375,241.02
12:29:34.250000,216.04
12:29:34.265625,197.58
12:29:34.281250,187.25
12:29:34.296875,183.44
12:29:34.312500,183.28
12:29:34.328125,184.46
12:29:34.343750,186.01
12:29:34.359375,187.81
12:29:34.375000,189.52
12:29:34.390625,189.73
12:29:34.406250,186.18
12:29:34.421875,176.61
12:29:34.437500,159.96
12:29:34.453125,137.00
12:29:34.468750,110.30
12:29:34.484375,83.25
12:29:34.500000,58.84
12:29:34.515625,38.45
12:29:34.531250,21.50
12:29:34.546875,5.77
12:29:34.562500,-11.49
12:29:34.578125,-32.23
12:29:34.593750,-56.68
12:29:34.609375,-83.00
12:29:34.625000,-108.13
12:29:34.640625,-128.99
12:29:34.656250,-143.94
12:29:34.671875,-153.47
12:29:34.687500,-160.13
12:29:34.703125,-167.46
12:29:34.718750,-178.67
12:29:34.734375,-195.65
12:29:34.750000,-218.61
12:29:34.765625,-246.26
12:29:34.781250,-276.12
12:29:34.796875,-304.79
12:29:34.812500,-328.19
12:29:34.828125,-341.96
12:29:34.843750,-342.38
12:29:34.859375,-327.41
12:29:34.875000,-297.40
12:29:34.890625,-255.02
12:29:34.906250,-204.27
12:29:34.921875,-148.77
12:29:34.937500,-90.50
12:29:34.953125,-29.63
12:29:34.968750,34.34
12:29:34.984375,100.54
12:29:35,165.28
12:29:35.015625,222.07
12:29:35.031250,263.44
12:29:35.046875,283.87
12:29:35.062500,282.27
12:29:35.078125,262.74
12:29:35.093750,233.19
12:29:35.109375,202.49
12:29:35.125000,177.56
12:29:35.140625,161.65
12:29:35.156250,154.54
12:29:35.171875,153.99
12:29:35.187500,157.44
12:29:35.203125,162.92
12:29:35.218750,168.89
12:29:35.234375,173.58
12:29:35.250000,174.61
12:29:35.265625,169.39
12:29:35.281250,156.15
12:29:35.296875,134.92
12:29:35.312500,107.81
12:29:35.328125,78.39
12:29:35.343750,50.29
12:29:35.359375,25.75
12:29:35.375000,4.90
12:29:35.390625,-14.06
12:29:35.406250,-33.59
12:29:35.421875,-55.36
12:29:35.437500,-79.21
12:29:35.453125,-103.10
12:29:35.468750,-124.12
12:29:35.484375,-139.92
12:29:35.500000,-150.02
12:29:35.515625,-156.15
12:29:35.531250,-161.67
12:29:35.546875,-170.32
12:29:35.562500,-184.97
12:29:35.578125,-206.64
12:29:35.593750,-234.10
12:29:35.609375,-264.00
12:29:35.625000,-291.43
12:29:35.640625,-310.91
12:29:35.656250,-317.59
12:29:35.671875,-308.58
12:29:35.687500,-283.69
12:29:35.703125,-245.30
12:29:35.718750,-197.47
12:29:35.734375,-144.30
12:29:35.750000,-88.47
12:29:35.765625,-30.56
12:29:35.781250,30.35
12:29:35.796875,94.90
12:29:35.812500,161.49
12:29:35.828125,225.34
12:29:35.843750,279.22
12:29:35.859375,315.85
12:29:35.875000,330.79
12:29:35.890625,324.44
12:29:35.906250,302.01
12:29:35.921875,271.63
12:29:35.937500,241.29
12:29:35.953125,216.43
12:29:35.968750,198.90
12:29:35.984375,187.83
12:29:36,181.18
12:29:36.015625,177.09
12:29:36.031250,174.20
12:29:36.046875,171.25
12:29:36.062500,166.42
12:29:36.078125,157.35
12:29:36.093750,141.91
12:29:36.109375,119.31
12:29:36.125000,90.77
12:29:36.140625,59.18
12:29:36.156250,28.26
12:29:36.171875,0.93
12:29:36.187500,-21.76
12:29:36.203125,-40.85
12:29:36.218750,-58.81
12:29:36.234375,-78.16
12:29:36.250000,-100.26
12:29:36.265625,-124.57
12:29:36.281250,-149.04
12:29:36.296875,-170.98
12:29:36.312500,-188.48
12:29:36.328125,-201.25
12:29:36.343750,-210.95
12:29:36.359375,-220.68
12:29:36.375000,-233.91
12:29:36.390625,-253.09
12:29:36.406250,-278.30
12:29:36.421875,-306.56
12:29:36.437500,-332.10
12:29:36.453125,-347.98
12:29:36.468750,-348.30
12:29:36.484375,-330.25
12:29:36.500000,-295.14
12:29:36.515625,-247.60
12:29:36.531250,-193.67
12:29:36.546875,-138.37
12:29:36.562500,-84.22
12:29:36.578125,-30.95
12:29:36.593750,23.48
12:29:36.609375,81.38
12:29:36.625000,143.76
12:29:36.640625,209.31
12:29:36.656250,274.16
12:29:36.671875,332.59
12:29:36.687500,378.54
12:29:36.703125,407.67
12:29:36.718750,419.04
12:29:36.734375,415.75
12:29:36.750000,403.97
12:29:36.765625,390.74
12:29:36.781250,381.30
12:29:36.796875,377.45
12:29:36.812500,377.29
12:29:36.828125,376.51
12:29:36.843750,370.34
12:29:36.859375,355.28
12:29:36.875000,329.79
12:29:36.890625,294.30
12:29:36.906250,250.46
12:29:36.921875,200.55
12:29:36.937500,146.91
12:29:36.953125,91.49
12:29:36.968750,35.57
12:29:36.984375,-20.21
12:29:37,-75.54
12:29:37.015625,-129.97
12:29:37.031250,-182.42
12:29:37.046875,-231.01
12:29:37.062500,-273.39
12:29:37.078125,-307.49
12:29:37.093750,-332.16
12:29:37.109375,-347.47
12:29:37.125000,-354.59
12:29:37.140625,-355.43
12:29:37.156250,-352.27
12:29:37.171875,-347.74
12:29:37.187500,-344.70
12:29:37.203125,-345.70
12:29:37.218750,-351.96
12:29:37.234375,-362.24
12:29:37.250000,-372.45
12:29:37.265625,-376.47
12:29:37.281250,-368.29
12:29:37.296875,-344.25
12:29:37.312500,-304.47
12:29:37.328125,-252.36
12:29:37.343750,-192.84
12:29:37.359375,-130.28
12:29:37.375000,-67.41
12:29:37.390625,-5.56
12:29:37.406250,53.97
12:29:37.421875,108.81
12:29:37.437500,155.44
12:29:37.453125,190.29
12:29:37.468750,211.39
12:29:37.484375,219.46
12:29:37.500000,217.92
12:29:37.515625,211.76
12:29:37.531250,205.92
12:29:37.546875,204.06
12:29:37.562500,207.81
12:29:37.578125,216.96
12:29:37.593750,229.92
12:29:37.609375,244.24
12:29:37.625000,257.01
12:29:37.640625,265.01
12:29:37.656250,265.02
12:29:37.671875,254.29
12:29:37.687500,231.14
12:29:37.703125,195.48
12:29:37.718750,149.08
12:29:37.734375,95.24
12:29:37.750000,38.06
12:29:37.765625,-18.47
12:29:37.781250,-71.14
12:29:37.796875,-117.73
12:29:37.812500,-156.96
12:29:37.828125,-188.24
12:29:37.843750,-211.52
12:29:37.859375,-227.29
12:29:37.875000,-236.73
12:29:37.890625,-241.66
12:29:37.906250,-244.34
12:29:37.921875,-247.13
12:29:37.937500,-252.01
12:29:37.953125,-260.15
12:29:37.968750,-271.32
12:29:37.984375,-283.70
12:29:38,-293.96
12:29:38.015625,-297.96
12:29:38.031250,-291.96
12:29:38.046875,-273.91
12:29:38.062500,-244.16
12:29:38.078125,-205.14
12:29:38.093750,-160.33
12:29:38.109375,-112.63
12:29:38.125000,-63.28
12:29:38.140625,-11.69
12:29:38.156250,43.34
12:29:38.171875,101.79
12:29:38.187500,160.93
12:29:38.203125,215.13
12:29:38.218750,257.39
12:29:38.234375,281.99
12:29:38.250000,287.02
12:29:38.265625,275.42
12:29:38.281250,254.10
12:29:38.296875,231.26
12:29:38.312500,213.46
12:29:38.328125,203.57
12:29:38.343750,200.67
12:29:38.359375,201.60
12:29:38.375000,202.92
12:29:38.390625,202.50
12:29:38.406250,199.75
12:29:38.421875,194.98
12:29:38.437500,188.43
12:29:38.453125,179.63
12:29:38.468750,167.61
12:29:38.484375,151.37
12:29:38.500000,130.43
12:29:38.515625,105.15
12:29:38.531250,76.64
12:29:38.546875,46.37
12:29:38.562500,15.69
12:29:38.578125,-14.49
12:29:38.593750,-43.89
12:29:38.609375,-72.74
12:29:38.625000,-101.51
12:29:38.640625,-130.72
12:29:38.656250,-160.84
12:29:38.671875,-192.35
12:29:38.687500,-225.75
12:29:38.703125,-261.15
12:29:38.718750,-297.53
12:29:38.734375,-332.13
12:29:38.750000,-360.39
12:29:38.765625,-376.99
12:29:38.781250,-377.60
12:29:38.796875,-360.57
12:29:38.812500,-327.74
12:29:38.828125,-283.71
12:29:38.843750,-234.04
12:29:38.859375,-183.18
12:29:38.875000,-133.39
12:29:38.890625,-84.54
12:29:38.906250,-35.14
12:29:38.921875,16.45
12:29:38.937500,70.80
12:29:38.953125,126.64
12:29:38.968750,180.75
12:29:38.984375,228.50
12:29:39,265.09
12:29:39.015625,287.17
12:29:39.031250,294.21
12:29:39.046875,288.92
12:29:39.062500,276.32
12:29:39.078125,261.76
12:29:39.093750,248.98
12:29:39.109375,239.08
12:29:39.125000,230.94
12:29:39.140625,222.61
12:29:39.156250,212.78
12:29:39.171875,201.40
12:29:39.187500,189.20
12:29:39.203125,176.71
12:29:39.218750,163.40
12:29:39.234375,147.74
12:29:39.250000,127.99
12:29:39.265625,103.29
12:29:39.281250,74.42
12:29:39.296875,43.73
12:29:39.312500,14.32
12:29:39.328125,-11.34
12:29:39.343750,-32.38
12:29:39.359375,-49.99
12:29:39.375000,-66.91
12:29:39.390625,-86.44
12:29:39.406250,-111.40
12:29:39.421875,-143.39
12:29:39.437500,-182.45
12:29:39.453125,-226.92
12:29:39.468750,-273.30
12:29:39.484375,-316.44
12:29:39.500000,-350.26
12:29:39.515625,-369.10
12:29:39.531250,-369.51
12:29:39.546875,-351.27
12:29:39.562500,-317.60
12:29:39.578125,-273.80
12:29:39.593750,-225.26
12:29:39.609375,-175.81
12:29:39.625000,-126.88
12:29:39.640625,-77.93
12:29:39.656250,-27.35
12:29:39.671875,26.20
12:29:39.687500,82.65
12:29:39.703125,139.75
12:29:39.718750,193.05
12:29:39.734375,236.77
12:29:39.750000,265.54
12:29:39.765625,276.54
12:29:39.781250,271.00
12:29:39.796875,254.08
12:29:39.812500,233.14
12:29:39.828125,214.94
12:29:39.843750,203.44
12:29:39.859375,198.96
12:29:39.875000,199.15
12:29:39.890625,200.80
12:29:39.906250,201.41
12:29:39.921875,199.68
12:29:39.937500,195.05
12:29:39.953125,186.94
12:29:39.968750,174.42
12:29:39.984375,156.51
12:29:40,132.83
12:29:40.015625,104.07
12:29:40.031250,71.97
12:29:40.046875,38.89
12:29:40.062500,7.03
12:29:40.078125,-22.14
12:29:40.093750,-48.17
12:29:40.109375,-71.43
12:29:40.125000,-92.68
12:29:40.140625,-112.78
12:29:40.156250,-132.42
12:29:40.171875,-152.37
12:29:40.187500,-173.77
12:29:40.203125,-198.22
12:29:40.218750,-227.18
12:29:40.234375,-260.70
12:29:40.250000,-296.36
12:29:40.265625,-328.93
12:29:40.281250,-351.57
12:29:40.296875,-358.10
12:29:40.312500,-345.49
12:29:40.328125,-314.94
12:29:40.343750,-271.46
12:29:40.359375,-221.54
12:29:40.375000,-170.67
12:29:40.390625,-121.67
12:29:40.406250,-74.60
12:29:40.421875,-27.73
12:29:40.437500,21.07
12:29:40.453125,73.14
12:29:40.468750,128.36
12:29:40.484375,184.67
12:29:40.500000,238.01
12:29:40.515625,282.91
12:29:40.531250,313.88
12:29:40.546875,327.41
12:29:40.562500,323.69
12:29:40.578125,307.05
12:29:40.593750,284.48
12:29:40.609375,263.16
12:29:40.625000,247.82
12:29:40.640625,239.52
12:29:40.656250,236.13
12:29:40.671875,234.05
12:29:40.687500,230.06
12:29:40.703125,222.37
12:29:40.718750,210.63
12:29:40.734375,195.30
12:29:40.750000,177.05
12:29:40.765625,156.51
12:29:40.781250,134.29
12:29:40.796875,111.03
12:29:40.812500,87.26
12:29:40.828125,63.38
12:29:40.843750,39.46
12:29:40.859375,15.42
12:29:40.875000,-8.74
12:29:40.890625,-32.73
12:29:40.906250,-55.95
12:29:40.921875,-77.76
12:29:40.937500,-97.83
12:29:40.953125,-116.44
12:29:40.968750,-134.58
12:29:40.984375,-153.71
12:29:41,-175.59
12:29:41.015625,-201.67
12:29:41.031250,-232.40
12:29:41.046875,-266.37
12:29:41.062500,-299.94
12:29:41.078125,-327.57
12:29:41.093750,-343.16
12:29:41.109375,-342.04
12:29:41.125000,-322.56
12:29:41.140625,-286.66
12:29:41.156250,-238.93
12:29:41.171875,-184.64
12:29:41.187500,-127.72
12:29:41.203125,-69.66
12:29:41.218750,-9.81
12:29:41.234375,52.94
12:29:41.250000,118.20
12:29:41.265625,182.82
12:29:41.281250,241.07
12:29:41.296875,286.49
12:29:41.312500,314.32
12:29:41.328125,323.55
12:29:41.343750,317.31
12:29:41.359375,301.71
12:29:41.375000,283.38
12:29:41.390625,267.02
12:29:41.406250,254.32
12:29:41.421875,244.48
12:29:41.437500,235.87
12:29:41.453125,227.72
12:29:41.468750,220.69
12:29:41.484375,216.09
12:29:41.500000,214.39
12:29:41.515625,214.10
12:29:41.531250,211.75
12:29:41.546875,203.09
12:29:41.562500,184.81
12:29:41.578125,155.91
12:29:41.593750,118.31
12:29:41.609375,76.22
12:29:41.625000,34.80
12:29:41.640625,-1.51
12:29:41.656250,-30.22
12:29:41.671875,-51.20
12:29:41.687500,-66.16
12:29:41.703125,-77.51
12:29:41.718750,-87.15
12:29:41.734375,-95.81
12:29:41.750000,-103.12
12:29:41.765625,-108.44
12:29:41.781250,-111.71
12:29:41.796875,-114.00
12:29:41.812500,-117.33
12:29:41.828125,-124.10
12:29:41.843750,-136.46
12:29:41.859375,-155.99
12:29:41.875000,-183.34
12:29:41.890625,-217.88
12:29:41.906250,-257.01
12:29:41.921875,-295.81
12:29:41.937500,-327.56
12:29:41.953125,-345.22
12:29:41.968750,-343.62
12:29:41.984375,-321.10
12:29:42,-279.83
12:29:42.015625,-224.37
12:29:42.031250,-159.48
12:29:42.046875,-88.51
12:29:42.062500,-13.45
12:29:42.078125,63.56
12:29:42.093750,138.47
12:29:42.109375,204.84
12:29:42.125000,255.31
12:29:42.140625,284.47
12:29:42.156250,291.39
12:29:42.171875,280.28
12:29:42.187500,258.82
12:29:42.203125,235.11
12:29:42.218750,214.72
12:29:42.234375,199.45
12:29:42.250000,187.92
12:29:42.265625,177.61
12:29:42.281250,166.86
12:29:42.296875,155.73
12:29:42.312500,145.67
12:29:42.328125,138.14
12:29:42.343750,133.47
12:29:42.359375,130.32
12:29:42.375000,126.27
12:29:42.390625,118.89
12:29:42.406250,106.83
12:29:42.421875,90.44
12:29:42.437500,71.57
12:29:42.453125,52.66
12:29:42.468750,35.77
12:29:42.484375,21.59
12:29:42.500000,9.29
12:29:42.515625,-3.07
12:29:42.531250,-17.71
12:29:42.546875,-36.08
12:29:42.562500,-58.29
12:29:42.578125,-82.99
12:29:42.593750,-107.95
12:29:42.609375,-130.80
12:29:42.625000,-149.88
12:29:42.640625,-164.73
12:29:42.656250,-176.15
12:29:42.671875,-186.00
12:29:42.687500,-196.71
12:29:42.703125,-210.61
12:29:42.718750,-229.05
12:29:42.734375,-251.49
12:29:42.750000,-274.87
12:29:42.765625,-293.86
12:29:42.781250,-302.08
12:29:42.796875,-293.94
12:29:42.812500,-266.30
12:29:42.828125,-219.35
12:29:42.843750,-156.36
12:29:42.859375,-82.69
12:29:42.875000,-4.67
12:29:42.890625,71.31
12:29:42.906250,139.21
12:29:42.921875,193.69
12:29:42.937500,230.63
12:29:42.953125,247.94
12:29:42.968750,246.22
12:29:42.984375,228.84
12:29:43,201.30
12:29:43.015625,169.83
12:29:43.031250,139.99
12:29:43.046875,115.66
12:29:43.062500,98.62
12:29:43.078125,88.83
12:29:43.093750,84.97
12:29:43.109375,85.23
12:29:43.125000,87.82
12:29:43.140625,91.28
12:29:43.156250,94.47
12:29:43.171875,96.41
12:29:43.187500,96.07
12:29:43.203125,92.48
12:29:43.218750,84.92
12:29:43.234375,73.27
12:29:43.250000,58.23
12:29:43.265625,41.15
12:29:43.281250,23.64
12:29:43.296875,7.03
12:29:43.312500,-8.10
12:29:43.328125,-21.98
12:29:43.343750,-35.33
12:29:43.359375,-48.95
12:29:43.375000,-63.21
12:29:43.390625,-77.90
12:29:43.406250,-92.38
12:29:43.421875,-105.98
12:29:43.437500,-118.36
12:29:43.453125,-129.73
12:29:43.468750,-140.80
12:29:43.484375,-152.66
12:29:43.500000,-166.52
12:29:43.515625,-183.45
12:29:43.531250,-203.77
12:29:43.546875,-226.37
12:29:43.562500,-248.10
12:29:43.578125,-263.89
12:29:43.593750,-267.68
12:29:43.609375,-254.05
12:29:43.625000,-220.24
12:29:43.640625,-167.26
12:29:43.656250,-100.04
12:29:43.671875,-26.14
12:29:43.687500,46.21
12:29:43.703125,110.01
12:29:43.718750,160.63
12:29:43.734375,195.96
12:29:43.750000,215.91
12:29:43.765625,221.69
12:29:43.781250,215.39
12:29:43.796875,199.88
12:29:43.812500,178.77
12:29:43.828125,156.18
12:29:43.843750,136.12
12:29:43.859375,121.69
12:29:43.875000,114.43
12:29:43.890625,114.04
12:29:43.906250,118.66
12:29:43.921875,125.70
12:29:43.937500,132.61
12:29:43.953125,137.53
12:29:43.968750,139.33
12:29:43.984375,137.45
12:29:44,131.45
12:29:44.015625,120.90
12:29:44.031250,105.42
12:29:44.046875,84.89
12:29:44.062500,59.73
12:29:44.078125,31.06
12:29:44.093750,0.42
12:29:44.109375,-30.45
12:29:44.125000,-59.96
12:29:44.140625,-86.84
12:29:44.156250,-110.20
12:29:44.171875,-129.46
12:29:44.187500,-144.38
12:29:44.203125,-155.17
12:29:44.218750,-162.66
12:29:44.234375,-168.31
12:29:44.250000,-174.14
12:29:44.265625,-182.24
12:29:44.281250,-194.46
12:29:44.296875,-212.01
12:29:44.312500,-235.26
12:29:44.328125,-263.30
12:29:44.343750,-293.57
12:29:44.359375,-321.72
12:29:44.375000,-341.91
12:29:44.390625,-348.10
12:29:44.406250,-335.87
12:29:44.421875,-304.11
12:29:44.437500,-255.88
12:29:44.453125,-197.63
12:29:44.468750,-137.26
12:29:44.484375,-81.68
12:29:44.500000,-35.27
12:29:44.515625,0.52
12:29:44.531250,26.22
12:29:44.546875,43.07
12:29:44.562500,52.14
12:29:44.578125,54.38
12:29:44.593750,51.16
12:29:44.609375,44.84
12:29:44.625000,38.55
12:29:44.640625,35.45
12:29:44.656250,37.62
12:29:44.671875,45.37
12:29:44.687500,57.06
12:29:44.703125,69.98
12:29:44.718750,81.37
12:29:44.734375,89.44
12:29:44.750000,93.92
12:29:44.765625,95.77
12:29:44.781250,96.60
12:29:44.796875,97.64
12:29:44.812500,99.11
12:29:44.828125,99.88
12:29:44.843750,97.89
12:29:44.859375,90.95
12:29:44.875000,77.65
12:29:44.890625,58.04
12:29:44.906250,33.61
12:29:44.921875,6.84
12:29:44.937500,-19.71
12:29:44.953125,-44.21
12:29:44.968750,-66.03
12:29:44.984375,-85.55
12:29:45,-103.75
12:29:45.015625,-121.62
12:29:45.031250,-139.72
12:29:45.046875,-158.27
12:29:45.062500,-177.38
12:29:45.078125,-197.26
12:29:45.093750,-218.00
12:29:45.109375,-238.86
12:29:45.125000,-257.72
12:29:45.140625,-270.99
12:29:45.156250,-274.28
12:29:45.171875,-263.93
12:29:45.187500,-238.39
12:29:45.203125,-198.70
12:29:45.218750,-147.93
12:29:45.234375,-89.81
12:29:45.250000,-27.65
12:29:45.265625,35.83
12:29:45.281250,97.88
12:29:45.296875,154.82
12:29:45.312500,201.98
12:29:45.328125,234.69
12:29:45.343750,250.10
12:29:45.359375,248.49
12:29:45.375000,233.54
12:29:45.390625,211.17
12:29:45.406250,187.48
12:29:45.421875,167.08
12:29:45.437500,152.26
12:29:45.453125,143.14
12:29:45.468750,138.41
12:29:45.484375,136.28
12:29:45.500000,134.87
12:29:45.515625,132.51
12:29:45.531250,127.74
12:29:45.546875,119.45
12:29:45.562500,106.99
12:29:45.578125,90.30
12:29:45.593750,69.73
12:29:45.609375,46.12
12:29:45.625000,20.64
12:29:45.640625,-5.15
12:29:45.656250,-29.40
12:29:45.671875,-50.20
12:29:45.687500,-66.09
12:29:45.703125,-76.75
12:29:45.718750,-83.30
12:29:45.734375,-88.20
12:29:45.750000,-94.53
12:29:45.765625,-104.93
12:29:45.781250,-120.78
12:29:45.796875,-142.02
12:29:45.812500,-167.51
12:29:45.828125,-195.56
12:29:45.843750,-224.21
12:29:45.859375,-251.05
12:29:45.875000,-272.85
12:29:45.890625,-285.73
12:29:45.906250,-285.91
12:29:45.921875,-271.03
12:29:45.937500,-241.11
12:29:45.953125,-198.73
12:29:45.968750,-147.78
12:29:45.984375,-91.93
12:29:46,-33.35
12:29:46.015625,27.09
12:29:46.031250,88.49
12:29:46.046875,148.22
12:29:46.062500,201.24
12:29:46.078125,241.28
12:29:46.093750,263.18
12:29:46.109375,265.36
12:29:46.125000,250.80
12:29:46.140625,226.15
12:29:46.156250,199.08
12:29:46.171875,175.77
12:29:46.187500,159.19
12:29:46.203125,149.22
12:29:46.218750,143.95
12:29:46.234375,141.22
12:29:46.250000,139.64
12:29:46.265625,138.56
12:29:46.281250,137.57
12:29:46.296875,135.84
12:29:46.312500,132.04
12:29:46.328125,124.52
12:29:46.343750,111.99
12:29:46.359375,93.92
12:29:46.375000,70.88
12:29:46.390625,44.40
12:29:46.406250,16.50
12:29:46.421875,-10.88
12:29:46.437500,-36.51
12:29:46.453125,-60.17
12:29:46.468750,-82.68
12:29:46.484375,-105.44
12:29:46.500000,-129.93
12:29:46.515625,-157.14
12:29:46.531250,-187.34
12:29:46.546875,-220.03
12:29:46.562500,-253.95
12:29:46.578125,-286.96
12:29:46.593750,-315.93
12:29:46.609375,-337.07
12:29:46.625000,-346.57
12:29:46.640625,-341.75
12:29:46.656250,-322.01
12:29:46.671875,-289.23
12:29:46.687500,-247.01
12:29:46.703125,-199.44
12:29:46.718750,-149.55
12:29:46.734375,-98.46
12:29:46.750000,-45.55
12:29:46.765625,10.29
12:29:46.781250,68.83
12:29:46.796875,127.28
12:29:46.812500,180.27
12:29:46.828125,221.32
12:29:46.843750,245.35
12:29:46.859375,250.91
12:29:46.875000,240.98
12:29:46.890625,222.04
12:29:46.906250,201.56
12:29:46.921875,185.23
12:29:46.937500,175.38
12:29:46.953125,171.02
12:29:46.968750,169.48
12:29:46.984375,168.35
12:29:47,166.59
12:29:47.015625,164.36
12:29:47.031250,161.89
12:29:47.046875,158.40
12:29:47.062500,151.76
12:29:47.078125,139.34
12:29:47.093750,119.30
12:29:47.109375,91.61
12:29:47.125000,58.37
12:29:47.140625,23.12
12:29:47.156250,-10.61
12:29:47.171875,-40.59
12:29:47.187500,-66.54
12:29:47.203125,-90.05
12:29:47.218750,-113.69
12:29:47.234375,-139.95
12:29:47.250000,-170.48
12:29:47.265625,-205.54
12:29:47.281250,-243.79
12:29:47.296875,-282.17
12:29:47.312500,-316.22
12:29:47.328125,-340.81
12:29:47.343750,-351.43
12:29:47.359375,-345.68
12:29:47.375000,-324.08
12:29:47.390625,-289.99
12:29:47.406250,-248.27
12:29:47.421875,-203.50
12:29:47.437500,-158.48
12:29:47.453125,-113.88
12:29:47.468750,-68.74
12:29:47.484375,-21.61
12:29:47.500000,28.32
12:29:47.515625,80.52
12:29:47.531250,132.73
12:29:47.546875,181.29
12:29:47.562500,221.84
12:29:47.578125,250.59
12:29:47.593750,265.63
12:29:47.609375,267.85
12:29:47.625000,260.84
12:29:47.640625,249.57
12:29:47.656250,238.55
12:29:47.671875,230.32
12:29:47.687500,225.03
12:29:47.703125,221.22
12:29:47.718750,217.11
12:29:47.734375,211.64
12:29:47.750000,204.53
12:29:47.765625,195.64
12:29:47.781250,184.20
12:29:47.796875,168.69
12:29:47.812500,147.35
12:29:47.828125,119.39
12:29:47.843750,85.67
12:29:47.859375,48.79
12:29:47.875000,12.29
12:29:47.890625,-20.63
12:29:47.906250,-48.38
12:29:47.921875,-71.50
12:29:47.937500,-92.39
12:29:47.953125,-114.40
12:29:47.968750,-140.57
12:29:47.984375,-172.55
12:29:48,-209.74
12:29:48.015625,-249.10
12:29:48.031250,-285.53
12:29:48.046875,-312.97
12:29:48.062500,-326.18
12:29:48.078125,-322.36
12:29:48.093750,-302.04
12:29:48.109375,-268.84
12:29:48.125000,-228.02
12:29:48.140625,-184.40
12:29:48.156250,-140.84
12:29:48.171875,-97.82
12:29:48.187500,-54.04
12:29:48.203125,-7.66
12:29:48.218750,42.47
12:29:48.234375,95.83
12:29:48.250000,149.95
12:29:48.265625,200.55
12:29:48.281250,242.48
12:29:48.296875,271.21
12:29:48.312500,284.48
12:29:48.328125,283.35
12:29:48.343750,272.22
12:29:48.359375,257.14
12:29:48.375000,243.53
12:29:48.390625,234.29
12:29:48.406250,229.15
12:29:48.421875,225.76
12:29:48.437500,221.45
12:29:48.453125,214.71
12:29:48.468750,205.48
12:29:48.484375,194.31
12:29:48.500000,181.19
12:29:48.515625,165.03
12:29:48.531250,144.04
12:29:48.546875,116.80
12:29:48.562500,83.38
12:29:48.578125,45.62
12:29:48.593750,6.80
12:29:48.609375,-29.60
12:29:48.625000,-61.03
12:29:48.640625,-86.80
12:29:48.656250,-108.11
12:29:48.671875,-127.50
12:29:48.687500,-147.97
12:29:48.703125,-172.00
12:29:48.718750,-200.84
12:29:48.734375,-234.02
12:29:48.750000,-269.09
12:29:48.765625,-301.80
12:29:48.781250,-326.91
12:29:48.796875,-339.49
12:29:48.812500,-336.39
12:29:48.828125,-317.35
12:29:48.843750,-284.97
12:29:48.859375,-243.74
12:29:48.875000,-198.22
12:29:48.890625,-151.60
12:29:48.906250,-105.01
12:29:48.921875,-57.80
12:29:48.937500,-8.54
12:29:48.953125,43.84
12:29:48.968750,99.05
12:29:48.984375,154.84
12:29:49,207.13
12:29:49.015625,250.83
12:29:49.031250,281.32
12:29:49.046875,296.24
12:29:49.062500,296.59
12:29:49.078125,286.75
12:29:49.093750,272.80
12:29:49.109375,260.17
12:29:49.125000,251.74
12:29:49.140625,247.22
12:29:49.156250,244.22
12:29:49.171875,240.00
12:29:49.187500,232.94
12:29:49.203125,222.88
12:29:49.218750,210.27
12:29:49.234375,195.13
12:29:49.250000,176.48
12:29:49.265625,152.73
12:29:49.281250,122.87
12:29:49.296875,87.49
12:29:49.312500,49.18
12:29:49.328125,11.96
12:29:49.343750,-20.22
12:29:49.359375,-44.96
12:29:49.375000,-62.43
12:29:49.390625,-75.24
12:29:49.406250,-87.38
12:29:49.421875,-102.61
12:29:49.437500,-123.19
12:29:49.453125,-149.40
12:29:49.468750,-179.89
12:29:49.484375,-212.40
12:29:49.500000,-244.18
12:29:49.515625,-272.12
12:29:49.531250,-292.76
12:29:49.546875,-302.49
12:29:49.562500,-298.45
12:29:49.578125,-279.45
12:29:49.593750,-246.54
12:29:49.609375,-202.77
12:29:49.625000,-152.00
12:29:49.640625,-97.33
12:29:49.656250,-40.06
12:29:49.671875,20.06
12:29:49.687500,83.39
12:29:49.703125,148.46
12:29:49.718750,210.79
12:29:49.734375,263.42
12:29:49.750000,299.20
12:29:49.765625,313.71
12:29:49.781250,307.40
12:29:49.796875,285.76
12:29:49.812500,257.35
12:29:49.828125,230.66
12:29:49.843750,211.28
12:29:49.859375,200.63
12:29:49.875000,196.76
12:29:49.890625,196.20
12:29:49.906250,195.86
12:29:49.921875,194.00
12:29:49.937500,189.96
12:29:49.953125,183.40
12:29:49.968750,173.73
12:29:49.984375,160.02
12:29:50,141.52
12:29:50.015625,118.07
12:29:50.031250,90.29
12:29:50.046875,59.52
12:29:50.062500,27.37
12:29:50.078125,-4.58
12:29:50.093750,-35.00
12:29:50.109375,-62.96
12:29:50.125000,-87.99
12:29:50.140625,-110.16
12:29:50.156250,-130.06
12:29:50.171875,-148.73
12:29:50.187500,-167.45
12:29:50.203125,-187.52
12:29:50.218750,-210.08
12:29:50.234375,-235.91
12:29:50.250000,-265.06
12:29:50.265625,-296.26
12:29:50.281250,-326.48
12:29:50.296875,-351.09
12:29:50.312500,-364.70
12:29:50.328125,-362.83
12:29:50.343750,-343.47
12:29:50.359375,-307.80
12:29:50.375000,-259.73
12:29:50.390625,-204.24
12:29:50.406250,-145.39
12:29:50.421875,-84.99
12:29:50.437500,-22.76
12:29:50.453125,42.26
12:29:50.468750,109.49
12:29:50.484375,175.37
12:29:50.500000,233.52
12:29:50.515625,276.65
12:29:50.531250,299.41
12:29:50.546875,300.83
12:29:50.562500,284.94
12:29:50.578125,259.50
12:29:50.593750,233.09
12:29:50.609375,212.24
12:29:50.625000,199.68
12:29:50.640625,194.49
12:29:50.656250,193.63
12:29:50.671875,193.89
12:29:50.687500,193.11
12:29:50.703125,190.34
12:29:50.718750,185.19
12:29:50.734375,177.21
12:29:50.750000,165.56
12:29:50.765625,149.44
12:29:50.781250,128.56
12:29:50.796875,103.44
12:29:50.812500,75.39
12:29:50.828125,46.07
12:29:50.843750,16.92
12:29:50.859375,-11.10
12:29:50.875000,-37.67
12:29:50.890625,-62.80
12:29:50.906250,-86.59
12:29:50.921875,-109.02
12:29:50.937500,-130.07
12:29:50.953125,-149.80
12:29:50.968750,-168.68
12:29:50.984375,-187.71
12:29:51,-208.30
12:29:51.015625,-231.97
12:29:51.031250,-259.48
12:29:51.046875,-289.96
12:29:51.062500,-320.31
12:29:51.078125,-345.32
12:29:51.093750,-358.99
12:29:51.109375,-356.38
12:29:51.125000,-335.39
12:29:51.140625,-297.49
12:29:51.156250,-246.96
12:29:51.171875,-188.98
12:29:51.187500,-127.51
12:29:51.203125,-64.11
12:29:51.218750,1.51
12:29:51.234375,69.62
12:29:51.250000,138.43
12:29:51.265625,203.03
12:29:51.281250,256.43
12:29:51.296875,291.98
12:29:51.312500,306.13
12:29:51.328125,300.12
12:29:51.343750,279.62
12:29:51.359375,252.61
12:29:51.375000,226.59
12:29:51.390625,206.45
12:29:51.406250,193.66
12:29:51.421875,187.14
12:29:51.437500,184.71
12:29:51.453125,184.33
12:29:51.468750,184.49
12:29:51.484375,183.90
12:29:51.500000,181.07
12:29:51.515625,174.24
12:29:51.531250,161.93
12:29:51.546875,143.62
12:29:51.562500,120.21
12:29:51.578125,93.84
12:29:51.593750,67.10
12:29:51.609375,42.02
12:29:51.625000,19.44
12:29:51.640625,-1.09
12:29:51.656250,-20.68
12:29:51.671875,-40.33
12:29:51.687500,-60.40
12:29:51.703125,-80.49
12:29:51.718750,-99.83
12:29:51.734375,-117.91
12:29:51.750000,-134.86
12:29:51.765625,-151.50
12:29:51.781250,-169.17
12:29:51.796875,-189.32
12:29:51.812500,-213.23
12:29:51.828125,-241.63
12:29:51.843750,-274.06
12:29:51.859375,-308.31
12:29:51.875000,-340.14
12:29:51.890625,-363.72
12:29:51.906250,-373.14
12:29:51.921875,-364.23
12:29:51.937500,-335.98
12:29:51.953125,-290.80
12:29:51.968750,-233.18
12:29:51.984375,-167.86
12:29:52,-98.43
12:29:52.015625,-27.32
12:29:52.031250,43.17
12:29:52.046875,109.46
12:29:52.062500,166.44
12:29:52.078125,208.59
12:29:52.093750,232.13
12:29:52.109375,236.90
12:29:52.125000,226.81
12:29:52.140625,208.59
12:29:52.156250,189.41
12:29:52.171875,174.76
12:29:52.187500,167.27
12:29:52.203125,166.86
12:29:52.218750,171.72
12:29:52.234375,179.44
12:29:52.250000,187.70
12:29:52.265625,194.56
12:29:52.281250,198.34
12:29:52.296875,197.68
12:29:52.312500,191.71
12:29:52.328125,180.26
12:29:52.343750,163.93
12:29:52.359375,143.87
12:29:52.375000,121.37
12:29:52.390625,97.36
12:29:52.406250,72.19
12:29:52.421875,45.80
12:29:52.437500,18.05
12:29:52.453125,-10.79
12:29:52.468750,-40.03
12:29:52.484375,-68.69
12:29:52.500000,-95.94
12:29:52.515625,-121.48
12:29:52.531250,-145.56
12:29:52.546875,-168.86
12:29:52.562500,-192.25
12:29:52.578125,-216.57
12:29:52.593750,-242.58
12:29:52.609375,-270.67
12:29:52.625000,-300.33
12:29:52.640625,-329.35
12:29:52.656250,-353.72
12:29:52.671875,-368.14
12:29:52.687500,-367.61
12:29:52.703125,-349.20
12:29:52.718750,-313.14
12:29:52.734375,-262.64
12:29:52.750000,-202.31
12:29:52.765625,-136.26
12:29:52.781250,-67.01
12:29:52.796875,4.11
12:29:52.812500,75.43
12:29:52.828125,143.45
12:29:52.843750,202.62
12:29:52.859375,246.69
12:29:52.875000,271.19
12:29:52.890625,275.47
12:29:52.906250,263.20
12:29:52.921875,241.16
12:29:52.937500,216.87
12:29:52.953125,196.31
12:29:52.968750,182.66
12:29:52.984375,176.38
12:29:53,176.16
12:29:53.015625,180.02
12:29:53.031250,185.92
12:29:53.046875,191.86
12:29:53.062500,195.68
12:29:53.078125,195.09
12:29:53.093750,188.12
12:29:53.109375,173.75
12:29:53.125000,152.46
12:29:53.140625,126.32
12:29:53.156250,98.32
12:29:53.171875,71.30
12:29:53.187500,46.94
12:29:53.203125,25.22
12:29:53.218750,4.71
12:29:53.234375,-16.59
12:29:53.250000,-40.10
12:29:53.265625,-66.01
12:29:53.281250,-93.19
12:29:53.296875,-119.80
12:29:53.312500,-144.21
12:29:53.328125,-165.73
12:29:53.343750,-184.84
12:29:53.359375,-202.91
12:29:53.375000,-221.80
12:29:53.390625,-243.29
12:29:53.406250,-268.52
12:29:53.421875,-297.35
12:29:53.437500,-327.72
12:29:53.453125,-355.51
12:29:53.468750,-375.23
12:29:53.484375,-381.41
12:29:53.500000,-370.43
12:29:53.515625,-341.77
12:29:53.531250,-298.05
12:29:53.546875,-243.74
12:29:53.562500,-183.07
12:29:53.578125,-118.68
12:29:53.593750,-51.55
12:29:53.609375,17.57
12:29:53.625000,86.30
12:29:53.640625,149.75
12:29:53.656250,201.42
12:29:53.671875,235.58
12:29:53.687500,249.79
12:29:53.703125,246.25
12:29:53.718750,231.06
12:29:53.734375,211.89
12:29:53.750000,195.33
12:29:53.765625,184.96
12:29:53.781250,181.15
12:29:53.796875,182.08
12:29:53.812500,185.30
12:29:53.828125,188.80
12:29:53.843750,191.22
12:29:53.859375,191.58
12:29:53.875000,188.75
12:29:53.890625,181.51
12:29:53.906250,168.96
12:29:53.921875,151.07
12:29:53.937500,128.93
12:29:53.953125,104.44
12:29:53.968750,79.56
12:29:53.984375,55.39
12:29:54,31.71
12:29:54.015625,7.16
12:29:54.031250,-19.87
12:29:54.046875,-50.13
12:29:54.062500,-82.80
12:29:54.078125,-115.49
12:29:54.093750,-145.14
12:29:54.109375,-169.31
12:29:54.125000,-187.31
12:29:54.140625,-200.58
12:29:54.156250,-212.19
12:29:54.171875,-225.87
12:29:54.187500,-244.83
12:29:54.203125,-270.62
12:29:54.218750,-302.34
12:29:54.234375,-336.44
12:29:54.250000,-367.21
12:29:54.265625,-388.15
12:29:54.281250,-393.81
12:29:54.296875,-381.54
12:29:54.312500,-352.25
12:29:54.328125,-309.83
12:29:54.343750,-259.54
12:29:54.359375,-205.98
12:29:54.375000,-151.58
12:29:54.390625,-96.43
12:29:54.406250,-39.27
12:29:54.421875,20.68
12:29:54.437500,82.10
12:29:54.453125,141.07
12:29:54.468750,191.93
12:29:54.484375,229.22
12:29:54.500000,249.98
12:29:54.515625,255.07
12:29:54.531250,249.08
12:29:54.546875,238.63
12:29:54.562500,229.80
12:29:54.578125,225.97
12:29:54.593750,227.11
12:29:54.609375,230.54
12:29:54.625000,232.85
12:29:54.640625,231.56
12:29:54.656250,225.97
12:29:54.671875,216.84
12:29:54.687500,205.43
12:29:54.703125,192.61
12:29:54.718750,178.49
12:29:54.734375,162.61
12:29:54.750000,144.37
12:29:54.765625,123.26
12:29:54.781250,99.24
12:29:54.796875,72.66
12:29:54.812500,44.27
12:29:54.828125,15.12
12:29:54.843750,-13.67
12:29:54.859375,-41.13
12:29:54.875000,-66.68
12:29:54.890625,-90.26
12:29:54.906250,-112.30
12:29:54.921875,-133.56
12:29:54.937500,-154.99
12:29:54.953125,-177.75
12:29:54.968750,-203.01
12:29:54.984375,-231.46
12:29:55,-262.57
12:29:55.015625,-293.83
12:29:55.031250,-320.73
12:29:55.046875,-337.69
12:29:55.062500,-339.88
12:29:55.078125,-324.94
12:29:55.093750,-293.85
12:29:55.109375,-250.42
12:29:55.125000,-199.56
12:29:55.140625,-145.26
12:29:55.156250,-89.28
12:29:55.171875,-31.43
12:29:55.187500,28.78
12:29:55.203125,90.11
12:29:55.218750,148.41
12:29:55.234375,197.27
12:29:55.250000,230.34
12:29:55.265625,244.16
12:29:55.281250,240.08
12:29:55.296875,224.04
12:29:55.312500,204.29
12:29:55.328125,188.39
12:29:55.343750,180.49
12:29:55.359375,180.73
12:29:55.375000,186.33
12:29:55.390625,193.68
12:29:55.406250,200.02
12:29:55.421875,203.95
12:29:55.437500,204.85
12:29:55.453125,202.06
12:29:55.468750,194.56
12:29:55.484375,181.44
12:29:55.500000,162.75
12:29:55.515625,139.88
12:29:55.531250,115.17
12:29:55.546875,91.03
12:29:55.562500,68.68
12:29:55.578125,47.67
12:29:55.593750,26.08
12:29:55.609375,1.58
12:29:55.625000,-27.27
12:29:55.640625,-60.11
12:29:55.656250,-94.63
12:29:55.671875,-127.31
12:29:55.687500,-154.81
12:29:55.703125,-175.28
12:29:55.718750,-189.30
12:29:55.734375,-199.84
12:29:55.750000,-211.56
12:29:55.765625,-229.12
12:29:55.781250,-255.35
12:29:55.796875,-289.60
12:29:55.812500,-327.25
12:29:55.828125,-360.70
12:29:55.843750,-381.77
12:29:55.859375,-384.52
12:29:55.875000,-367.30
12:29:55.890625,-333.05
12:29:55.906250,-287.70
12:29:55.921875,-237.65
12:29:55.937500,-187.36
12:29:55.953125,-138.57
12:29:55.968750,-90.66
12:29:55.984375,-42.10
12:29:56,8.32
12:29:56.015625,60.69
12:29:56.031250,113.78
12:29:56.046875,165.17
12:29:56.062500,211.60
12:29:56.078125,249.71
12:29:56.093750,276.95
12:29:56.109375,292.60
12:29:56.125000,298.20
12:29:56.140625,297.07
12:29:56.156250,293.01
12:29:56.171875,288.86
12:29:56.187500,285.69
12:29:56.203125,282.86
12:29:56.218750,278.93
12:29:56.234375,272.62
12:29:56.250000,263.43
12:29:56.265625,251.46
12:29:56.281250,237.07
12:29:56.296875,220.48
12:29:56.312500,201.75
12:29:56.328125,180.90
12:29:56.343750,158.00
12:29:56.359375,133.15
12:29:56.375000,106.36
12:29:56.390625,77.66
12:29:56.406250,47.19
12:29:56.421875,15.49
12:29:56.437500,-16.43
12:29:56.453125,-47.14
12:29:56.468750,-75.23
12:29:56.484375,-99.68
12:29:56.500000,-120.37
12:29:56.515625,-138.28
12:29:56.531250,-155.44
12:29:56.546875,-174.72
12:29:56.562500,-199.14
12:29:56.578125,-230.80
12:29:56.593750,-269.64
12:29:56.609375,-312.49
12:29:56.625000,-353.18
12:29:56.640625,-383.87
12:29:56.656250,-397.54
12:29:56.671875,-390.35
12:29:56.687500,-362.96
12:29:56.703125,-320.10
12:29:56.718750,-268.43
12:29:56.734375,-214.05
12:29:56.750000,-160.67
12:29:56.765625,-109.12
12:29:56.781250,-58.07
12:29:56.796875,-5.49
12:29:56.812500,49.96
12:29:56.828125,107.86
12:29:56.843750,165.53
12:29:56.859375,218.36
12:29:56.875000,260.91
12:29:56.890625,288.74
12:29:56.906250,300.21
12:29:56.921875,297.42
12:29:56.937500,285.64
12:29:56.953125,271.35
12:29:56.968750,259.83
12:29:56.984375,253.58
12:29:57,252.17
12:29:57.015625,253.41
12:29:57.031250,254.87
12:29:57.046875,254.90
12:29:57.062500,252.63
12:29:57.078125,247.49
12:29:57.093750,238.76
12:29:57.109375,225.69
12:29:57.125000,207.94
12:29:57.140625,186.00
12:29:57.156250,161.06
12:29:57.171875,134.64
12:29:57.187500,108.05
12:29:57.203125,81.99
12:29:57.218750,56.63
12:29:57.234375,31.85
12:29:57.250000,7.54
12:29:57.265625,-16.21
12:29:57.281250,-39.16
12:29:57.296875,-61.16
12:29:57.312500,-82.27
12:29:57.328125,-102.98
12:29:57.343750,-124.30
12:29:57.359375,-147.66
12:29:57.375000,-174.44
12:29:57.390625,-205.17
12:29:57.406250,-238.56
12:29:57.421875,-270.94
12:29:57.437500,-296.74
12:29:57.453125,-309.86
12:29:57.468750,-305.67
12:29:57.484375,-282.54
12:29:57.500000,-242.12
12:29:57.515625,-188.23
12:29:57.531250,-125.02
12:29:57.546875,-55.72
12:29:57.562500,17.28
12:29:57.578125,91.21
12:29:57.593750,161.48
12:29:57.609375,221.32
12:29:57.625000,263.18
12:29:57.640625,281.39
12:29:57.656250,274.64
12:29:57.671875,246.97
12:29:57.687500,206.74
12:29:57.703125,163.91
12:29:57.718750,127.16
12:29:57.734375,101.90
12:29:57.750000,89.69
12:29:57.765625,89.01
12:29:57.781250,96.65
12:29:57.796875,108.78
12:29:57.812500,121.70
12:29:57.828125,131.97
12:29:57.843750,136.50
12:29:57.859375,132.85
12:29:57.875000,119.67
12:29:57.890625,97.15
12:29:57.906250,67.26
12:29:57.921875,33.31
12:29:57.937500,-0.88
12:29:57.953125,-32.13
12:29:57.968750,-58.73
12:29:57.984375,-80.79
12:29:58,-99.73
12:29:58.015625,-117.47
12:29:58.031250,-135.43
12:29:58.046875,-153.99
12:29:58.062500,-172.49
12:29:58.078125,-189.82
12:29:58.093750,-205.26
12:29:58.109375,-219.03
12:29:58.125000,-232.61
12:29:58.140625,-248.37
12:29:58.156250,-268.81
12:29:58.171875,-295.42
12:29:58.187500,-327.53
12:29:58.203125,-361.74
12:29:58.218750,-392.17
12:29:58.234375,-411.94
12:29:58.250000,-415.30
12:29:58.265625,-399.61
12:29:58.281250,-366.17
12:29:58.296875,-319.66
12:29:58.312500,-266.16
12:29:58.328125,-210.95
12:29:58.343750,-157.05
12:29:58.359375,-104.99
12:29:58.375000,-53.60
12:29:58.390625,-1.16
12:29:58.406250,53.56
12:29:58.421875,110.64
12:29:58.437500,168.56
12:29:58.453125,224.02
12:29:58.468750,272.45
12:29:58.484375,309.11
12:29:58.500000,330.75
12:29:58.515625,337.03
12:29:58.531250,330.95
12:29:58.546875,317.77
12:29:58.562500,303.07
12:29:58.578125,290.78
12:29:58.593750,282.22
12:29:58.609375,276.53
12:29:58.625000,271.67
12:29:58.640625,265.73
12:29:58.656250,257.35
12:29:58.671875,245.60
12:29:58.687500,229.65
12:29:58.703125,208.56
12:29:58.718750,181.61
12:29:58.734375,148.81
12:29:58.750000,111.19
12:29:58.765625,70.76
12:29:58.781250,30.20
12:29:58.796875,-7.78
12:29:58.812500,-41.13
12:29:58.828125,-68.95
12:29:58.843750,-91.68
12:29:58.859375,-110.89
12:29:58.875000,-128.80
12:29:58.890625,-147.48
12:29:58.906250,-168.23
12:29:58.921875,-191.34
12:29:58.937500,-216.40
12:29:58.953125,-242.72
12:29:58.968750,-269.53
12:29:58.984375,-295.77
12:29:59,-319.41
12:29:59.015625,-337.23
12:29:59.031250,-345.17
12:29:59.046875,-339.50
12:29:59.062500,-318.36
12:29:59.078125,-282.65
12:29:59.093750,-235.80
12:29:59.109375,-182.48
12:29:59.125000,-126.64
12:29:59.140625,-70.09
12:29:59.156250,-12.41
12:29:59.171875,47.72
12:29:59.187500,110.38
12:29:59.203125,172.74
12:29:59.218750,229.01
12:29:59.234375,272.10
12:29:59.250000,296.45
12:29:59.265625,300.46
12:29:59.281250,287.43
12:29:59.296875,264.41
12:29:59.312500,239.56
12:29:59.328125,219.34
12:29:59.343750,206.74
12:29:59.359375,201.28
12:29:59.375000,200.29
12:29:59.390625,200.53
12:29:59.406250,199.32
12:29:59.421875,194.89
12:29:59.437500,186.13
12:29:59.453125,172.42
12:29:59.468750,153.70
12:29:59.484375,130.67
12:29:59.500000,104.83
12:29:59.515625,78.03
12:29:59.531250,51.98
12:29:59.546875,27.72
12:29:59.562500,5.47
12:29:59.578125,-15.13
12:29:59.593750,-34.62
12:29:59.609375,-53.21
12:29:59.625000,-70.57
12:29:59.640625,-85.67
12:29:59.656250,-96.97
12:29:59.671875,-102.83
12:29:59.687500,-102.40
12:29:59.703125,-96.64
12:29:59.718750,-88.88
12:29:59.734375,-84.34
12:29:59.750000,-88.15
12:29:59.765625,-102.70
12:29:59.781250,-125.52
12:29:59.796875,-149.28
12:29:59.812500,-164.11
12:29:59.828125,-161.48
12:29:59.843750,-137.71
12:29:59.859375,-95.22
12:29:59.875000,-41.13
12:29:59.890625,15.99
12:29:59.906250,69.29
12:29:59.921875,115.18
12:29:59.937500,152.82
12:29:59.953125,182.28
12:29:59.968750,202.99
12:29:59.984375,213.46
12:30:00,212.28
12:30:00.015625,199.64
12:30:00.031250,178.13
12:30:00.046875,152.33
12:30:00.062500,127.38
12:30:00.078125,107.23
12:30:00.093750,93.43
12:30:00.109375,85.15
12:30:00.125000,80.08
12:30:00.140625,75.77
12:30:00.156250,70.63
12:30:00.171875,64.20
12:30:00.187500,56.70
12:30:00.203125,48.34
12:30:00.218750,38.86
12:30:00.234375,27.51
12:30:00.250000,13.48
12:30:00.265625,-3.63
12:30:00.281250,-23.64
12:30:00.296875,-45.92
12:30:00.312500,-69.68
12:30:00.328125,-94.21
12:30:00.343750,-118.92
12:30:00.359375,-143.08
12:30:00.375000,-165.69
12:30:00.390625,-185.41
12:30:00.406250,-200.98
12:30:00.421875,-211.71
12:30:00.437500,-217.91
12:30:00.453125,-221.05
12:30:00.468750,-223.58
12:30:00.484375,-228.40
12:30:00.500000,-238.35
12:30:00.515625,-255.45
12:30:00.531250,-280.04
12:30:00.546875,-310.09
12:30:00.562500,-340.94
12:30:00.578125,-366.04
12:30:00.593750,-378.60
12:30:00.609375,-373.79
12:30:00.625000,-350.31
12:30:00.640625,-310.83
12:30:00.656250,-260.75
12:30:00.671875,-205.98
12:30:00.687500,-150.94
12:30:00.703125,-97.37
12:30:00.718750,-44.66
12:30:00.734375,9.06
12:30:00.750000,65.32
12:30:00.765625,123.96
12:30:00.781250,182.65
12:30:00.796875,237.13
12:30:00.812500,282.32
12:30:00.828125,313.97
12:30:00.843750,330.20
12:30:00.859375,332.32
12:30:00.875000,324.50
12:30:00.890625,312.27
12:30:00.906250,300.57
12:30:00.921875,292.38
12:30:00.937500,288.27
12:30:00.953125,287.05
12:30:00.968750,286.76
12:30:00.984375,285.61
12:30:01,282.06
12:30:01.015625,274.81
12:30:01.031250,262.67
12:30:01.046875,244.78
12:30:01.062500,221.05
12:30:01.078125,192.46
12:30:01.093750,160.79
12:30:01.109375,128.11
12:30:01.125000,96.09
12:30:01.140625,65.53
12:30:01.156250,36.46
12:30:01.171875,8.52
12:30:01.187500,-18.55
12:30:01.203125,-44.68
12:30:01.218750,-69.56
12:30:01.234375,-93.01
12:30:01.250000,-115.26
12:30:01.265625,-137.00
12:30:01.281250,-159.36
12:30:01.296875,-183.66
12:30:01.312500,-211.16
12:30:01.328125,-242.46
12:30:01.343750,-276.85
12:30:01.359375,-311.63
12:30:01.375000,-341.98
12:30:01.390625,-361.87
12:30:01.406250,-365.76
12:30:01.421875,-350.49
12:30:01.437500,-316.40
12:30:01.453125,-266.96
12:30:01.468750,-207.16
12:30:01.484375,-141.40
12:30:01.500000,-72.35
12:30:01.515625,-1.31
12:30:01.531250,70.23
12:30:01.546875,139.04
12:30:01.562500,199.72
12:30:01.578125,246.13
12:30:01.593750,273.71
12:30:01.609375,281.52
12:30:01.625000,272.88
12:30:01.640625,254.08
12:30:01.656250,232.08
12:30:01.671875,212.32
12:30:01.687500,197.50
12:30:01.703125,187.82
12:30:01.718750,182.10
12:30:01.734375,179.02
12:30:01.750000,177.70
12:30:01.765625,177.63
12:30:01.781250,178.05
12:30:01.796875,177.52
12:30:01.812500,174.05
12:30:01.828125,165.66
12:30:01.843750,151.28
12:30:01.859375,131.28
12:30:01.875000,107.57
12:30:01.890625,82.76
12:30:01.906250,59.20
12:30:01.921875,37.94
12:30:01.937500,18.40
12:30:01.953125,-1.15
12:30:01.968750,-22.52
12:30:01.984375,-46.52
12:30:02,-72.41
12:30:02.015625,-98.18
12:30:02.031250,-121.59
12:30:02.046875,-141.22
12:30:02.062500,-157.22
12:30:02.078125,-171.31
12:30:02.093750,-185.95
12:30:02.109375,-203.53
12:30:02.125000,-225.65
12:30:02.140625,-252.86
12:30:02.156250,-284.61
12:30:02.171875,-319.04
12:30:02.187500,-352.79
12:30:02.203125,-381.04
12:30:02.218750,-398.23
12:30:02.234375,-399.52
12:30:02.250000,-382.31
12:30:02.265625,-347.25
12:30:02.281250,-297.87
12:30:02.296875,-239.00
12:30:02.312500,-174.81
12:30:02.328125,-107.66
12:30:02.343750,-38.49
12:30:02.359375,31.61
12:30:02.375000,99.74
12:30:02.390625,160.68
12:30:02.406250,208.21
12:30:02.421875,237.46
12:30:02.437500,247.18
12:30:02.453125,240.45
12:30:02.468750,223.60
12:30:02.484375,203.80
12:30:02.500000,186.73
12:30:02.515625,175.25
12:30:02.531250,169.52
12:30:02.546875,168.15
12:30:02.562500,169.43
12:30:02.578125,172.00
12:30:02.593750,174.82
12:30:02.609375,176.72
12:30:02.625000,176.04
12:30:02.640625,170.93
12:30:02.656250,159.99
12:30:02.671875,142.96
12:30:02.687500,121.03
12:30:02.703125,96.50
12:30:02.718750,71.83
12:30:02.734375,48.67
12:30:02.750000,27.32
12:30:02.765625,6.82
12:30:02.781250,-14.31
12:30:02.796875,-37.01
12:30:02.812500,-61.08
12:30:02.828125,-85.14
12:30:02.843750,-107.35
12:30:02.859375,-126.31
12:30:02.875000,-141.84
12:30:02.890625,-155.15
12:30:02.906250,-168.34
12:30:02.921875,-183.69
12:30:02.937500,-203.07
12:30:02.953125,-227.39
12:30:02.968750,-256.42
12:30:02.984375,-288.33
12:30:03,-319.70
12:30:03.015625,-345.66
12:30:03.031250,-360.81
12:30:03.046875,-360.72
12:30:03.062500,-343.34
12:30:03.078125,-309.71
12:30:03.093750,-263.51
12:30:03.109375,-209.36
12:30:03.125000,-150.97
12:30:03.140625,-90.06
12:30:03.156250,-26.89
12:30:03.171875,37.97
12:30:03.187500,101.80
12:30:03.203125,159.24
12:30:03.218750,203.54
12:30:03.234375,229.30
12:30:03.250000,235.03
12:30:03.265625,224.16
12:30:03.281250,203.89
12:30:03.296875,182.46
12:30:03.312500,166.27
12:30:03.328125,158.08
12:30:03.343750,157.05
12:30:03.359375,160.24
12:30:03.375000,164.44
12:30:03.390625,167.45
12:30:03.406250,168.30
12:30:03.421875,166.71
12:30:03.437500,162.49
12:30:03.453125,155.25
12:30:03.468750,144.58
12:30:03.484375,130.31
12:30:03.500000,112.68
12:30:03.515625,92.34
12:30:03.531250,70.06
12:30:03.546875,46.60
12:30:03.562500,22.55
12:30:03.578125,-1.55
12:30:03.593750,-25.23
12:30:03.609375,-48.11
12:30:03.625000,-70.00
12:30:03.640625,-90.95
12:30:03.656250,-111.32
12:30:03.671875,-131.69
12:30:03.687500,-152.82
12:30:03.703125,-175.64
12:30:03.718750,-201.00
12:30:03.734375,-229.25
12:30:03.750000,-259.47
12:30:03.765625,-288.92
12:30:03.781250,-313.04
12:30:03.796875,-326.58
12:30:03.812500,-325.14
12:30:03.828125,-306.81
12:30:03.843750,-272.95
12:30:03.859375,-227.39
12:30:03.875000,-174.84
12:30:03.890625,-118.82
12:30:03.906250,-60.86
12:30:03.921875,-1.04
12:30:03.937500,60.19
12:30:03.953125,120.31
12:30:03.968750,174.26
12:30:03.984375,215.70
12:30:04,239.58
12:30:04.015625,244.47
12:30:04.031250,233.41
12:30:04.046875,212.89
12:30:04.062500,190.38
12:30:04.078125,171.89
12:30:04.093750,160.41
12:30:04.109375,155.96
12:30:04.125000,156.67
12:30:04.140625,160.20
12:30:04.156250,164.46
12:30:04.171875,167.86
12:30:04.187500,168.95
12:30:04.203125,166.32
12:30:04.218750,158.84
12:30:04.234375,146.08
12:30:04.250000,128.58
12:30:04.265625,107.67
12:30:04.281250,84.97
12:30:04.296875,61.70
12:30:04.312500,38.24
12:30:04.328125,14.26
12:30:04.343750,-10.79
12:30:04.359375,-37.04
12:30:04.375000,-63.86
12:30:04.390625,-89.91
12:30:04.406250,-113.68
12:30:04.421875,-134.22
12:30:04.437500,-151.75
12:30:04.453125,-167.81
12:30:04.468750,-184.96
12:30:04.484375,-205.98
12:30:04.500000,-232.78
12:30:04.515625,-265.10
12:30:04.531250,-299.93
12:30:04.546875,-331.66
12:30:04.562500,-353.60
12:30:04.578125,-360.08
12:30:04.593750,-348.44
12:30:04.609375,-319.90
12:30:04.625000,-278.90
12:30:04.640625,-231.16
12:30:04.656250,-181.51
12:30:04.671875,-132.54
12:30:04.687500,-84.36
12:30:04.703125,-35.53
12:30:04.718750,15.57
12:30:04.734375,69.35
12:30:04.750000,124.24
12:30:04.765625,176.62
12:30:04.781250,221.68
12:30:04.796875,254.85
12:30:04.812500,273.45
12:30:04.828125,277.85
12:30:04.843750,271.60
12:30:04.859375,260.11
12:30:04.875000,248.69
12:30:04.890625,240.65
12:30:04.906250,236.61
12:30:04.921875,234.96
12:30:04.937500,233.33
12:30:04.953125,229.86
12:30:04.968750,223.82
12:30:04.984375,215.29
12:30:05,204.51
12:30:05.015625,191.37
12:30:05.031250,175.33
12:30:05.046875,155.91
12:30:05.062500,133.08
12:30:05.078125,107.60
12:30:05.093750,81.01
12:30:05.109375,55.22
12:30:05.125000,31.85
12:30:05.140625,11.77
12:30:05.156250,-5.32
12:30:05.171875,-20.65
12:30:05.187500,-35.94
12:30:05.203125,-52.70
12:30:05.218750,-71.66
12:30:05.234375,-92.75
12:30:05.250000,-115.48
12:30:05.265625,-139.60
12:30:05.281250,-165.29
12:30:05.296875,-192.63
12:30:05.312500,-220.74
12:30:05.328125,-246.78
12:30:05.343750,-266.19
12:30:05.359375,-273.79
12:30:05.375000,-265.67
12:30:05.390625,-240.75
12:30:05.406250,-201.07
12:30:05.421875,-150.65
12:30:05.437500,-93.50
12:30:05.453125,-32.29
12:30:05.468750,31.62
12:30:05.484375,96.68
12:30:05.500000,159.51
12:30:05.515625,214.29
12:30:05.531250,254.10
12:30:05.546875,273.46
12:30:05.562500,271.03
12:30:05.578125,250.50
12:30:05.593750,219.49
12:30:05.609375,186.79
12:30:05.625000,159.46
12:30:05.640625,141.12
12:30:05.656250,131.80
12:30:05.671875,129.31
12:30:05.687500,130.80
12:30:05.703125,133.96
12:30:05.718750,137.19
12:30:05.734375,139.30
12:30:05.750000,139.09
12:30:05.765625,135.28
12:30:05.781250,126.82
12:30:05.796875,113.33
12:30:05.812500,95.18
12:30:05.828125,73.41
12:30:05.843750,49.24
12:30:05.859375,23.57
12:30:05.875000,-3.07
12:30:05.890625,-30.33
12:30:05.906250,-57.70
12:30:05.921875,-84.20
12:30:05.937500,-108.56
12:30:05.953125,-129.59
12:30:05.968750,-146.74
12:30:05.984375,-160.47
12:30:06,-172.12
12:30:06.015625,-183.60
12:30:06.031250,-196.83
12:30:06.046875,-213.43
12:30:06.062500,-234.09
12:30:06.078125,-258.19
12:30:06.093750,-283.38
12:30:06.109375,-305.53
12:30:06.125000,-319.49
12:30:06.140625,-320.52
12:30:06.156250,-305.80
12:30:06.171875,-275.42
12:30:06.187500,-232.22
12:30:06.203125,-180.40
12:30:06.218750,-123.69
12:30:06.234375,-64.02
12:30:06.250000,-1.73
12:30:06.265625,62.87
12:30:06.281250,127.58
12:30:06.296875,187.33
12:30:06.312500,235.11
12:30:06.328125,264.44
12:30:06.343750,272.34
12:30:06.359375,260.94
12:30:06.375000,236.97
12:30:06.390625,209.34
12:30:06.406250,185.93
12:30:06.421875,171.22
12:30:06.437500,165.67
12:30:06.453125,166.78
12:30:06.468750,171.07
12:30:06.484375,175.64
12:30:06.500000,178.83
12:30:06.515625,179.87
12:30:06.531250,178.17
12:30:06.546875,172.87
12:30:06.562500,162.96
12:30:06.578125,147.79
12:30:06.593750,127.53
12:30:06.609375,103.36
12:30:06.625000,77.16
12:30:06.640625,50.85
12:30:06.656250,25.78
12:30:06.671875,2.46
12:30:06.687500,-19.42
12:30:06.703125,-40.57
12:30:06.718750,-61.68
12:30:06.734375,-83.03
12:30:06.750000,-104.37
12:30:06.765625,-125.16
12:30:06.781250,-144.87
12:30:06.796875,-163.50
12:30:06.812500,-181.75
12:30:06.828125,-200.80
12:30:06.843750,-221.42
12:30:06.859375,-242.96
12:30:06.875000,-262.60
12:30:06.890625,-275.66
12:30:06.906250,-276.87
12:30:06.921875,-262.30
12:30:06.937500,-230.64
12:30:06.953125,-183.53
12:30:06.968750,-124.53
12:30:06.984375,-57.88
12:30:07,12.33
12:30:07.015625,82.12
12:30:07.031250,146.92
12:30:07.046875,201.38
12:30:07.062500,240.04
12:30:07.078125,259.01
12:30:07.093750,257.64
12:30:07.109375,239.16
12:30:07.125000,209.93
12:30:07.140625,177.43
12:30:07.156250,148.13
12:30:07.171875,126.09
12:30:07.187500,112.70
12:30:07.203125,107.28
12:30:07.218750,107.89
12:30:07.234375,112.20
12:30:07.250000,117.78
12:30:07.265625,122.44
12:30:07.281250,124.36
12:30:07.296875,122.33
12:30:07.312500,115.83
12:30:07.328125,104.94
12:30:07.343750,90.28
12:30:07.359375,72.67
12:30:07.375000,52.95
12:30:07.390625,31.91
12:30:07.406250,10.29
12:30:07.421875,-11.22
12:30:07.437500,-31.96
12:30:07.453125,-51.51
12:30:07.468750,-69.68
12:30:07.484375,-86.66
12:30:07.500000,-102.83
12:30:07.515625,-118.62
12:30:07.531250,-134.47
12:30:07.546875,-150.93
12:30:07.562500,-168.81
12:30:07.578125,-188.93
12:30:07.593750,-211.66
12:30:07.609375,-235.94
12:30:07.625000,-258.69
12:30:07.640625,-274.96
12:30:07.656250,-279.19
12:30:07.671875,-266.93
12:30:07.687500,-236.27
12:30:07.703125,-188.46
12:30:07.718750,-127.32
12:30:07.734375,-58.18
12:30:07.750000,13.26
12:30:07.765625,81.40
12:30:07.781250,140.95
12:30:07.796875,187.09
12:30:07.812500,216.05
12:30:07.828125,226.10
12:30:07.843750,218.31
12:30:07.859375,196.68
12:30:07.875000,167.21
12:30:07.890625,136.46
12:30:07.906250,109.90
12:30:07.921875,90.90
12:30:07.937500,80.52
12:30:07.953125,77.78
12:30:07.968750,80.52
12:30:07.984375,86.09
12:30:08,92.03
12:30:08.015625,96.34
12:30:08.031250,97.74
12:30:08.046875,95.59
12:30:08.062500,89.73
12:30:08.078125,80.37
12:30:08.093750,67.82
12:30:08.109375,52.38
12:30:08.125000,34.30
12:30:08.140625,13.86
12:30:08.156250,-8.48
12:30:08.171875,-31.92
12:30:08.187500,-55.46
12:30:08.203125,-78.06
12:30:08.218750,-99.07
12:30:08.234375,-118.43
12:30:08.250000,-136.59
12:30:08.265625,-154.23
12:30:08.281250,-172.01
12:30:08.296875,-190.42
12:30:08.312500,-209.84
12:30:08.328125,-230.57
12:30:08.343750,-252.33
12:30:08.359375,-273.72
12:30:08.375000,-291.75
12:30:08.390625,-302.06
12:30:08.406250,-300.10
12:30:08.421875,-282.73
12:30:08.437500,-249.28
12:30:08.453125,-201.69
12:30:08.468750,-143.51
12:30:08.484375,-78.73
12:30:08.500000,-11.08
12:30:08.515625,55.68
12:30:08.531250,117.23
12:30:08.546875,168.45
12:30:08.562500,204.27
12:30:08.578125,221.46
12:30:08.593750,220.02
12:30:08.609375,203.65
12:30:08.625000,178.66
12:30:08.640625,151.92
12:30:08.656250,128.81
12:30:08.671875,112.15
12:30:08.687500,102.25
12:30:08.703125,97.75
12:30:08.718750,96.73
12:30:08.734375,97.41
12:30:08.750000,98.39
12:30:08.765625,98.60
12:30:08.781250,97.09
12:30:08.796875,92.90
12:30:08.812500,85.06
12:30:08.828125,72.73
12:30:08.843750,55.54
12:30:08.859375,33.79
12:30:08.875000,8.54
12:30:08.890625,-18.53
12:30:08.906250,-45.45
12:30:08.921875,-70.49
12:30:08.937500,-92.52
12:30:08.953125,-111.32
12:30:08.968750,-127.51
12:30:08.984375,-142.36
12:30:09,-157.30
12:30:09.015625,-173.45
12:30:09.031250,-191.40
12:30:09.046875,-211.02
12:30:09.062500,-231.35
12:30:09.078125,-250.63
12:30:09.093750,-266.22
12:30:09.109375,-274.96
12:30:09.125000,-273.77
12:30:09.140625,-260.53
12:30:09.156250,-234.84
12:30:09.171875,-198.26
12:30:09.187500,-153.74
12:30:09.203125,-104.44
12:30:09.218750,-52.40
12:30:09.234375,1.98
12:30:09.250000,59.34
12:30:09.265625,119.69
12:30:09.281250,180.70
12:30:09.296875,237.07
12:30:09.312500,281.66
12:30:09.328125,308.10
12:30:09.343750,313.50
12:30:09.359375,299.90
12:30:09.375000,273.67
12:30:09.390625,243.09
12:30:09.406250,215.33
12:30:09.421875,194.37
12:30:09.437500,180.57
12:30:09.453125,171.79
12:30:09.468750,165.18
12:30:09.484375,158.49
12:30:09.500000,150.37
12:30:09.515625,139.94
12:30:09.531250,126.28
12:30:09.546875,108.16
12:30:09.562500,84.60
12:30:09.578125,55.34
12:30:09.593750,21.23
12:30:09.609375,-15.82
12:30:09.625000,-53.30
12:30:09.640625,-88.80
12:30:09.656250,-120.58
12:30:09.671875,-147.87
12:30:09.687500,-170.95
12:30:09.703125,-190.89
12:30:09.718750,-209.11
12:30:09.734375,-227.06
12:30:09.750000,-245.97
12:30:09.765625,-266.77
12:30:09.781250,-289.87
12:30:09.796875,-314.79
12:30:09.812500,-339.68
12:30:09.828125,-361.18
12:30:09.843750,-374.93
12:30:09.859375,-376.83
12:30:09.875000,-364.50
12:30:09.890625,-338.22
12:30:09.906250,-300.86
12:30:09.921875,-256.75
12:30:09.937500,-209.98
12:30:09.953125,-163.17
12:30:09.968750,-117.03
12:30:09.984375,-70.95
12:30:10,-23.91
12:30:10.015625,24.56
12:30:10.031250,73.78
12:30:10.046875,121.95
12:30:10.062500,166.44
12:30:10.078125,204.53
12:30:10.093750,234.14
12:30:10.109375,254.50
12:30:10.125000,266.33
12:30:10.140625,271.44
12:30:10.156250,272.04
12:30:10.171875,270.02
12:30:10.187500,266.81
12:30:10.203125,263.61
12:30:10.218750,261.74
12:30:10.234375,262.75
12:30:10.250000,267.90
12:30:10.265625,277.40
12:30:10.281250,289.80
12:30:10.296875,302.11
12:30:10.312500,310.64
12:30:10.328125,312.09
12:30:10.343750,304.63
12:30:10.359375,288.12
12:30:10.375000,263.86
12:30:10.390625,233.80
12:30:10.406250,199.69
12:30:10.421875,162.55
12:30:10.437500,122.62
12:30:10.453125,79.82
12:30:10.468750,34.28
12:30:10.484375,-13.22
12:30:10.500000,-61.37
12:30:10.515625,-108.60
12:30:10.531250,-153.36
12:30:10.546875,-193.78
12:30:10.562500,-227.49
12:30:10.578125,-251.32
12:30:10.593750,-261.81
12:30:10.609375,-256.26
12:30:10.625000,-233.84
12:30:10.640625,-195.85
12:30:10.656250,-145.08
12:30:10.671875,-84.59
12:30:10.687500,-17.03
12:30:10.703125,55.00
12:30:10.718750,127.63
12:30:10.734375,194.68
12:30:10.750000,247.91
12:30:10.765625,279.10
12:30:10.781250,283.06
12:30:10.796875,260.01
12:30:10.812500,216.00
12:30:10.828125,161.10
12:30:10.843750,106.24
12:30:10.859375,60.21
12:30:10.875000,27.90
12:30:10.890625,10.16
12:30:10.906250,4.95
12:30:10.921875,8.80
12:30:10.937500,18.04
12:30:10.953125,29.51
12:30:10.968750,40.65
12:30:10.984375,49.50
12:30:11,54.57
12:30:11.015625,54.68
12:30:11.031250,49.07
12:30:11.046875,37.58
12:30:11.062500,20.76
12:30:11.078125,-0.09
12:30:11.093750,-23.17
12:30:11.109375,-46.55
12:30:11.125000,-68.73
12:30:11.140625,-89.04
12:30:11.156250,-107.70
12:30:11.171875,-125.62
12:30:11.187500,-143.83
12:30:11.203125,-163.06
12:30:11.218750,-183.51
12:30:11.234375,-205.01
12:30:11.250000,-227.36
12:30:11.265625,-250.36
12:30:11.281250,-273.42
12:30:11.296875,-294.85
12:30:11.312500,-311.49
12:30:11.328125,-319.12
12:30:11.343750,-313.66
12:30:11.359375,-292.79
12:30:11.375000,-256.80
12:30:11.390625,-208.42
12:30:11.406250,-151.38
12:30:11.421875,-88.98
12:30:11.437500,-23.53
12:30:11.453125,43.03
12:30:11.468750,107.70
12:30:11.484375,165.56
12:30:11.500000,210.46
12:30:11.515625,236.98
12:30:11.531250,242.91
12:30:11.546875,230.65
12:30:11.562500,206.59
12:30:11.578125,178.96
12:30:11.593750,154.94
12:30:11.609375,138.69
12:30:11.625000,130.86
12:30:11.640625,129.57
12:30:11.656250,132.15
12:30:11.671875,136.41
12:30:11.687500,141.11
12:30:11.703125,145.54
12:30:11.718750,148.77
12:30:11.734375,149.22
12:30:11.750000,144.81
12:30:11.765625,133.61
12:30:11.781250,114.71
12:30:11.796875,88.86
12:30:11.812500,58.37
12:30:11.828125,26.50
12:30:11.843750,-3.59
12:30:11.859375,-29.92
12:30:11.875000,-52.18
12:30:11.890625,-71.76
12:30:11.906250,-91.12
12:30:11.921875,-112.82
12:30:11.937500,-138.69
12:30:11.953125,-169.45
12:30:11.968750,-204.64
12:30:11.984375,-242.67
12:30:12,-280.88
12:30:12.015625,-315.56
12:30:12.031250,-342.19
12:30:12.046875,-356.22
12:30:12.062500,-354.26
12:30:12.078125,-335.20
12:30:12.093750,-300.69
12:30:12.109375,-254.68
12:30:12.125000,-201.88
12:30:12.140625,-146.19
12:30:12.156250,-89.44
12:30:12.171875,-31.50
12:30:12.187500,28.45
12:30:12.203125,90.17
12:30:12.218750,151.02
12:30:12.234375,206.07
12:30:12.250000,249.50
12:30:12.265625,276.81
12:30:12.281250,286.70
12:30:12.296875,281.64
12:30:12.312500,266.82
12:30:12.328125,248.15
12:30:12.343750,230.05
12:30:12.359375,214.47
12:30:12.375000,201.18
12:30:12.390625,189.11
12:30:12.406250,177.74
12:30:12.421875,167.64
12:30:12.437500,160.02
12:30:12.453125,155.61
12:30:12.468750,153.68
12:30:12.484375,151.85
12:30:12.500000,146.66
12:30:12.515625,134.75
12:30:12.531250,113.94
12:30:12.546875,83.93
12:30:12.562500,46.35
12:30:12.578125,4.23
12:30:12.593750,-38.88
12:30:12.609375,-79.77
12:30:12.625000,-116.20
12:30:12.640625,-147.33
12:30:12.656250,-173.55
12:30:12.671875,-196.14
12:30:12.687500,-216.81
12:30:12.703125,-237.27
12:30:12.718750,-258.76
12:30:12.734375,-281.69
12:30:12.750000,-305.05
12:30:12.765625,-326.24
12:30:12.781250,-341.38
12:30:12.796875,-346.18
12:30:12.812500,-337.41
12:30:12.828125,-314.05
12:30:12.843750,-277.66
12:30:12.859375,-231.70
12:30:12.875000,-180.05
12:30:12.890625,-125.44
12:30:12.906250,-68.67
12:30:12.921875,-8.98
12:30:12.937500,54.31
12:30:12.953125,119.93
12:30:12.968750,183.61
12:30:12.984375,238.61
12:30:13,277.87
12:30:13.015625,296.83
12:30:13.031250,295.50
12:30:13.046875,278.77
12:30:13.062500,254.71
12:30:13.078125,231.61
12:30:13.093750,215.12
12:30:13.109375,207.07
12:30:13.125000,205.90
12:30:13.140625,208.53
12:30:13.156250,212.12
12:30:13.171875,215.04
12:30:13.187500,216.53
12:30:13.203125,215.90
12:30:13.218750,211.78
12:30:13.234375,202.29
12:30:13.250000,185.85
12:30:13.265625,162.14
12:30:13.281250,132.62
12:30:13.296875,100.28
12:30:13.312500,68.54
12:30:13.328125,40.00
12:30:13.343750,15.42
12:30:13.359375,-6.40
12:30:13.375000,-27.90
12:30:13.390625,-51.55
12:30:13.406250,-78.75
12:30:13.421875,-109.43
12:30:13.437500,-142.41
12:30:13.453125,-176.11
12:30:13.468750,-208.93
12:30:13.484375,-238.99
12:30:13.500000,-263.75
12:30:13.515625,-279.75
12:30:13.531250,-283.19
12:30:13.546875,-271.16
12:30:13.562500,-242.74
12:30:13.578125,-199.27
12:30:13.593750,-143.65
12:30:13.609375,-79.13
12:30:13.625000,-8.70
12:30:13.640625,64.53
12:30:13.656250,136.40
12:30:13.671875,201.11
12:30:13.687500,251.78
12:30:13.703125,282.37
12:30:13.718750,289.76
12:30:13.734375,275.10
12:30:13.750000,243.55
12:30:13.765625,202.54
12:30:13.781250,159.58
12:30:13.796875,120.51
12:30:13.812500,88.90
12:30:13.828125,66.12
12:30:13.843750,52.09
12:30:13.859375,45.77
12:30:13.875000,45.55
12:30:13.890625,49.33
12:30:13.906250,54.71
12:30:13.921875,59.22
12:30:13.937500,60.64
12:30:13.953125,57.29
12:30:13.968750,48.22
12:30:13.984375,33.45
12:30:14,13.79
12:30:14.015625,-9.36
12:30:14.031250,-34.49
12:30:14.046875,-60.22
12:30:14.062500,-85.57
12:30:14.078125,-109.94
12:30:14.093750,-132.90
12:30:14.109375,-154.24
12:30:14.125000,-173.85
12:30:14.140625,-191.92
12:30:14.156250,-209.11
12:30:14.171875,-226.56
12:30:14.187500,-245.75
12:30:14.203125,-268.27
12:30:14.218750,-295.24
12:30:14.234375,-326.60
12:30:14.250000,-360.40
12:30:14.265625,-392.41
12:30:14.281250,-416.71
12:30:14.296875,-427.13
12:30:14.312500,-419.26
12:30:14.328125,-392.11
12:30:14.343750,-348.58
12:30:14.359375,-294.41
12:30:14.375000,-236.01
12:30:14.390625,-178.28
12:30:14.406250,-123.36
12:30:14.421875,-70.68
12:30:14.437500,-18.03
12:30:14.453125,37.04
12:30:14.468750,95.85
12:30:14.484375,157.76
12:30:14.500000,219.71
12:30:14.515625,276.58
12:30:14.531250,322.33
12:30:14.546875,351.98
12:30:14.562500,363.52
12:30:14.578125,359.06
12:30:14.593750,344.26
12:30:14.609375,326.18
12:30:14.625000,310.65
12:30:14.640625,300.26
12:30:14.656250,294.11
12:30:14.671875,289.02
12:30:14.687500,281.56
12:30:14.703125,269.52
12:30:14.718750,252.36
12:30:14.734375,230.67
12:30:14.750000,205.28
12:30:14.765625,176.80
12:30:14.781250,145.50
12:30:14.796875,111.66
12:30:14.812500,75.88
12:30:14.828125,39.21
12:30:14.843750,3.16
12:30:14.859375,-30.71
12:30:14.875000,-61.08
12:30:14.890625,-87.28
12:30:14.906250,-109.37
12:30:14.921875,-128.26
12:30:14.937500,-145.40
12:30:14.953125,-162.42
12:30:14.968750,-180.78
12:30:14.984375,-201.63
12:30:15,-225.73
12:30:15.015625,-253.23
12:30:15.031250,-283.34
12:30:15.046875,-313.76
12:30:15.062500,-340.58
12:30:15.078125,-358.80
12:30:15.093750,-363.64
12:30:15.109375,-352.11
12:30:15.125000,-324.07
12:30:15.140625,-282.25
12:30:15.156250,-231.04
12:30:15.171875,-174.66
12:30:15.187500,-115.66
12:30:15.203125,-54.52
12:30:15.218750,9.36
12:30:15.234375,75.66
12:30:15.250000,141.61
12:30:15.265625,201.60
12:30:15.281250,248.58
12:30:15.296875,276.59
12:30:15.312500,283.26
12:30:15.328125,271.17
12:30:15.343750,247.06
12:30:15.359375,219.58
12:30:15.375000,196.38
12:30:15.390625,181.93
12:30:15.406250,176.89
12:30:15.421875,179.04
12:30:15.437500,184.97
12:30:15.453125,191.47
12:30:15.468750,196.32
12:30:15.484375,198.15
12:30:15.500000,196.02
12:30:15.515625,189.23
12:30:15.531250,177.46
12:30:15.546875,160.95
12:30:15.562500,140.62
12:30:15.578125,117.77
12:30:15.593750,93.64
12:30:15.609375,68.98
12:30:15.625000,43.91
12:30:15.640625,18.19
12:30:15.656250,-8.33
12:30:15.671875,-35.31
12:30:15.687500,-61.90
12:30:15.703125,-87.03
12:30:15.718750,-109.91
12:30:15.734375,-130.48
12:30:15.750000,-149.58
12:30:15.765625,-168.77
12:30:15.781250,-189.98
12:30:15.796875,-214.95
12:30:15.812500,-244.40
12:30:15.828125,-277.23
12:30:15.843750,-310.04
12:30:15.859375,-337.37
12:30:15.875000,-353.04
12:30:15.890625,-352.00
12:30:15.906250,-332.10
12:30:15.921875,-294.81
12:30:15.937500,-244.46
12:30:15.953125,-186.31
12:30:15.968750,-124.36
12:30:15.984375,-60.32
12:30:16,5.86
12:30:16.015625,74.05
12:30:16.031250,142.02
12:30:16.046875,204.67
12:30:16.062500,255.21
12:30:16.078125,287.77
12:30:16.093750,299.88
12:30:16.109375,293.76
12:30:16.125000,275.45
12:30:16.140625,252.57
12:30:16.156250,231.64
12:30:16.171875,216.44
12:30:16.187500,207.73
12:30:16.203125,204.31
12:30:16.218750,204.36
12:30:16.234375,206.25
12:30:16.250000,208.53
12:30:16.265625,209.62
12:30:16.281250,207.61
12:30:16.296875,200.55
12:30:16.312500,187.19
12:30:16.328125,167.58
12:30:16.343750,143.11
12:30:16.359375,115.92
12:30:16.375000,87.99
12:30:16.390625,60.36
12:30:16.406250,32.93
12:30:16.421875,4.94
12:30:16.437500,-24.24
12:30:16.453125,-54.49
12:30:16.468750,-84.80
12:30:16.484375,-113.73
12:30:16.500000,-140.10
12:30:16.515625,-163.64
12:30:16.531250,-185.08
12:30:16.546875,-205.92
12:30:16.562500,-227.89
12:30:16.578125,-252.46
12:30:16.593750,-280.43
12:30:16.609375,-311.44
12:30:16.625000,-343.48
12:30:16.640625,-372.82
12:30:16.656250,-394.34
12:30:16.671875,-402.84
12:30:16.687500,-394.64
12:30:16.703125,-368.91
12:30:16.718750,-328.01
12:30:16.734375,-276.43
12:30:16.750000,-218.89
12:30:16.765625,-158.47
12:30:16.781250,-96.07
12:30:16.796875,-31.51
12:30:16.812500,34.38
12:30:16.828125,98.11
12:30:16.843750,153.50
12:30:16.859375,193.63
12:30:16.875000,213.82
12:30:16.890625,214.05
12:30:16.906250,199.38
12:30:16.921875,178.14
12:30:16.937500,158.73
12:30:16.953125,146.75
12:30:16.968750,143.61
12:30:16.984375,147.26
12:30:17,154.00
12:30:17.015625,160.55
12:30:17.031250,165.07
12:30:17.046875,166.99
12:30:17.062500,166.21
12:30:17.078125,162.40
12:30:17.093750,154.75
12:30:17.109375,142.35
12:30:17.125000,124.70
12:30:17.140625,102.04
12:30:17.156250,75.49
12:30:17.171875,46.71
12:30:17.187500,17.48
12:30:17.203125,-10.66
12:30:17.218750,-36.70
12:30:17.234375,-60.29
12:30:17.250000,-81.69
12:30:17.265625,-101.68
12:30:17.281250,-121.31
12:30:17.296875,-141.78
12:30:17.312500,-164.29
12:30:17.328125,-189.92
12:30:17.343750,-219.30
12:30:17.359375,-252.04
12:30:17.375000,-286.13
12:30:17.390625,-317.71
12:30:17.406250,-341.64
12:30:17.421875,-352.84
12:30:17.437500,-347.90
12:30:17.453125,-326.39
12:30:17.468750,-290.93
12:30:17.484375,-246.05
12:30:17.500000,-196.53
12:30:17.515625,-145.68
12:30:17.531250,-94.58
12:30:17.546875,-42.47
12:30:17.562500,11.86
12:30:17.578125,68.39
12:30:17.593750,124.74
12:30:17.609375,176.17
12:30:17.625000,216.87
12:30:17.640625,242.12
12:30:17.656250,250.32
12:30:17.671875,243.89
12:30:17.687500,228.55
12:30:17.703125,211.25
12:30:17.718750,197.70
12:30:17.734375,190.69
12:30:17.750000,189.91
12:30:17.765625,193.09
12:30:17.781250,197.50
12:30:17.796875,201.14
12:30:17.812500,202.72
12:30:17.828125,201.26
12:30:17.843750,195.64
12:30:17.859375,184.66
12:30:17.875000,167.69
12:30:17.890625,145.20
12:30:17.906250,118.82
12:30:17.921875,90.76
12:30:17.937500,63.02
12:30:17.953125,36.62
12:30:17.968750,11.43
12:30:17.984375,-13.35
12:30:18,-38.48
12:30:18.015625,-64.02
12:30:18.031250,-89.20
12:30:18.046875,-112.73
12:30:18.062500,-133.57
12:30:18.078125,-151.61
12:30:18.093750,-168.11
12:30:18.109375,-185.64
12:30:18.125000,-207.29
12:30:18.140625,-235.23
12:30:18.156250,-269.22
12:30:18.171875,-305.70
12:30:18.187500,-338.14
12:30:18.203125,-358.90
12:30:18.218750,-361.88
12:30:18.234375,-344.81
12:30:18.250000,-309.94
12:30:18.265625,-262.99
12:30:18.281250,-210.65
12:30:18.296875,-158.13
12:30:18.312500,-107.87
12:30:18.328125,-59.66
12:30:18.343750,-11.82
12:30:18.359375,37.53
12:30:18.375000,89.58
12:30:18.390625,144.27
12:30:18.406250,199.98
12:30:18.421875,253.41
12:30:18.437500,299.95
12:30:18.453125,334.81
12:30:18.468750,354.76
12:30:18.484375,359.62
12:30:18.500000,352.56
12:30:18.515625,338.97
12:30:18.531250,324.40
12:30:18.546875,312.48
12:30:18.562500,304.09
12:30:18.578125,297.83
12:30:18.593750,291.30
12:30:18.609375,282.45
12:30:18.625000,270.10
12:30:18.640625,253.88
12:30:18.656250,233.86
12:30:18.671875,210.26
12:30:18.687500,183.45
12:30:18.703125,154.13
12:30:18.718750,123.14
12:30:18.734375,91.35
12:30:18.750000,59.45
12:30:18.765625,27.91
12:30:18.781250,-2.87
12:30:18.796875,-32.42
12:30:18.812500,-60.09
12:30:18.828125,-85.35
12:30:18.843750,-108.01
12:30:18.859375,-128.58
12:30:18.875000,-148.24
12:30:18.890625,-168.63
12:30:18.906250,-191.58
12:30:18.921875,-218.63
12:30:18.937500,-250.48
12:30:18.953125,-286.26
12:30:18.968750,-323.04
12:30:18.984375,-355.83
12:30:19,-378.62
12:30:19.015625,-385.89
12:30:19.031250,-374.57
12:30:19.046875,-345.08
12:30:19.062500,-301.08
12:30:19.078125,-247.97
12:30:19.093750,-190.79
12:30:19.109375,-132.54
12:30:19.125000,-73.66
12:30:19.140625,-12.90
12:30:19.156250,50.83
12:30:19.171875,116.54
12:30:19.187500,180.33
12:30:19.203125,236.06
12:30:19.218750,277.31
12:30:19.234375,299.89
12:30:19.250000,303.57
12:30:19.265625,292.31
12:30:19.281250,272.82
12:30:19.296875,252.10
12:30:19.312500,235.18
12:30:19.328125,224.02
12:30:19.343750,217.95
12:30:19.359375,214.94
12:30:19.375000,212.96
12:30:19.390625,210.53
12:30:19.406250,206.58
12:30:19.421875,199.94
12:30:19.437500,189.29
12:30:19.453125,173.53
12:30:19.468750,152.37
12:30:19.484375,126.77
12:30:19.500000,98.57
12:30:19.515625,69.90
12:30:19.531250,42.23
12:30:19.546875,15.94
12:30:19.562500,-9.58
12:30:19.578125,-35.23
12:30:19.593750,-61.53
12:30:19.609375,-88.10
12:30:19.625000,-113.86
12:30:19.640625,-137.55
12:30:19.656250,-158.51
12:30:19.671875,-177.15
12:30:19.687500,-195.00
12:30:19.703125,-214.33
12:30:19.718750,-237.42
12:30:19.734375,-265.70
12:30:19.750000,-298.78
12:30:19.765625,-333.87
12:30:19.781250,-365.82
12:30:19.796875,-388.30
12:30:19.812500,-395.52
12:30:19.828125,-384.24
12:30:19.843750,-354.84
12:30:19.859375,-311.08
12:30:19.875000,-258.57
12:30:19.890625,-202.52
12:30:19.906250,-146.11
12:30:19.921875,-89.74
12:30:19.937500,-31.96
12:30:19.953125,28.78
12:30:19.968750,92.15
12:30:19.984375,154.90
12:30:20,211.28
12:30:20.015625,254.81
12:30:20.031250,280.77
12:30:20.046875,288.20
12:30:20.062500,280.40
12:30:20.078125,263.81
12:30:20.093750,245.63
12:30:20.109375,231.32
12:30:20.125000,223.24
12:30:20.140625,220.80
12:30:20.156250,221.63
12:30:20.171875,223.12
12:30:20.187500,223.31
12:30:20.203125,220.96
12:30:20.218750,215.19
12:30:20.234375,205.16
12:30:20.250000,190.19
12:30:20.265625,170.11
12:30:20.281250,145.52
12:30:20.296875,117.62
12:30:20.312500,87.89
12:30:20.328125,57.62
12:30:20.343750,27.66
12:30:20.359375,-1.55
12:30:20.375000,-29.77
12:30:20.390625,-56.75
12:30:20.406250,-82.19
12:30:20.421875,-105.82
12:30:20.437500,-127.66
12:30:20.453125,-148.04
12:30:20.468750,-167.64
12:30:20.484375,-187.46
12:30:20.500000,-208.67
12:30:20.515625,-232.32
12:30:20.531250,-258.77
12:30:20.546875,-286.98
12:30:20.562500,-314.09
12:30:20.578125,-335.44
12:30:20.593750,-345.75
12:30:20.609375,-340.78
12:30:20.625000,-318.77
12:30:20.640625,-281.13
12:30:20.656250,-231.75
12:30:20.671875,-175.22
12:30:20.687500,-115.00
12:30:20.703125,-52.49
12:30:20.718750,12.36
12:30:20.734375,79.25
12:30:20.750000,145.67
12:30:20.765625,206.26
12:30:20.781250,254.16
12:30:20.796875,283.56
12:30:20.812500,292.35
12:30:20.828125,283.30
12:30:20.843750,263.09
12:30:20.859375,239.76
12:30:20.875000,219.90
12:30:20.890625,206.79
12:30:20.906250,200.38
12:30:20.921875,198.57
12:30:20.937500,198.89
12:30:20.953125,199.45
12:30:20.968750,199.01
12:30:20.984375,196.44
12:30:21,190.30
12:30:21.015625,179.10
12:30:21.031250,161.92
12:30:21.046875,139.12
12:30:21.062500,112.32
12:30:21.078125,83.94
12:30:21.093750,56.17
12:30:21.109375,30.04
12:30:21.125000,5.26
12:30:21.140625,-19.44
12:30:21.156250,-45.30
12:30:21.171875,-72.73
12:30:21.187500,-100.87
12:30:21.203125,-127.90
12:30:21.218750,-151.87
12:30:21.234375,-171.81
12:30:21.250000,-188.22
12:30:21.265625,-203.24
12:30:21.281250,-219.99
12:30:21.296875,-241.48
12:30:21.312500,-269.47
12:30:21.328125,-303.31
12:30:21.343750,-339.52
12:30:21.359375,-372.20
12:30:21.375000,-394.52
12:30:21.390625,-400.77
12:30:21.406250,-388.17
12:30:21.421875,-357.76
12:30:21.437500,-313.69
12:30:21.453125,-261.53
12:30:21.468750,-206.13
12:30:21.484375,-150.22
12:30:21.500000,-94.07
12:30:21.515625,-36.41
12:30:21.531250,23.99
12:30:21.546875,86.64
12:30:21.562500,148.63
12:30:21.578125,204.93
12:30:21.593750,249.86
12:30:21.609375,279.07
12:30:21.625000,291.27
12:30:21.640625,288.82
12:30:21.656250,276.96
12:30:21.671875,261.99
12:30:21.687500,249.05
12:30:21.703125,240.91
12:30:21.718750,237.80
12:30:21.734375,238.30
12:30:21.750000,240.50
12:30:21.765625,242.72
12:30:21.781250,243.50
12:30:21.796875,241.37
12:30:21.812500,234.69
12:30:21.828125,222.02
12:30:21.843750,202.83
12:30:21.859375,177.93
12:30:21.875000,149.33
12:30:21.890625,119.57
12:30:21.906250,90.71
12:30:21.921875,63.58
12:30:21.937500,37.67
12:30:21.953125,11.73
12:30:21.968750,-15.31
12:30:21.984375,-43.58
12:30:22,-72.08
12:30:22.015625,-99.16
12:30:22.031250,-123.36
12:30:22.046875,-144.28
12:30:22.062500,-162.91
12:30:22.078125,-181.33
12:30:22.093750,-202.10
12:30:22.109375,-227.36
12:30:22.125000,-257.97
12:30:22.140625,-292.69
12:30:22.156250,-327.98
12:30:22.171875,-358.33
12:30:22.187500,-377.55
12:30:22.203125,-380.54
12:30:22.218750,-365.00
12:30:22.234375,-332.13
12:30:22.250000,-286.04
12:30:22.265625,-232.00
12:30:22.281250,-174.37
12:30:22.296875,-115.16
12:30:22.312500,-54.11
12:30:22.328125,9.79
12:30:22.343750,76.21
12:30:22.359375,141.92
12:30:22.375000,200.98
12:30:22.390625,246.47
12:30:22.406250,273.34
12:30:22.421875,280.60
12:30:22.437500,271.94
12:30:22.453125,254.29
12:30:22.468750,235.27
12:30:22.484375,220.47
12:30:22.500000,212.09
12:30:22.515625,209.32
12:30:22.531250,209.89
12:30:22.546875,211.68
12:30:22.562500,213.52
12:30:22.578125,214.81
12:30:22.593750,214.73
12:30:22.609375,211.70
12:30:22.625000,203.63
12:30:22.640625,189.00
12:30:22.656250,167.74
12:30:22.671875,141.54
12:30:22.687500,113.32
12:30:22.703125,85.97
12:30:22.718750,61.16
12:30:22.734375,38.72
12:30:22.750000,17.03
12:30:22.765625,-5.91
12:30:22.781250,-31.21
12:30:22.796875,-58.29
12:30:22.812500,-85.05
12:30:22.828125,-108.84
12:30:22.843750,-127.74
12:30:22.859375,-141.65
12:30:22.875000,-152.39
12:30:22.890625,-162.96
12:30:22.906250,-176.52
12:30:22.921875,-195.38
12:30:22.937500,-220.40
12:30:22.953125,-250.79
12:30:22.968750,-284.01
12:30:22.984375,-315.87
12:30:23,-341.00
12:30:23.015625,-353.88
12:30:23.031250,-350.32
12:30:23.046875,-328.76
12:30:23.062500,-290.85
12:30:23.078125,-240.71
12:30:23.093750,-183.08
12:30:23.109375,-121.46
12:30:23.125000,-57.24
12:30:23.140625,9.41
12:30:23.156250,77.70
12:30:23.171875,144.41
12:30:23.187500,203.63
12:30:23.203125,248.49
12:30:23.218750,273.86
12:30:23.234375,278.79
12:30:23.250000,267.07
12:30:23.265625,245.81
12:30:23.281250,222.73
12:30:23.296875,203.60
12:30:23.312500,191.00
12:30:23.328125,184.73
12:30:23.343750,183.14
12:30:23.359375,184.59
12:30:23.375000,187.91
12:30:23.390625,192.20
12:30:23.406250,196.13
12:30:23.421875,197.70
12:30:23.437500,194.66
12:30:23.453125,185.38
12:30:23.468750,169.59
12:30:23.484375,148.54
12:30:23.500000,124.65
12:30:23.515625,100.36
12:30:23.531250,77.28
12:30:23.546875,55.70
12:30:23.562500,34.77
12:30:23.578125,13.28
12:30:23.593750,-9.53
12:30:23.609375,-33.43
12:30:23.625000,-57.31
12:30:23.640625,-79.79
12:30:23.656250,-99.95
12:30:23.671875,-117.79
12:30:23.687500,-134.21
12:30:23.703125,-150.58
12:30:23.718750,-168.29
12:30:23.734375,-188.49
12:30:23.750000,-212.04
12:30:23.765625,-239.28
12:30:23.781250,-269.50
12:30:23.796875,-300.23
12:30:23.812500,-327.03
12:30:23.828125,-344.09
12:30:23.843750,-345.82
12:30:23.859375,-328.83
12:30:23.875000,-292.99
12:30:23.890625,-241.20
12:30:23.906250,-178.01
12:30:23.921875,-107.95
12:30:23.937500,-34.88
12:30:23.953125,37.60
12:30:23.968750,105.15
12:30:23.984375,162.30
12:30:24,203.31
12:30:24.015625,224.18
12:30:24.031250,224.56
12:30:24.046875,208.34
12:30:24.062500,182.55
12:30:24.078125,154.93
12:30:24.093750,131.56
12:30:24.109375,115.58
12:30:24.125000,107.34
12:30:24.140625,105.47
12:30:24.156250,108.17
12:30:24.171875,113.78
12:30:24.187500,120.88
12:30:24.203125,127.90
12:30:24.218750,133.05
12:30:24.234375,134.50
12:30:24.250000,130.87
12:30:24.265625,121.66
12:30:24.281250,107.41
12:30:24.296875,89.46
12:30:24.312500,69.40
12:30:24.328125,48.50
12:30:24.343750,27.45
12:30:24.359375,6.36
12:30:24.375000,-14.92
12:30:24.390625,-36.48
12:30:24.406250,-58.10
12:30:24.421875,-79.23
12:30:24.437500,-99.15
12:30:24.453125,-117.31
12:30:24.468750,-133.56
12:30:24.484375,-148.30
12:30:24.500000,-162.45
12:30:24.515625,-177.33
12:30:24.531250,-194.45
12:30:24.546875,-215.00
12:30:24.562500,-239.16
12:30:24.578125,-265.31
12:30:24.593750,-289.71
12:30:24.609375,-307.07
12:30:24.625000,-311.87
12:30:24.640625,-300.27
12:30:24.656250,-271.22
12:30:24.671875,-226.71
12:30:24.687500,-170.50
12:30:24.703125,-106.78
12:30:24.718750,-39.19
12:30:24.734375,29.00
12:30:24.750000,94.03
12:30:24.765625,151.06
12:30:24.781250,194.56
12:30:24.796875,219.91
12:30:24.812500,225.27
12:30:24.828125,212.69
12:30:24.843750,187.76
12:30:24.859375,157.80
12:30:24.875000,129.72
12:30:24.890625,108.35
12:30:24.906250,95.88
12:30:24.921875,92.17
12:30:24.937500,95.65
12:30:24.953125,103.96
12:30:24.968750,114.60
12:30:24.984375,125.13
12:30:25,133.43
12:30:25.015625,137.89
12:30:25.031250,137.60
12:30:25.046875,132.36
12:30:25.062500,122.54
12:30:25.078125,108.80
12:30:25.093750,91.67
12:30:25.109375,71.46
12:30:25.125000,48.26
12:30:25.140625,22.32
12:30:25.156250,-5.62
12:30:25.171875,-34.19
12:30:25.187500,-61.66
12:30:25.203125,-86.53
12:30:25.218750,-108.06
12:30:25.234375,-126.67
12:30:25.250000,-143.63
12:30:25.265625,-160.53
12:30:25.281250,-178.77
12:30:25.296875,-199.20
12:30:25.312500,-222.12
12:30:25.328125,-247.08
12:30:25.343750,-272.67
12:30:25.359375,-296.12
12:30:25.375000,-313.38
12:30:25.390625,-319.92
12:30:25.406250,-312.02
12:30:25.421875,-288.21
12:30:25.437500,-249.82
12:30:25.453125,-200.32
12:30:25.468750,-143.72
12:30:25.484375,-82.98
12:30:25.500000,-19.64
12:30:25.515625,45.22
12:30:25.531250,109.31
12:30:25.546875,168.00
12:30:25.562500,214.85
12:30:25.578125,243.86
12:30:25.593750,252.07
12:30:25.609375,241.30
12:30:25.625000,217.71
12:30:25.640625,189.55
12:30:25.656250,164.25
12:30:25.671875,146.17
12:30:25.687500,136.09
12:30:25.703125,132.19
12:30:25.718750,131.80
12:30:25.734375,132.78
12:30:25.750000,133.98
12:30:25.765625,134.92
12:30:25.781250,135.12
12:30:25.796875,133.74
12:30:25.812500,129.72
12:30:25.828125,122.08
12:30:25.843750,110.26
12:30:25.859375,94.26
12:30:25.875000,74.47
12:30:25.890625,51.51
12:30:25.906250,26.12
12:30:25.921875,-0.92
12:30:25.937500,-28.69
12:30:25.953125,-56.26
12:30:25.968750,-82.86
12:30:25.984375,-108.00
12:30:26,-131.70
12:30:26.015625,-154.46
12:30:26.031250,-177.17
12:30:26.046875,-200.98
12:30:26.062500,-226.89
12:30:26.078125,-255.22
12:30:26.093750,-284.86
12:30:26.109375,-312.89
12:30:26.125000,-334.78
12:30:26.140625,-345.54
12:30:26.156250,-341.30
12:30:26.171875,-320.87
12:30:26.187500,-286.15
12:30:26.203125,-241.37
12:30:26.218750,-191.35
12:30:26.234375,-139.67
12:30:26.250000,-87.57
12:30:26.265625,-34.10
12:30:26.281250,22.36
12:30:26.296875,82.15
12:30:26.312500,142.83
12:30:26.328125,199.01
12:30:26.343750,243.85
12:30:26.359375,271.64
12:30:26.375000,280.23
12:30:26.390625,272.20
12:30:26.406250,254.04
12:30:26.421875,233.73
12:30:26.437500,217.71
12:30:26.453125,208.86
12:30:26.468750,206.33
12:30:26.484375,206.94
12:30:26.500000,207.33
12:30:26.515625,205.51
12:30:26.531250,201.13
12:30:26.546875,194.71
12:30:26.562500,186.49
12:30:26.578125,175.78
12:30:26.593750,161.15
12:30:26.609375,141.14
12:30:26.625000,115.10
12:30:26.640625,83.72
12:30:26.656250,49.02
12:30:26.671875,13.78
12:30:26.687500,-19.43
12:30:26.703125,-48.97
12:30:26.718750,-74.59
12:30:26.734375,-97.40
12:30:26.750000,-119.23
12:30:26.765625,-142.00
12:30:26.781250,-167.15
12:30:26.796875,-195.46
12:30:26.812500,-226.97
12:30:26.828125,-260.80
12:30:26.843750,-294.85
12:30:26.859375,-325.56
12:30:26.875000,-348.35
12:30:26.890625,-358.65
12:30:26.906250,-353.33
12:30:26.921875,-331.94
12:30:26.937500,-296.88
12:30:26.953125,-252.47
12:30:26.968750,-203.29
12:30:26.984375,-152.65
12:30:27,-101.73
12:30:27.015625,-49.92
12:30:27.031250,4.14
12:30:27.046875,60.91
12:30:27.062500,118.79
12:30:27.078125,173.81
12:30:27.093750,220.48
12:30:27.109375,253.65
12:30:27.125000,270.51
12:30:27.140625,271.88
12:30:27.156250,262.19
12:30:27.171875,247.76
12:30:27.187500,234.52
12:30:27.203125,225.92
12:30:27.218750,222.29
12:30:27.234375,221.63
12:30:27.250000,221.21
12:30:27.265625,219.07
12:30:27.281250,214.56
12:30:27.296875,207.90
12:30:27.312500,199.32
12:30:27.328125,188.35
12:30:27.343750,173.87
12:30:27.359375,154.58
12:30:27.375000,129.78
12:30:27.390625,99.84
12:30:27.406250,66.38
12:30:27.421875,31.88
12:30:27.437500,-1.17
12:30:27.453125,-31.01
12:30:27.468750,-57.14
12:30:27.484375,-80.33
12:30:27.500000,-102.18
12:30:27.515625,-124.49
12:30:27.531250,-148.75
12:30:27.546875,-175.99
12:30:27.562500,-206.74
12:30:27.578125,-240.84
12:30:27.593750,-276.87
12:30:27.609375,-311.69
12:30:27.625000,-340.51
12:30:27.640625,-357.85
12:30:27.656250,-359.31
12:30:27.671875,-343.14
12:30:27.687500,-311.12
12:30:27.703125,-267.74
12:30:27.718750,-218.46
12:30:27.734375,-167.75
12:30:27.750000,-117.80
12:30:27.765625,-68.43
12:30:27.781250,-17.96
12:30:27.796875,35.29
12:30:27.812500,91.58
12:30:27.828125,148.82
12:30:27.843750,202.52
12:30:27.859375,246.89
12:30:27.875000,276.67
12:30:27.890625,289.27
12:30:27.906250,286.06
12:30:27.921875,272.08
12:30:27.937500,254.24
12:30:27.953125,238.61
12:30:27.968750,228.39
12:30:27.984375,223.31
12:30:28,220.77
12:30:28.015625,217.65
12:30:28.031250,211.94
12:30:28.046875,203.09
12:30:28.062500,191.35
12:30:28.078125,176.84
12:30:28.093750,158.97
12:30:28.109375,136.72
12:30:28.125000,109.39
12:30:28.140625,77.27
12:30:28.156250,41.83
12:30:28.171875,5.57
12:30:28.187500,-28.80
12:30:28.203125,-59.14
12:30:28.218750,-84.41
12:30:28.234375,-104.93
12:30:28.250000,-122.17
12:30:28.265625,-138.24
12:30:28.281250,-155.35
12:30:28.296875,-175.42
12:30:28.312500,-199.83
12:30:28.328125,-229.16
12:30:28.343750,-262.83
12:30:28.359375,-298.46
12:30:28.375000,-331.84
12:30:28.390625,-357.41
12:30:28.406250,-369.70
12:30:28.421875,-365.18
12:30:28.437500,-343.42
12:30:28.453125,-307.35
