13:29:57,-0.00
13:29:57.015625,-0.00
13:29:57.031250,-0.00
13:29:57.046875,-0.00
13:29:57.062500,-0.00
13:29:57.078125,-0.00
13:29:57.093750,-0.00
13:29:57.109375,-0.00
13:29:57.125000,-0.00
13:29:57.140625,-0.00
13:29:57.156250,0.00
13:29:57.171875,0.01
13:29:57.187500,0.01
13:29:57.203125,-0.00
13:29:57.218750,-0.03
13:29:57.234375,-0.05
13:29:57.250000,-0.05
13:29:57.265625,0.00
13:29:57.281250,0.13
13:29:57.296875,0.36
13:29:57.312500,0.66
13:29:57.328125,1.01
13:29:57.343750,1.37
13:29:57.359375,1.72
13:29:57.375000,2.06
13:29:57.390625,2.40
13:29:57.406250,2.79
13:29:57.421875,3.24
13:29:57.437500,3.80
13:29:57.453125,4.42
13:29:57.468750,5.06
13:29:57.484375,5.66
13:29:57.500000,6.20
13:29:57.515625,6.68
13:29:57.531250,7.15
13:29:57.546875,7.68
13:29:57.562500,8.31
13:29:57.578125,9.14
13:29:57.593750,10.09
13:29:57.609375,11.04
13:29:57.625000,11.88
13:29:57.640625,12.56
13:29:57.656250,13.14
13:29:57.671875,13.76
13:29:57.687500,14.65
13:29:57.703125,15.96
13:29:57.718750,17.91
13:29:57.734375,20.32
13:29:57.750000,22.90
13:29:57.765625,25.38
13:29:57.781250,27.58
13:29:57.796875,29.57
13:29:57.812500,31.68
13:29:57.828125,34.32
13:29:57.843750,37.81
13:29:57.859375,42.54
13:29:57.875000,48.15
13:29:57.890625,54.10
13:29:57.906250,59.83
13:29:57.921875,64.97
13:29:57.937500,69.58
13:29:57.953125,74.14
13:29:57.968750,79.34
13:29:57.984375,85.71
13:29:58,93.76
13:29:58.015625,103.00
13:29:58.031250,112.62
13:29:58.046875,121.73
13:29:58.062500,129.77
13:29:58.078125,136.75
13:29:58.093750,143.30
13:29:58.109375,150.75
13:29:58.125000,157.77
13:29:58.140625,166.64
13:29:58.156250,177.95
13:29:58.171875,191.79
13:29:58.187500,206.97
13:29:58.203125,220.57
13:29:58.218750,228.25
13:29:58.234375,225.36
13:29:58.250000,208.53
13:29:58.265625,176.87
13:29:58.281250,132.76
13:29:58.296875,80.05
13:29:58.312500,23.07
13:29:58.328125,-34.94
13:29:58.343750,-92.44
13:29:58.359375,-149.16
13:29:58.375000,-205.23
13:29:58.390625,-260.37
13:29:58.406250,-313.74
13:29:58.421875,-363.87
13:29:58.437500,-409.83
13:29:58.453125,-450.91
13:29:58.468750,-486.50
13:29:58.484375,-515.74
13:29:58.500000,-537.23
13:29:58.515625,-549.22
13:29:58.531250,-549.96
13:29:58.546875,-538.37
13:29:58.562500,-514.21
13:29:58.578125,-478.67
13:29:58.593750,-433.88
13:29:58.609375,-382.45
13:29:58.625000,-327.02
13:29:58.640625,-269.84
13:29:58.656250,-212.63
13:29:58.671875,-156.66
13:29:58.687500,-102.95
13:29:58.703125,-52.37
13:29:58.718750,-5.90
13:29:58.734375,35.58
13:29:58.750000,71.43
13:29:58.765625,101.35
13:29:58.781250,125.50
13:29:58.796875,144.38
13:29:58.812500,158.69
13:29:58.828125,169.15
13:29:58.843750,176.37
13:29:58.859375,180.75
13:29:58.875000,182.57
13:29:58.890625,182.07
13:29:58.906250,179.51
13:29:58.921875,175.23
13:29:58.937500,169.65
13:29:58.953125,163.18
13:29:58.968750,156.15
13:29:58.984375,148.81
13:29:59,141.30
13:29:59.015625,133.69
13:29:59.031250,126.01
13:29:59.046875,118.33
13:29:59.062500,110.70
13:29:59.078125,103.18
13:29:59.093750,95.84
13:29:59.109375,88.71
13:29:59.125000,81.82
13:29:59.140625,75.17
13:29:59.156250,68.79
13:29:59.171875,62.71
13:29:59.187500,56.94
13:29:59.203125,51.52
13:29:59.218750,46.45
13:29:59.234375,41.71
13:29:59.250000,37.27
13:29:59.265625,33.12
13:29:59.281250,29.22
13:29:59.296875,25.60
13:29:59.312500,22.25
13:29:59.328125,19.21
13:29:59.343750,16.49
13:29:59.359375,14.08
13:29:59.375000,11.92
13:29:59.390625,9.98
13:29:59.406250,8.20
13:29:59.421875,6.56
13:29:59.437500,5.07
13:29:59.453125,3.77
13:29:59.468750,2.71
13:29:59.484375,1.91
13:29:59.500000,1.34
13:29:59.515625,0.89
13:29:59.531250,0.44
13:29:59.546875,-0.12
13:29:59.562500,-0.83
13:29:59.578125,-1.63
13:29:59.593750,-2.38
13:29:59.609375,-2.91
13:29:59.625000,-3.13
13:29:59.640625,-3.09
13:29:59.656250,-2.97
13:29:59.671875,-3.02
13:29:59.687500,-3.44
13:29:59.703125,-4.31
13:29:59.718750,-5.46
13:29:59.734375,-6.59
13:29:59.750000,-7.40
13:29:59.765625,-7.68
13:29:59.781250,-7.50
13:29:59.796875,-7.16
13:29:59.812500,-7.09
13:29:59.828125,-7.65
13:29:59.843750,-8.92
13:29:59.859375,-10.69
13:29:59.875000,-12.46
13:29:59.890625,-13.79
13:29:59.906250,-14.39
13:29:59.921875,-14.31
13:29:59.937500,-13.91
13:29:59.953125,-13.63
13:29:59.968750,-13.87
13:29:59.984375,-14.90
13:30:00,-16.90
13:30:00.015625,-19.86
13:30:00.031250,-23.42
13:30:00.046875,-26.63
13:30:00.062500,-27.95
13:30:00.078125,-25.79
13:30:00.093750,-19.18
13:30:00.109375,-8.48
13:30:00.125000,4.48
13:30:00.140625,17.06
13:30:00.156250,26.78
13:30:00.171875,32.39
13:30:00.187500,34.11
13:30:00.203125,33.27
13:30:00.218750,31.38
13:30:00.234375,29.37
13:30:00.250000,27.42
13:30:00.265625,25.23
13:30:00.281250,22.63
13:30:00.296875,19.90
13:30:00.312500,17.63
13:30:00.328125,16.35
13:30:00.343750,16.14
13:30:00.359375,16.53
13:30:00.375000,16.86
13:30:00.390625,16.53
13:30:00.406250,15.42
13:30:00.421875,13.86
13:30:00.437500,12.44
13:30:00.453125,11.68
13:30:00.468750,11.81
13:30:00.484375,12.69
13:30:00.500000,13.88
13:30:00.515625,14.99
13:30:00.531250,15.77
13:30:00.546875,16.23
13:30:00.562500,16.57
13:30:00.578125,17.04
13:30:00.593750,17.74
13:30:00.609375,18.64
13:30:00.625000,19.52
13:30:00.640625,20.04
13:30:00.656250,19.85
13:30:00.671875,18.68
13:30:00.687500,16.43
13:30:00.703125,13.17
13:30:00.718750,9.26
13:30:00.734375,4.97
13:30:00.750000,0.75
13:30:00.765625,-2.96
13:30:00.781250,-5.82
13:30:00.796875,-7.63
13:30:00.812500,-8.49
13:30:00.828125,-8.67
13:30:00.843750,-8.54
13:30:00.859375,-8.44
13:30:00.875000,-8.55
13:30:00.890625,-8.85
13:30:00.906250,-9.22
13:30:00.921875,-9.57
13:30:00.937500,-9.85
13:30:00.953125,-10.15
13:30:00.968750,-10.53
13:30:00.984375,-10.94
13:30:01,-11.22
13:30:01.015625,-11.21
13:30:01.031250,-10.78
13:30:01.046875,-9.98
13:30:01.062500,-9.05
13:30:01.078125,-8.28
13:30:01.093750,-7.87
13:30:01.109375,-7.86
13:30:01.125000,-8.08
13:30:01.140625,-8.25
13:30:01.156250,-8.13
13:30:01.171875,-7.60
13:30:01.187500,-6.72
13:30:01.203125,-5.71
13:30:01.218750,-4.83
13:30:01.234375,-4.28
13:30:01.250000,-4.10
13:30:01.265625,-4.19
13:30:01.281250,-4.35
13:30:01.296875,-4.35
13:30:01.312500,-4.07
13:30:01.328125,-3.49
13:30:01.343750,-2.68
13:30:01.359375,-1.82
13:30:01.375000,-1.06
13:30:01.390625,-0.57
13:30:01.406250,-0.38
13:30:01.421875,-0.46
13:30:01.437500,-0.65
13:30:01.453125,-0.79
13:30:01.468750,-0.75
13:30:01.484375,-0.54
13:30:01.500000,-0.19
13:30:01.515625,0.11
13:30:01.531250,0.17
13:30:01.546875,-0.16
13:30:01.562500,-0.91
13:30:01.578125,-2.00
13:30:01.593750,-3.26
13:30:01.609375,-4.48
13:30:01.625000,-5.48
13:30:01.640625,-6.17
13:30:01.656250,-6.65
13:30:01.671875,-7.18
13:30:01.687500,-8.07
13:30:01.703125,-9.60
13:30:01.718750,-11.63
13:30:01.734375,-13.99
13:30:01.750000,-16.30
13:30:01.765625,-18.07
13:30:01.781250,-18.78
13:30:01.796875,-18.07
13:30:01.812500,-15.77
13:30:01.828125,-12.03
13:30:01.843750,-7.22
13:30:01.859375,-1.88
13:30:01.875000,3.44
13:30:01.890625,8.30
13:30:01.906250,12.46
13:30:01.921875,15.83
13:30:01.937500,18.41
13:30:01.953125,20.25
13:30:01.968750,21.44
13:30:01.984375,22.11
13:30:02,22.47
13:30:02.015625,22.67
13:30:02.031250,22.85
13:30:02.046875,23.01
13:30:02.062500,23.07
13:30:02.078125,22.87
13:30:02.093750,22.33
13:30:02.109375,21.42
13:30:02.125000,20.24
13:30:02.140625,18.94
13:30:02.156250,17.67
13:30:02.171875,16.49
13:30:02.187500,15.38
13:30:02.203125,14.25
13:30:02.218750,12.97
13:30:02.234375,11.50
13:30:02.250000,9.88
13:30:02.265625,8.24
13:30:02.281250,6.75
13:30:02.296875,5.53
13:30:02.312500,4.59
13:30:02.328125,3.84
13:30:02.343750,3.14
13:30:02.359375,2.40
13:30:02.375000,1.58
13:30:02.390625,0.70
13:30:02.406250,-0.22
13:30:02.421875,-1.18
13:30:02.437500,-2.19
13:30:02.453125,-3.26
13:30:02.468750,-4.35
13:30:02.484375,-5.36
13:30:02.500000,-6.18
13:30:02.515625,-6.81
13:30:02.531250,-7.33
13:30:02.546875,-7.91
13:30:02.562500,-8.72
13:30:02.578125,-9.89
13:30:02.593750,-11.40
13:30:02.609375,-13.09
13:30:02.625000,-14.76
13:30:02.640625,-16.21
13:30:02.656250,-17.38
13:30:02.671875,-18.32
13:30:02.687500,-19.21
13:30:02.703125,-20.25
13:30:02.718750,-21.54
13:30:02.734375,-23.07
13:30:02.750000,-24.64
13:30:02.765625,-25.94
13:30:02.781250,-26.61
13:30:02.796875,-26.33
13:30:02.812500,-24.89
13:30:02.828125,-22.24
13:30:02.843750,-18.49
13:30:02.859375,-13.92
13:30:02.875000,-8.92
13:30:02.890625,-3.94
13:30:02.906250,0.60
13:30:02.921875,4.41
13:30:02.937500,7.35
13:30:02.953125,9.47
13:30:02.968750,10.90
13:30:02.984375,11.85
13:30:03,12.52
13:30:03.015625,13.03
13:30:03.031250,13.44
13:30:03.046875,13.76
13:30:03.062500,13.96
13:30:03.078125,14.08
13:30:03.093750,14.14
13:30:03.109375,14.23
13:30:03.125000,14.40
13:30:03.140625,14.63
13:30:03.156250,14.88
13:30:03.171875,15.06
13:30:03.187500,15.04
13:30:03.203125,14.76
13:30:03.218750,14.23
13:30:03.234375,13.53
13:30:03.250000,12.75
13:30:03.265625,11.95
13:30:03.281250,11.14
13:30:03.296875,10.25
13:30:03.312500,9.25
13:30:03.328125,8.09
13:30:03.343750,6.84
13:30:03.359375,5.56
13:30:03.375000,4.34
13:30:03.390625,3.22
13:30:03.406250,2.16
13:30:03.421875,1.11
13:30:03.437500,0.04
13:30:03.453125,-1.04
13:30:03.468750,-2.12
13:30:03.484375,-3.16
13:30:03.500000,-4.23
13:30:03.515625,-5.43
13:30:03.531250,-6.86
13:30:03.546875,-8.54
13:30:03.562500,-10.32
13:30:03.578125,-11.97
13:30:03.593750,-13.23
13:30:03.609375,-14.02
13:30:03.625000,-14.48
13:30:03.640625,-14.92
13:30:03.656250,-15.70
13:30:03.671875,-17.00
13:30:03.687500,-18.78
13:30:03.703125,-20.80
13:30:03.718750,-22.69
13:30:03.734375,-24.12
13:30:03.750000,-24.86
13:30:03.765625,-24.77
13:30:03.781250,-23.79
13:30:03.796875,-21.89
13:30:03.812500,-19.07
13:30:03.828125,-15.42
13:30:03.843750,-11.17
13:30:03.859375,-6.65
13:30:03.875000,-2.23
13:30:03.890625,1.75
13:30:03.906250,5.11
13:30:03.921875,7.79
13:30:03.937500,9.82
13:30:03.953125,11.31
13:30:03.968750,12.38
13:30:03.984375,13.15
13:30:04,13.73
13:30:04.015625,14.21
13:30:04.031250,14.60
13:30:04.046875,14.91
13:30:04.062500,15.06
13:30:04.078125,14.98
13:30:04.093750,14.64
13:30:04.109375,14.14
13:30:04.125000,13.66
13:30:04.140625,13.40
13:30:04.156250,13.46
13:30:04.171875,13.77
13:30:04.187500,14.10
13:30:04.203125,14.15
13:30:04.218750,13.74
13:30:04.234375,12.81
13:30:04.250000,11.48
13:30:04.265625,9.95
13:30:04.281250,8.39
13:30:04.296875,6.93
13:30:04.312500,5.60
13:30:04.328125,4.43
13:30:04.343750,3.45
13:30:04.359375,2.66
13:30:04.375000,2.04
13:30:04.390625,1.48
13:30:04.406250,0.84
13:30:04.421875,0.03
13:30:04.437500,-0.99
13:30:04.453125,-2.21
13:30:04.468750,-3.59
13:30:04.484375,-5.12
13:30:04.500000,-6.76
13:30:04.515625,-8.48
13:30:04.531250,-10.21
13:30:04.546875,-11.89
13:30:04.562500,-13.49
13:30:04.578125,-15.03
13:30:04.593750,-16.59
13:30:04.609375,-18.21
13:30:04.625000,-19.92
13:30:04.640625,-21.71
13:30:04.656250,-23.59
13:30:04.671875,-25.49
13:30:04.687500,-27.29
13:30:04.703125,-28.75
13:30:04.718750,-29.53
13:30:04.734375,-29.25
13:30:04.750000,-27.59
13:30:04.765625,-24.56
13:30:04.781250,-20.40
13:30:04.796875,-15.61
13:30:04.812500,-10.69
13:30:04.828125,-6.05
13:30:04.843750,-1.91
13:30:04.859375,1.71
13:30:04.875000,4.87
13:30:04.890625,7.62
13:30:04.906250,10.02
13:30:04.921875,12.09
13:30:04.937500,13.84
13:30:04.953125,15.32
13:30:04.968750,16.53
13:30:04.984375,17.50
13:30:05,18.22
13:30:05.015625,18.63
13:30:05.031250,18.76
13:30:05.046875,18.62
13:30:05.062500,18.29
13:30:05.078125,17.81
13:30:05.093750,17.23
13:30:05.109375,16.59
13:30:05.125000,15.95
13:30:05.140625,15.36
13:30:05.156250,14.81
13:30:05.171875,14.24
13:30:05.187500,13.55
13:30:05.203125,12.65
13:30:05.218750,11.51
13:30:05.234375,10.23
13:30:05.250000,8.94
13:30:05.265625,7.78
13:30:05.281250,6.77
13:30:05.296875,5.87
13:30:05.312500,4.93
13:30:05.328125,3.85
13:30:05.343750,2.57
13:30:05.359375,1.11
13:30:05.375000,-0.45
13:30:05.390625,-1.99
13:30:05.406250,-3.40
13:30:05.421875,-4.59
13:30:05.437500,-5.61
13:30:05.453125,-6.52
13:30:05.468750,-7.49
13:30:05.484375,-8.63
13:30:05.500000,-9.95
13:30:05.515625,-11.35
13:30:05.531250,-12.67
13:30:05.546875,-13.77
13:30:05.562500,-14.65
13:30:05.578125,-15.46
13:30:05.593750,-16.42
13:30:05.609375,-17.72
13:30:05.625000,-19.49
13:30:05.640625,-21.68
13:30:05.656250,-24.13
13:30:05.671875,-26.53
13:30:05.687500,-28.47
13:30:05.703125,-29.46
13:30:05.718750,-29.12
13:30:05.734375,-27.26
13:30:05.750000,-23.95
13:30:05.765625,-19.58
13:30:05.781250,-14.70
13:30:05.796875,-9.82
13:30:05.812500,-5.36
13:30:05.828125,-1.48
13:30:05.843750,1.84
13:30:05.859375,4.67
13:30:05.875000,7.06
13:30:05.890625,9.04
13:30:05.906250,10.60
13:30:05.921875,11.77
13:30:05.937500,12.64
13:30:05.953125,13.36
13:30:05.968750,14.03
13:30:05.984375,14.73
13:30:06,15.43
13:30:06.015625,16.02
13:30:06.031250,16.38
13:30:06.046875,16.39
13:30:06.062500,15.99
13:30:06.078125,15.18
13:30:06.093750,14.06
13:30:06.109375,12.78
13:30:06.125000,11.50
13:30:06.140625,10.32
13:30:06.156250,9.29
13:30:06.171875,8.35
13:30:06.187500,7.39
13:30:06.203125,6.31
13:30:06.218750,5.08
13:30:06.234375,3.74
13:30:06.250000,2.36
13:30:06.265625,1.01
13:30:06.281250,-0.33
13:30:06.296875,-1.72
13:30:06.312500,-3.23
13:30:06.328125,-4.89
13:30:06.343750,-6.67
13:30:06.359375,-8.52
13:30:06.375000,-10.41
13:30:06.390625,-12.34
13:30:06.406250,-14.39
13:30:06.421875,-16.63
13:30:06.437500,-19.10
13:30:06.453125,-21.79
13:30:06.468750,-24.59
13:30:06.484375,-27.37
13:30:06.500000,-30.05
13:30:06.515625,-32.59
13:30:06.531250,-35.08
13:30:06.546875,-37.63
13:30:06.562500,-40.38
13:30:06.578125,-43.38
13:30:06.593750,-46.58
13:30:06.609375,-49.79
13:30:06.625000,-52.69
13:30:06.640625,-54.84
13:30:06.656250,-55.76
13:30:06.671875,-54.95
13:30:06.687500,-52.06
13:30:06.703125,-46.94
13:30:06.718750,-39.71
13:30:06.734375,-30.73
13:30:06.750000,-20.50
13:30:06.765625,-9.57
13:30:06.781250,1.51
13:30:06.796875,12.23
13:30:06.812500,22.11
13:30:06.828125,30.76
13:30:06.843750,37.86
13:30:06.859375,43.27
13:30:06.875000,47.00
13:30:06.890625,49.21
13:30:06.906250,50.14
13:30:06.921875,50.05
13:30:06.937500,49.24
13:30:06.953125,47.99
13:30:06.968750,46.55
13:30:06.984375,45.06
13:30:07,43.59
13:30:07.015625,42.09
13:30:07.031250,40.46
13:30:07.046875,38.68
13:30:07.062500,36.79
13:30:07.078125,34.89
13:30:07.093750,33.11
13:30:07.109375,31.46
13:30:07.125000,29.86
13:30:07.140625,28.23
13:30:07.156250,26.47
13:30:07.171875,24.57
13:30:07.187500,22.58
13:30:07.203125,20.56
13:30:07.218750,18.52
13:30:07.234375,16.43
13:30:07.250000,14.27
13:30:07.265625,12.06
13:30:07.281250,9.92
13:30:07.296875,7.99
13:30:07.312500,6.37
13:30:07.328125,5.01
13:30:07.343750,3.78
13:30:07.359375,2.47
13:30:07.375000,0.98
13:30:07.390625,-0.65
13:30:07.406250,-2.30
13:30:07.421875,-3.77
13:30:07.437500,-4.96
13:30:07.453125,-5.90
13:30:07.468750,-6.72
13:30:07.484375,-7.60
13:30:07.500000,-8.70
13:30:07.515625,-10.13
13:30:07.531250,-11.97
13:30:07.546875,-14.27
13:30:07.562500,-17.05
13:30:07.578125,-20.22
13:30:07.593750,-23.48
13:30:07.609375,-26.36
13:30:07.625000,-28.34
13:30:07.640625,-28.97
13:30:07.656250,-28.06
13:30:07.671875,-25.71
13:30:07.687500,-22.21
13:30:07.703125,-17.97
13:30:07.718750,-13.35
13:30:07.734375,-8.64
13:30:07.750000,-4.12
13:30:07.765625,-0.08
13:30:07.781250,3.24
13:30:07.796875,5.64
13:30:07.812500,7.15
13:30:07.828125,7.95
13:30:07.843750,8.37
13:30:07.859375,8.71
13:30:07.875000,9.18
13:30:07.890625,9.86
13:30:07.906250,10.70
13:30:07.921875,11.60
13:30:07.937500,12.45
13:30:07.953125,13.15
13:30:07.968750,13.62
13:30:07.984375,13.82
13:30:08,13.78
13:30:08.015625,13.56
13:30:08.031250,13.27
13:30:08.046875,12.95
13:30:08.062500,12.62
13:30:08.078125,12.23
13:30:08.093750,11.72
13:30:08.109375,11.05
13:30:08.125000,10.23
13:30:08.140625,9.24
13:30:08.156250,8.09
13:30:08.171875,6.81
13:30:08.187500,5.39
13:30:08.203125,3.89
13:30:08.218750,2.37
13:30:08.234375,0.90
13:30:08.250000,-0.44
13:30:08.265625,-1.62
13:30:08.281250,-2.59
13:30:08.296875,-3.38
13:30:08.312500,-4.05
13:30:08.328125,-4.72
13:30:08.343750,-5.50
13:30:08.359375,-6.48
13:30:08.375000,-7.62
13:30:08.390625,-8.85
13:30:08.406250,-10.09
13:30:08.421875,-11.36
13:30:08.437500,-12.74
13:30:08.453125,-14.37
13:30:08.468750,-16.28
13:30:08.484375,-18.41
13:30:08.500000,-20.54
13:30:08.515625,-22.38
13:30:08.531250,-23.64
13:30:08.546875,-24.07
13:30:08.562500,-23.46
13:30:08.578125,-21.70
13:30:08.593750,-18.80
13:30:08.609375,-14.93
13:30:08.625000,-10.44
13:30:08.640625,-5.79
13:30:08.656250,-1.42
13:30:08.671875,2.31
13:30:08.687500,5.29
13:30:08.703125,7.58
13:30:08.718750,9.38
13:30:08.734375,10.88
13:30:08.750000,12.23
13:30:08.765625,13.40
13:30:08.781250,14.25
13:30:08.796875,14.61
13:30:08.812500,14.39
13:30:08.828125,13.64
13:30:08.843750,12.60
13:30:08.859375,11.59
13:30:08.875000,10.90
13:30:08.890625,10.67
13:30:08.906250,10.85
13:30:08.921875,11.21
13:30:08.937500,11.54
13:30:08.953125,11.64
13:30:08.968750,11.44
13:30:08.984375,10.95
13:30:09,10.20
13:30:09.015625,9.22
13:30:09.031250,8.00
13:30:09.046875,6.53
13:30:09.062500,4.82
13:30:09.078125,2.97
13:30:09.093750,1.13
13:30:09.109375,-0.52
13:30:09.125000,-1.87
13:30:09.140625,-2.90
13:30:09.156250,-3.71
13:30:09.171875,-4.48
13:30:09.187500,-5.39
13:30:09.203125,-6.49
13:30:09.218750,-7.73
13:30:09.234375,-8.93
13:30:09.250000,-9.95
13:30:09.265625,-10.79
13:30:09.281250,-11.57
13:30:09.296875,-12.52
13:30:09.312500,-13.85
13:30:09.328125,-15.58
13:30:09.343750,-17.62
13:30:09.359375,-19.76
13:30:09.375000,-21.74
13:30:09.390625,-23.33
13:30:09.406250,-24.29
13:30:09.421875,-24.33
13:30:09.437500,-23.18
13:30:09.453125,-20.68
13:30:09.468750,-16.88
13:30:09.484375,-12.16
13:30:09.500000,-7.07
13:30:09.515625,-2.20
13:30:09.531250,2.04
13:30:09.546875,5.51
13:30:09.562500,8.30
13:30:09.578125,10.54
13:30:09.593750,12.35
13:30:09.609375,13.74
13:30:09.625000,14.66
13:30:09.640625,15.16
13:30:09.656250,15.33
13:30:09.671875,15.34
13:30:09.687500,15.33
13:30:09.703125,15.38
13:30:09.718750,15.47
13:30:09.734375,15.53
13:30:09.750000,15.50
13:30:09.765625,15.31
13:30:09.781250,14.97
13:30:09.796875,14.47
13:30:09.812500,13.81
13:30:09.828125,12.99
13:30:09.843750,12.04
13:30:09.859375,10.94
13:30:09.875000,9.69
13:30:09.890625,8.25
13:30:09.906250,6.63
13:30:09.921875,4.92
13:30:09.937500,3.26
13:30:09.953125,1.78
13:30:09.968750,0.52
13:30:09.984375,-0.63
13:30:10,-1.87
13:30:10.015625,-3.40
13:30:10.031250,-5.27
13:30:10.046875,-7.38
13:30:10.062500,-9.48
13:30:10.078125,-11.33
13:30:10.093750,-12.82
13:30:10.109375,-14.00
13:30:10.125000,-15.07
13:30:10.140625,-16.29
13:30:10.156250,-17.90
13:30:10.171875,-20.00
13:30:10.187500,-22.59
13:30:10.203125,-25.45
13:30:10.218750,-28.18
13:30:10.234375,-30.25
13:30:10.250000,-31.11
13:30:10.265625,-30.35
13:30:10.281250,-27.80
13:30:10.296875,-23.58
13:30:10.312500,-18.06
13:30:10.328125,-11.82
13:30:10.343750,-5.50
13:30:10.359375,0.38
13:30:10.375000,5.44
13:30:10.390625,9.58
13:30:10.406250,12.89
13:30:10.421875,15.57
13:30:10.437500,17.76
13:30:10.453125,19.51
13:30:10.468750,20.76
13:30:10.484375,21.45
13:30:10.500000,21.59
13:30:10.515625,21.34
13:30:10.531250,20.92
13:30:10.546875,20.46
13:30:10.562500,20.01
13:30:10.578125,19.50
13:30:10.593750,18.86
13:30:10.609375,18.12
13:30:10.625000,17.39
13:30:10.640625,16.83
13:30:10.656250,16.47
13:30:10.671875,16.16
13:30:10.687500,15.62
13:30:10.703125,14.57
13:30:10.718750,12.90
13:30:10.734375,10.73
13:30:10.750000,8.36
13:30:10.765625,6.14
13:30:10.781250,4.30
13:30:10.796875,2.88
13:30:10.812500,1.76
13:30:10.828125,0.74
13:30:10.843750,-0.35
13:30:10.859375,-1.59
13:30:10.875000,-3.06
13:30:10.890625,-4.75
13:30:10.906250,-6.65
13:30:10.921875,-8.69
13:30:10.937500,-10.75
13:30:10.953125,-12.63
13:30:10.968750,-14.18
13:30:10.984375,-15.39
13:30:11,-16.41
13:30:11.015625,-17.56
13:30:11.031250,-19.21
13:30:11.046875,-21.57
13:30:11.062500,-24.62
13:30:11.078125,-27.97
13:30:11.093750,-30.98
13:30:11.109375,-32.85
13:30:11.125000,-32.92
13:30:11.140625,-30.85
13:30:11.156250,-26.75
13:30:11.171875,-21.17
13:30:11.187500,-14.92
13:30:11.203125,-8.76
13:30:11.218750,-3.22
13:30:11.234375,1.56
13:30:11.250000,5.70
13:30:11.265625,9.41
13:30:11.281250,12.82
13:30:11.296875,15.88
13:30:11.312500,18.39
13:30:11.328125,20.21
13:30:11.343750,21.32
13:30:11.359375,21.87
13:30:11.375000,22.07
13:30:11.390625,22.12
13:30:11.406250,22.07
13:30:11.421875,21.91
13:30:11.437500,21.58
13:30:11.453125,21.08
13:30:11.468750,20.50
13:30:11.484375,19.97
13:30:11.500000,19.60
13:30:11.515625,19.42
13:30:11.531250,19.33
13:30:11.546875,19.11
13:30:11.562500,18.52
13:30:11.578125,17.35
13:30:11.593750,15.54
13:30:11.609375,13.19
13:30:11.625000,10.58
13:30:11.640625,7.98
13:30:11.656250,5.64
13:30:11.671875,3.63
13:30:11.687500,1.96
13:30:11.703125,0.53
13:30:11.718750,-0.75
13:30:11.734375,-1.99
13:30:11.750000,-3.28
13:30:11.765625,-4.73
13:30:11.781250,-6.39
13:30:11.796875,-8.28
13:30:11.812500,-10.29
13:30:11.828125,-12.29
13:30:11.843750,-14.17
13:30:11.859375,-15.86
13:30:11.875000,-17.40
13:30:11.890625,-18.90
13:30:11.906250,-20.49
13:30:11.921875,-22.32
13:30:11.937500,-24.46
13:30:11.953125,-26.89
13:30:11.968750,-29.39
13:30:11.984375,-31.54
13:30:12,-32.80
13:30:12.015625,-32.64
13:30:12.031250,-30.77
13:30:12.046875,-27.23
13:30:12.062500,-22.40
13:30:12.078125,-16.79
13:30:12.093750,-10.93
13:30:12.109375,-5.23
13:30:12.125000,0.09
13:30:12.140625,4.91
13:30:12.156250,9.14
13:30:12.171875,12.73
13:30:12.187500,15.64
13:30:12.203125,17.87
13:30:12.218750,19.46
13:30:12.234375,20.49
13:30:12.250000,21.08
13:30:12.265625,21.38
13:30:12.281250,21.55
13:30:12.296875,21.70
13:30:12.312500,21.83
13:30:12.328125,21.89
13:30:12.343750,21.75
13:30:12.359375,21.36
13:30:12.375000,20.77
13:30:12.390625,20.11
13:30:12.406250,19.54
13:30:12.421875,19.08
13:30:12.437500,18.68
13:30:12.453125,18.17
13:30:12.468750,17.41
13:30:12.484375,16.35
13:30:12.500000,15.03
13:30:12.515625,13.53
13:30:12.531250,11.96
13:30:12.546875,10.35
13:30:12.562500,8.74
13:30:12.578125,7.12
13:30:12.593750,5.50
13:30:12.609375,3.88
13:30:12.625000,2.27
13:30:12.640625,0.72
13:30:12.656250,-0.74
13:30:12.671875,-2.08
13:30:12.687500,-3.31
13:30:12.703125,-4.49
13:30:12.718750,-5.75
13:30:12.734375,-7.22
13:30:12.750000,-8.97
13:30:12.765625,-10.96
13:30:12.781250,-13.06
13:30:12.796875,-15.13
13:30:12.812500,-17.09
13:30:12.828125,-19.00
13:30:12.843750,-21.03
13:30:12.859375,-23.33
13:30:12.875000,-25.93
13:30:12.890625,-28.59
13:30:12.906250,-30.87
13:30:12.921875,-32.19
13:30:12.937500,-32.06
13:30:12.953125,-30.26
13:30:12.968750,-26.91
13:30:12.984375,-22.43
13:30:13,-17.32
13:30:13.015625,-12.00
13:30:13.031250,-6.71
13:30:13.046875,-1.57
13:30:13.062500,3.33
13:30:13.078125,7.84
13:30:13.093750,11.68
13:30:13.109375,14.64
13:30:13.125000,16.61
13:30:13.140625,17.76
13:30:13.156250,18.37
13:30:13.171875,18.77
13:30:13.187500,19.14
13:30:13.203125,19.49
13:30:13.218750,19.68
13:30:13.234375,19.61
13:30:13.250000,19.26
13:30:13.265625,18.76
13:30:13.281250,18.27
13:30:13.296875,17.87
13:30:13.312500,17.54
13:30:13.328125,17.12
13:30:13.343750,16.44
13:30:13.359375,15.41
13:30:13.375000,14.09
13:30:13.390625,12.63
13:30:13.406250,11.21
13:30:13.421875,9.95
13:30:13.437500,8.84
13:30:13.453125,7.82
13:30:13.468750,6.78
13:30:13.484375,5.66
13:30:13.500000,4.47
13:30:13.515625,3.29
13:30:13.531250,2.15
13:30:13.546875,1.04
13:30:13.562500,-0.09
13:30:13.578125,-1.33
13:30:13.593750,-2.69
13:30:13.609375,-4.14
13:30:13.625000,-5.59
13:30:13.640625,-6.97
13:30:13.656250,-8.27
13:30:13.671875,-9.53
13:30:13.687500,-10.82
13:30:13.703125,-12.21
13:30:13.718750,-13.72
13:30:13.734375,-15.34
13:30:13.750000,-17.00
13:30:13.765625,-18.67
13:30:13.781250,-20.35
13:30:13.796875,-22.12
13:30:13.812500,-24.01
13:30:13.828125,-26.02
13:30:13.843750,-27.95
13:30:13.859375,-29.44
13:30:13.875000,-30.04
13:30:13.890625,-29.31
13:30:13.906250,-27.03
13:30:13.921875,-23.25
13:30:13.937500,-18.36
13:30:13.953125,-12.90
13:30:13.968750,-7.42
13:30:13.984375,-2.31
13:30:14,2.21
13:30:14.015625,6.06
13:30:14.031250,9.18
13:30:14.046875,11.50
13:30:14.062500,13.01
13:30:14.078125,13.75
13:30:14.093750,13.90
13:30:14.109375,13.78
13:30:14.125000,13.71
13:30:14.140625,13.89
13:30:14.156250,14.34
13:30:14.171875,14.90
13:30:14.187500,15.35
13:30:14.203125,15.54
13:30:14.218750,15.47
13:30:14.234375,15.25
13:30:14.250000,14.99
13:30:14.265625,14.77
13:30:14.281250,14.52
13:30:14.296875,14.15
13:30:14.312500,13.51
13:30:14.328125,12.58
13:30:14.343750,11.40
13:30:14.359375,10.09
13:30:14.375000,8.77
13:30:14.390625,7.49
13:30:14.406250,6.22
13:30:14.421875,4.89
13:30:14.437500,3.42
13:30:14.453125,1.81
13:30:14.468750,0.15
13:30:14.484375,-1.44
13:30:14.500000,-2.81
13:30:14.515625,-3.92
13:30:14.531250,-4.80
13:30:14.546875,-5.56
13:30:14.562500,-6.35
13:30:14.578125,-7.26
13:30:14.593750,-8.38
13:30:14.609375,-9.72
13:30:14.625000,-11.32
13:30:14.640625,-13.14
13:30:14.656250,-15.16
13:30:14.671875,-17.26
13:30:14.687500,-19.36
13:30:14.703125,-21.41
13:30:14.718750,-23.47
13:30:14.734375,-25.68
13:30:14.750000,-28.08
13:30:14.765625,-30.52
13:30:14.781250,-32.59
13:30:14.796875,-33.72
13:30:14.812500,-33.40
13:30:14.828125,-31.38
13:30:14.843750,-27.80
13:30:14.859375,-23.17
13:30:14.875000,-18.13
13:30:14.890625,-13.33
13:30:14.906250,-9.15
13:30:14.921875,-5.78
13:30:14.937500,-3.13
13:30:14.953125,-1.10
13:30:14.968750,0.39
13:30:14.984375,1.35
13:30:15,1.69
13:30:15.015625,1.41
13:30:15.031250,0.57
13:30:15.046875,-0.64
13:30:15.062500,-1.98
13:30:15.078125,-3.28
13:30:15.093750,-4.50
13:30:15.109375,-5.70
13:30:15.125000,-6.95
13:30:15.140625,-8.30
13:30:15.156250,-9.66
13:30:15.171875,-10.85
13:30:15.187500,-11.67
13:30:15.203125,-11.95
13:30:15.218750,-11.58
13:30:15.234375,-10.49
13:30:15.250000,-8.62
13:30:15.265625,-5.97
13:30:15.281250,-2.57
13:30:15.296875,1.45
13:30:15.312500,5.90
13:30:15.328125,10.50
13:30:15.343750,14.95
13:30:15.359375,18.96
13:30:15.375000,22.29
13:30:15.390625,24.80
13:30:15.406250,26.43
13:30:15.421875,27.15
13:30:15.437500,27.01
13:30:15.453125,26.01
13:30:15.468750,24.20
13:30:15.484375,21.68
13:30:15.500000,18.63
13:30:15.515625,15.33
13:30:15.531250,12.04
13:30:15.546875,8.94
13:30:15.562500,6.02
13:30:15.578125,3.18
13:30:15.593750,0.20
13:30:15.609375,-3.07
13:30:15.625000,-6.67
13:30:15.640625,-10.47
13:30:15.656250,-14.21
13:30:15.671875,-17.50
13:30:15.687500,-19.91
13:30:15.703125,-21.07
13:30:15.718750,-20.73
13:30:15.734375,-18.86
13:30:15.750000,-15.65
13:30:15.765625,-11.48
13:30:15.781250,-6.82
13:30:15.796875,-2.12
13:30:15.812500,2.26
13:30:15.828125,6.12
13:30:15.843750,9.36
13:30:15.859375,12.02
13:30:15.875000,14.17
13:30:15.890625,15.92
13:30:15.906250,17.36
13:30:15.921875,18.54
13:30:15.937500,19.47
13:30:15.953125,20.08
13:30:15.968750,20.31
13:30:15.984375,20.15
13:30:16,19.66
13:30:16.015625,18.99
13:30:16.031250,18.34
13:30:16.046875,17.82
13:30:16.062500,17.47
13:30:16.078125,17.24
13:30:16.093750,17.02
13:30:16.109375,16.71
13:30:16.125000,16.24
13:30:16.140625,15.55
13:30:16.156250,14.68
13:30:16.171875,13.64
13:30:16.187500,12.47
13:30:16.203125,11.19
13:30:16.218750,9.83
13:30:16.234375,8.37
13:30:16.250000,6.81
13:30:16.265625,5.19
13:30:16.281250,3.55
13:30:16.296875,1.97
13:30:16.312500,0.50
13:30:16.328125,-0.84
13:30:16.343750,-2.12
13:30:16.359375,-3.48
13:30:16.375000,-5.05
13:30:16.390625,-6.87
13:30:16.406250,-8.94
13:30:16.421875,-11.13
13:30:16.437500,-13.29
13:30:16.453125,-15.30
13:30:16.468750,-17.14
13:30:16.484375,-18.85
13:30:16.500000,-20.53
13:30:16.515625,-22.33
13:30:16.531250,-24.35
13:30:16.546875,-26.69
13:30:16.562500,-29.32
13:30:16.578125,-32.00
13:30:16.593750,-34.29
13:30:16.609375,-35.60
13:30:16.625000,-35.38
13:30:16.640625,-33.35
13:30:16.656250,-29.58
13:30:16.671875,-24.52
13:30:16.687500,-18.78
13:30:16.703125,-12.96
13:30:16.718750,-7.47
13:30:16.734375,-2.49
13:30:16.750000,1.97
13:30:16.765625,5.92
13:30:16.781250,9.36
13:30:16.796875,12.25
13:30:16.812500,14.56
13:30:16.828125,16.28
13:30:16.843750,17.46
13:30:16.859375,18.22
13:30:16.875000,18.67
13:30:16.890625,18.95
13:30:16.906250,19.14
13:30:16.921875,19.26
13:30:16.937500,19.27
13:30:16.953125,19.09
13:30:16.968750,18.72
13:30:16.984375,18.19
13:30:17,17.61
13:30:17.015625,17.09
13:30:17.031250,16.68
13:30:17.046875,16.32
13:30:17.062500,15.91
13:30:17.078125,15.30
13:30:17.093750,14.44
13:30:17.109375,13.33
13:30:17.125000,12.05
13:30:17.140625,10.71
13:30:17.156250,9.39
13:30:17.171875,8.11
13:30:17.187500,6.89
13:30:17.203125,5.72
13:30:17.218750,4.61
13:30:17.234375,3.56
13:30:17.250000,2.52
13:30:17.265625,1.45
13:30:17.281250,0.25
13:30:17.296875,-1.15
13:30:17.312500,-2.78
13:30:17.328125,-4.61
13:30:17.343750,-6.58
13:30:17.359375,-8.63
13:30:17.375000,-10.70
13:30:17.390625,-12.80
13:30:17.406250,-14.96
13:30:17.421875,-17.22
13:30:17.437500,-19.61
13:30:17.453125,-22.13
13:30:17.468750,-24.76
13:30:17.484375,-27.39
13:30:17.500000,-29.81
13:30:17.515625,-31.62
13:30:17.531250,-32.35
13:30:17.546875,-31.58
13:30:17.562500,-29.11
13:30:17.578125,-25.07
13:30:17.593750,-19.87
13:30:17.609375,-14.07
13:30:17.625000,-8.21
13:30:17.640625,-2.67
13:30:17.656250,2.34
13:30:17.671875,6.69
13:30:17.687500,10.29
13:30:17.703125,13.03
13:30:17.718750,14.89
13:30:17.734375,15.95
13:30:17.750000,16.42
13:30:17.765625,16.61
13:30:17.781250,16.72
13:30:17.796875,16.84
13:30:17.812500,16.90
13:30:17.828125,16.79
13:30:17.843750,16.43
13:30:17.859375,15.88
13:30:17.875000,15.22
13:30:17.890625,14.60
13:30:17.906250,14.10
13:30:17.921875,13.77
13:30:17.937500,13.58
13:30:17.953125,13.50
13:30:17.968750,13.44
13:30:17.984375,13.28
13:30:18,12.87
13:30:18.015625,12.09
13:30:18.031250,10.86
13:30:18.046875,9.20
13:30:18.062500,7.22
13:30:18.078125,5.12
13:30:18.093750,3.10
13:30:18.109375,1.25
13:30:18.125000,-0.38
13:30:18.140625,-1.85
13:30:18.156250,-3.21
13:30:18.171875,-4.51
13:30:18.187500,-5.74
13:30:18.203125,-6.93
13:30:18.218750,-8.07
13:30:18.234375,-9.24
13:30:18.250000,-10.53
13:30:18.265625,-11.99
13:30:18.281250,-13.62
13:30:18.296875,-15.36
13:30:18.312500,-17.13
13:30:18.328125,-18.87
13:30:18.343750,-20.64
13:30:18.359375,-22.53
13:30:18.375000,-24.58
13:30:18.390625,-26.72
13:30:18.406250,-28.72
13:30:18.421875,-30.17
13:30:18.437500,-30.65
13:30:18.453125,-29.81
13:30:18.468750,-27.48
13:30:18.484375,-23.73
13:30:18.500000,-18.82
13:30:18.515625,-13.15
13:30:18.531250,-7.15
13:30:18.546875,-1.22
13:30:18.562500,4.30
13:30:18.578125,9.12
13:30:18.593750,13.00
13:30:18.609375,15.73
13:30:18.625000,17.25
13:30:18.640625,17.64
13:30:18.656250,17.22
13:30:18.671875,16.48
13:30:18.687500,15.92
13:30:18.703125,15.88
13:30:18.718750,16.44
13:30:18.734375,17.38
13:30:18.750000,18.30
13:30:18.765625,18.85
13:30:18.781250,18.85
13:30:18.796875,18.41
13:30:18.812500,17.75
13:30:18.828125,17.18
13:30:18.843750,16.80
13:30:18.859375,16.55
13:30:18.875000,16.15
13:30:18.890625,15.33
13:30:18.906250,13.92
13:30:18.921875,11.92
13:30:18.937500,9.58
13:30:18.953125,7.21
13:30:18.968750,5.10
13:30:18.984375,3.39
13:30:19,2.05
13:30:19.015625,0.89
13:30:19.031250,-0.29
13:30:19.046875,-1.64
13:30:19.062500,-3.22
13:30:19.078125,-4.96
13:30:19.093750,-6.79
13:30:19.109375,-8.62
13:30:19.125000,-10.43
13:30:19.140625,-12.23
13:30:19.156250,-14.08
13:30:19.171875,-16.09
13:30:19.187500,-18.30
13:30:19.203125,-20.72
13:30:19.218750,-23.29
13:30:19.234375,-25.82
13:30:19.250000,-28.06
13:30:19.265625,-29.72
13:30:19.281250,-30.47
13:30:19.296875,-30.05
13:30:19.312500,-28.28
13:30:19.328125,-25.08
13:30:19.343750,-20.57
13:30:19.359375,-15.10
13:30:19.375000,-9.12
13:30:19.390625,-3.18
13:30:19.406250,2.26
13:30:19.421875,6.89
13:30:19.437500,10.61
13:30:19.453125,13.40
13:30:19.468750,15.37
13:30:19.484375,16.59
13:30:19.500000,17.18
13:30:19.515625,17.28
13:30:19.531250,17.09
13:30:19.546875,16.81
13:30:19.562500,16.66
13:30:19.578125,16.75
13:30:19.593750,17.09
13:30:19.609375,17.61
13:30:19.625000,18.14
13:30:19.640625,18.53
13:30:19.656250,18.67
13:30:19.671875,18.54
13:30:19.687500,18.14
13:30:19.703125,17.47
13:30:19.718750,16.51
13:30:19.734375,15.18
13:30:19.750000,13.44
13:30:19.765625,11.35
13:30:19.781250,9.08
13:30:19.796875,6.82
13:30:19.812500,4.76
13:30:19.828125,2.90
13:30:19.843750,1.16
13:30:19.859375,-0.63
13:30:19.875000,-2.57
13:30:19.890625,-4.68
13:30:19.906250,-6.87
13:30:19.921875,-9.07
13:30:19.937500,-11.24
13:30:19.953125,-13.41
13:30:19.968750,-15.59
13:30:19.984375,-17.78
13:30:20,-19.96
13:30:20.015625,-22.14
13:30:20.031250,-24.34
13:30:20.046875,-26.63
13:30:20.062500,-28.99
13:30:20.078125,-31.21
13:30:20.093750,-32.93
13:30:20.109375,-33.68
13:30:20.125000,-33.00
13:30:20.140625,-30.67
13:30:20.156250,-26.71
13:30:20.171875,-21.43
13:30:20.187500,-15.28
13:30:20.203125,-8.79
13:30:20.218750,-2.45
13:30:20.234375,3.40
13:30:20.250000,8.54
13:30:20.265625,12.91
13:30:20.281250,16.50
13:30:20.296875,19.33
13:30:20.312500,21.42
13:30:20.328125,22.79
13:30:20.343750,23.52
13:30:20.359375,23.75
13:30:20.375000,23.69
13:30:20.390625,23.53
13:30:20.406250,23.42
13:30:20.421875,23.34
13:30:20.437500,23.19
13:30:20.453125,22.85
13:30:20.468750,22.26
13:30:20.484375,21.44
13:30:20.500000,20.52
13:30:20.515625,19.60
13:30:20.531250,18.70
13:30:20.546875,17.67
13:30:20.562500,16.31
13:30:20.578125,14.40
13:30:20.593750,11.91
13:30:20.609375,8.98
13:30:20.625000,5.90
13:30:20.640625,2.96
13:30:20.656250,0.32
13:30:20.671875,-2.06
13:30:20.687500,-4.39
13:30:20.703125,-6.85
13:30:20.718750,-9.52
13:30:20.734375,-12.31
13:30:20.750000,-15.07
13:30:20.765625,-17.74
13:30:20.781250,-20.40
13:30:20.796875,-23.21
13:30:20.812500,-26.29
13:30:20.828125,-29.55
13:30:20.843750,-32.60
13:30:20.859375,-34.92
13:30:20.875000,-35.94
13:30:20.890625,-35.26
13:30:20.906250,-32.74
13:30:20.921875,-28.50
13:30:20.937500,-22.89
13:30:20.953125,-16.39
13:30:20.968750,-9.51
13:30:20.984375,-2.73
13:30:21,3.61
13:30:21.015625,9.31
13:30:21.031250,14.30
13:30:21.046875,18.59
13:30:21.062500,22.19
13:30:21.078125,25.10
13:30:21.093750,27.29
13:30:21.109375,28.78
13:30:21.125000,29.64
13:30:21.140625,29.98
13:30:21.156250,29.95
13:30:21.171875,29.64
13:30:21.187500,29.12
13:30:21.203125,28.43
13:30:21.218750,27.62
13:30:21.234375,26.76
13:30:21.250000,25.92
13:30:21.265625,25.17
13:30:21.281250,24.54
13:30:21.296875,24.05
13:30:21.312500,23.62
13:30:21.328125,23.11
13:30:21.343750,22.35
13:30:21.359375,21.14
13:30:21.375000,19.39
13:30:21.390625,17.18
13:30:21.406250,14.74
13:30:21.421875,12.36
13:30:21.437500,10.31
13:30:21.453125,8.66
13:30:21.468750,7.33
13:30:21.484375,6.07
13:30:21.500000,4.66
13:30:21.515625,2.94
13:30:21.531250,0.91
13:30:21.546875,-1.31
13:30:21.562500,-3.61
13:30:21.578125,-5.90
13:30:21.593750,-8.17
13:30:21.609375,-10.45
13:30:21.625000,-12.78
13:30:21.640625,-15.14
13:30:21.656250,-17.48
13:30:21.671875,-19.72
13:30:21.687500,-21.84
13:30:21.703125,-23.91
13:30:21.718750,-26.04
13:30:21.734375,-28.45
13:30:21.750000,-31.32
13:30:21.765625,-34.65
13:30:21.781250,-38.28
13:30:21.796875,-41.76
13:30:21.812500,-44.48
13:30:21.828125,-45.77
13:30:21.843750,-45.15
13:30:21.859375,-42.38
13:30:21.875000,-37.64
13:30:21.890625,-31.40
13:30:21.906250,-24.25
13:30:21.921875,-16.77
13:30:21.937500,-9.35
13:30:21.953125,-2.25
13:30:21.968750,4.43
13:30:21.984375,10.55
13:30:22,16.00
13:30:22.015625,20.61
13:30:22.031250,24.28
13:30:22.046875,26.97
13:30:22.062500,28.76
13:30:22.078125,29.82
13:30:22.093750,30.30
13:30:22.109375,30.37
13:30:22.125000,30.16
13:30:22.140625,29.75
13:30:22.156250,29.24
13:30:22.171875,28.69
13:30:22.187500,28.19
13:30:22.203125,27.75
13:30:22.218750,27.35
13:30:22.234375,26.90
13:30:22.250000,26.30
13:30:22.265625,25.43
13:30:22.281250,24.24
13:30:22.296875,22.74
13:30:22.312500,20.97
13:30:22.328125,19.05
13:30:22.343750,17.11
13:30:22.359375,15.25
13:30:22.375000,13.50
13:30:22.390625,11.84
13:30:22.406250,10.18
13:30:22.421875,8.45
13:30:22.437500,6.59
13:30:22.453125,4.64
13:30:22.468750,2.64
13:30:22.484375,0.64
13:30:22.500000,-1.37
13:30:22.515625,-3.40
13:30:22.531250,-5.50
13:30:22.546875,-7.68
13:30:22.562500,-9.94
13:30:22.578125,-12.24
13:30:22.593750,-14.57
13:30:22.609375,-16.91
13:30:22.625000,-19.25
13:30:22.640625,-21.54
13:30:22.656250,-23.74
13:30:22.671875,-25.83
13:30:22.687500,-27.90
13:30:22.703125,-30.11
13:30:22.718750,-32.61
13:30:22.734375,-35.41
13:30:22.750000,-38.26
13:30:22.765625,-40.62
13:30:22.781250,-41.79
13:30:22.796875,-41.14
13:30:22.812500,-38.28
13:30:22.828125,-33.32
13:30:22.843750,-26.72
13:30:22.859375,-19.19
13:30:22.875000,-11.48
13:30:22.890625,-4.19
13:30:22.906250,2.33
13:30:22.921875,7.95
13:30:22.937500,12.65
13:30:22.953125,16.48
13:30:22.968750,19.47
13:30:22.984375,21.65
13:30:23,23.08
13:30:23.015625,23.90
13:30:23.031250,24.26
13:30:23.046875,24.40
13:30:23.062500,24.46
13:30:23.078125,24.50
13:30:23.093750,24.51
13:30:23.109375,24.38
13:30:23.125000,24.04
13:30:23.140625,23.52
13:30:23.156250,22.94
13:30:23.171875,22.46
13:30:23.187500,22.24
13:30:23.203125,22.23
13:30:23.218750,22.27
13:30:23.234375,22.08
13:30:23.250000,21.40
13:30:23.265625,20.11
13:30:23.281250,18.25
13:30:23.296875,16.02
13:30:23.312500,13.70
13:30:23.328125,11.57
13:30:23.343750,9.78
13:30:23.359375,8.34
13:30:23.375000,7.12
13:30:23.390625,5.92
13:30:23.406250,4.58
13:30:23.421875,3.07
13:30:23.437500,1.48
13:30:23.453125,-0.08
13:30:23.468750,-1.49
13:30:23.484375,-2.80
13:30:23.500000,-4.18
13:30:23.515625,-5.80
13:30:23.531250,-7.79
13:30:23.546875,-10.12
13:30:23.562500,-12.62
13:30:23.578125,-15.07
13:30:23.593750,-17.33
13:30:23.609375,-19.36
13:30:23.625000,-21.20
13:30:23.640625,-22.97
13:30:23.656250,-24.75
13:30:23.671875,-26.62
13:30:23.687500,-28.66
13:30:23.703125,-30.91
13:30:23.718750,-33.32
13:30:23.734375,-35.70
13:30:23.750000,-37.68
13:30:23.765625,-38.77
13:30:23.781250,-38.51
13:30:23.796875,-36.55
13:30:23.812500,-32.86
13:30:23.828125,-27.64
13:30:23.843750,-21.37
13:30:23.859375,-14.62
13:30:23.875000,-7.98
13:30:23.890625,-1.96
13:30:23.906250,3.17
13:30:23.921875,7.32
13:30:23.937500,10.60
13:30:23.953125,13.23
13:30:23.968750,15.38
13:30:23.984375,17.15
13:30:24,18.55
13:30:24.015625,19.57
13:30:24.031250,20.21
13:30:24.046875,20.56
13:30:24.062500,20.75
13:30:24.078125,20.85
13:30:24.093750,20.85
13:30:24.109375,20.64
13:30:24.125000,20.18
13:30:24.140625,19.50
13:30:24.156250,18.76
13:30:24.171875,18.12
13:30:24.187500,17.71
13:30:24.203125,17.49
13:30:24.218750,17.26
13:30:24.234375,16.78
13:30:24.250000,15.84
13:30:24.265625,14.40
13:30:24.281250,12.54
13:30:24.296875,10.53
13:30:24.312500,8.62
13:30:24.328125,6.99
13:30:24.343750,5.65
13:30:24.359375,4.48
13:30:24.375000,3.31
13:30:24.390625,1.96
13:30:24.406250,0.42
13:30:24.421875,-1.18
13:30:24.437500,-2.68
13:30:24.453125,-3.94
13:30:24.468750,-4.91
13:30:24.484375,-5.71
13:30:24.500000,-6.55
13:30:24.515625,-7.54
13:30:24.531250,-8.78
13:30:24.546875,-10.21
13:30:24.562500,-11.74
13:30:24.578125,-13.27
13:30:24.593750,-14.78
13:30:24.609375,-16.33
13:30:24.625000,-18.01
13:30:24.640625,-19.88
13:30:24.656250,-21.89
13:30:24.671875,-23.96
13:30:24.687500,-25.95
13:30:24.703125,-27.78
13:30:24.718750,-29.39
13:30:24.734375,-30.74
13:30:24.750000,-31.67
13:30:24.765625,-31.91
13:30:24.781250,-31.09
13:30:24.796875,-28.89
13:30:24.812500,-25.17
13:30:24.828125,-20.10
13:30:24.843750,-14.14
13:30:24.859375,-7.93
13:30:24.875000,-2.08
13:30:24.890625,2.97
13:30:24.906250,7.04
13:30:24.921875,10.12
13:30:24.937500,12.33
13:30:24.953125,13.80
13:30:24.968750,14.68
13:30:24.984375,15.10
13:30:25,15.20
13:30:25.015625,15.14
13:30:25.031250,15.05
13:30:25.046875,15.03
13:30:25.062500,15.10
13:30:25.078125,15.27
13:30:25.093750,15.49
13:30:25.109375,15.70
13:30:25.125000,15.84
13:30:25.140625,15.86
13:30:25.156250,15.73
13:30:25.171875,15.43
13:30:25.187500,14.93
13:30:25.203125,14.24
13:30:25.218750,13.38
13:30:25.234375,12.43
13:30:25.250000,11.46
13:30:25.265625,10.55
13:30:25.281250,9.67
13:30:25.296875,8.74
13:30:25.312500,7.63
13:30:25.328125,6.27
13:30:25.343750,4.65
13:30:25.359375,2.90
13:30:25.375000,1.18
13:30:25.390625,-0.37
13:30:25.406250,-1.76
13:30:25.421875,-3.06
13:30:25.437500,-4.40
13:30:25.453125,-5.86
13:30:25.468750,-7.41
13:30:25.484375,-8.97
13:30:25.500000,-10.46
13:30:25.515625,-11.85
13:30:25.531250,-13.18
13:30:25.546875,-14.53
13:30:25.562500,-15.95
13:30:25.578125,-17.52
13:30:25.593750,-19.26
13:30:25.609375,-21.23
13:30:25.625000,-23.49
13:30:25.640625,-26.02
13:30:25.656250,-28.71
13:30:25.671875,-31.23
13:30:25.687500,-33.11
13:30:25.703125,-33.80
13:30:25.718750,-32.87
13:30:25.734375,-30.21
13:30:25.750000,-26.04
13:30:25.765625,-20.83
13:30:25.781250,-15.16
13:30:25.796875,-9.54
13:30:25.812500,-4.28
13:30:25.828125,0.51
13:30:25.843750,4.81
13:30:25.859375,8.61
13:30:25.875000,11.87
13:30:25.890625,14.51
13:30:25.906250,16.42
13:30:25.921875,17.58
13:30:25.937500,18.06
13:30:25.953125,18.03
13:30:25.968750,17.68
13:30:25.984375,17.25
13:30:26,16.90
13:30:26.015625,16.69
13:30:26.031250,16.64
13:30:26.046875,16.72
13:30:26.062500,16.93
13:30:26.078125,17.23
13:30:26.093750,17.56
13:30:26.109375,17.74
13:30:26.125000,17.60
13:30:26.140625,16.94
13:30:26.156250,15.75
13:30:26.171875,14.15
13:30:26.187500,12.43
13:30:26.203125,10.86
13:30:26.218750,9.58
13:30:26.234375,8.52
13:30:26.250000,7.44
13:30:26.265625,6.10
13:30:26.281250,4.39
13:30:26.296875,2.39
13:30:26.312500,0.32
13:30:26.328125,-1.59
13:30:26.343750,-3.25
13:30:26.359375,-4.74
13:30:26.375000,-6.23
13:30:26.390625,-7.90
13:30:26.406250,-9.83
13:30:26.421875,-11.92
13:30:26.437500,-14.00
13:30:26.453125,-15.95
13:30:26.468750,-17.76
13:30:26.484375,-19.50
13:30:26.500000,-21.32
13:30:26.515625,-23.33
13:30:26.531250,-25.55
13:30:26.546875,-27.89
13:30:26.562500,-30.28
13:30:26.578125,-32.56
13:30:26.593750,-34.55
13:30:26.609375,-35.97
13:30:26.625000,-36.44
13:30:26.640625,-35.57
13:30:26.656250,-33.12
13:30:26.671875,-29.07
13:30:26.687500,-23.73
13:30:26.703125,-17.63
13:30:26.718750,-11.36
13:30:26.734375,-5.46
13:30:26.750000,-0.26
13:30:26.765625,4.13
13:30:26.781250,7.78
13:30:26.796875,10.79
13:30:26.812500,13.26
13:30:26.828125,15.23
13:30:26.843750,16.67
13:30:26.859375,17.58
13:30:26.875000,18.03
13:30:26.890625,18.18
13:30:26.906250,18.21
13:30:26.921875,18.23
13:30:26.937500,18.23
13:30:26.953125,18.05
13:30:26.968750,17.53
13:30:26.984375,16.58
13:30:27,15.31
13:30:27.015625,13.92
13:30:27.031250,12.60
13:30:27.046875,11.39
13:30:27.062500,10.13
13:30:27.078125,8.59
13:30:27.093750,6.54
13:30:27.109375,3.95
13:30:27.125000,0.96
13:30:27.140625,-2.11
13:30:27.156250,-4.95
13:30:27.171875,-7.34
13:30:27.187500,-9.25
13:30:27.203125,-10.81
13:30:27.218750,-12.30
13:30:27.234375,-14.00
13:30:27.250000,-16.16
13:30:27.265625,-18.81
13:30:27.281250,-21.75
13:30:27.296875,-24.51
13:30:27.312500,-26.48
13:30:27.328125,-27.04
13:30:27.343750,-25.80
13:30:27.359375,-22.69
13:30:27.375000,-18.02
13:30:27.390625,-12.32
13:30:27.406250,-6.20
13:30:27.421875,-0.18
13:30:27.437500,5.41
13:30:27.453125,10.44
13:30:27.468750,14.87
13:30:27.484375,18.70
13:30:27.500000,21.95
13:30:27.515625,24.60
13:30:27.531250,26.64
13:30:27.546875,28.00
13:30:27.562500,28.70
13:30:27.578125,28.77
13:30:27.593750,28.37
13:30:27.609375,27.68
13:30:27.625000,26.93
13:30:27.640625,26.27
13:30:27.656250,25.79
13:30:27.671875,25.47
13:30:27.687500,25.25
13:30:27.703125,25.09
13:30:27.718750,24.95
13:30:27.734375,24.82
13:30:27.750000,24.66
13:30:27.765625,24.42
13:30:27.781250,23.99
13:30:27.796875,23.28
13:30:27.812500,22.21
13:30:27.828125,20.79
13:30:27.843750,19.07
13:30:27.859375,17.18
13:30:27.875000,15.26
13:30:27.890625,13.43
13:30:27.906250,11.75
13:30:27.921875,10.25
13:30:27.937500,8.90
13:30:27.953125,7.71
13:30:27.968750,6.69
13:30:27.984375,5.84
13:30:28,5.11
13:30:28.015625,4.36
13:30:28.031250,3.40
13:30:28.046875,2.11
13:30:28.062500,0.50
13:30:28.078125,-1.25
13:30:28.093750,-2.90
13:30:28.109375,-4.26
13:30:28.125000,-5.33
13:30:28.140625,-6.28
13:30:28.156250,-7.36
13:30:28.171875,-8.73
13:30:28.187500,-10.40
13:30:28.203125,-12.23
13:30:28.218750,-14.06
13:30:28.234375,-15.78
13:30:28.250000,-17.44
13:30:28.265625,-19.13
13:30:28.281250,-20.95
13:30:28.296875,-22.89
13:30:28.312500,-24.89
13:30:28.328125,-26.87
13:30:28.343750,-28.82
13:30:28.359375,-30.78
13:30:28.375000,-32.84
13:30:28.390625,-35.05
13:30:28.406250,-37.38
13:30:28.421875,-39.80
13:30:28.437500,-42.29
13:30:28.453125,-44.85
13:30:28.468750,-47.41
13:30:28.484375,-49.73
13:30:28.500000,-51.38
13:30:28.515625,-51.70
13:30:28.531250,-50.08
13:30:28.546875,-46.13
13:30:28.562500,-39.92
13:30:28.578125,-32.01
13:30:28.593750,-23.30
13:30:28.609375,-14.74
13:30:28.625000,-7.11
13:30:28.640625,-0.79
13:30:28.656250,4.24
13:30:28.671875,8.28
13:30:28.687500,11.72
13:30:28.703125,14.86
13:30:28.718750,17.82
13:30:28.734375,20.50
13:30:28.750000,22.73
13:30:28.765625,24.33
13:30:28.781250,25.26
13:30:28.796875,25.63
13:30:28.812500,25.67
13:30:28.828125,25.64
13:30:28.843750,25.75
13:30:28.859375,26.08
13:30:28.875000,26.62
13:30:28.890625,27.30
13:30:28.906250,27.96
13:30:28.921875,28.40
13:30:28.937500,28.37
13:30:28.953125,27.58
13:30:28.968750,25.85
13:30:28.984375,23.17
13:30:29,19.78
13:30:29.015625,16.13
13:30:29.031250,12.75
13:30:29.046875,10.05
13:30:29.062500,8.13
13:30:29.078125,6.77
13:30:29.093750,5.54
13:30:29.109375,4.07
13:30:29.125000,2.15
13:30:29.140625,-0.13
13:30:29.156250,-2.46
13:30:29.171875,-4.51
13:30:29.187500,-6.06
13:30:29.203125,-7.06
13:30:29.218750,-7.63
13:30:29.234375,-7.90
13:30:29.250000,-8.00
13:30:29.265625,-8.00
13:30:29.281250,-8.00
13:30:29.296875,-8.21
13:30:29.312500,-8.95
13:30:29.328125,-10.61
13:30:29.343750,-13.50
13:30:29.359375,-17.65
13:30:29.375000,-22.73
13:30:29.390625,-28.01
13:30:29.406250,-32.54
13:30:29.421875,-35.39
13:30:29.437500,-35.93
13:30:29.453125,-34.01
13:30:29.468750,-29.99
13:30:29.484375,-24.55
13:30:29.500000,-18.42
13:30:29.515625,-12.16
13:30:29.531250,-6.07
13:30:29.546875,-0.24
13:30:29.562500,5.27
13:30:29.578125,10.26
13:30:29.593750,14.42
13:30:29.609375,17.41
13:30:29.625000,19.11
13:30:29.640625,19.67
13:30:29.656250,19.53
13:30:29.671875,19.21
13:30:29.687500,19.11
13:30:29.703125,19.37
13:30:29.718750,19.85
13:30:29.734375,20.25
13:30:29.750000,20.34
13:30:29.765625,20.08
13:30:29.781250,19.64
13:30:29.796875,19.31
13:30:29.812500,19.33
13:30:29.828125,19.72
13:30:29.843750,20.28
13:30:29.859375,20.69
13:30:29.875000,20.59
13:30:29.890625,19.85
13:30:29.906250,18.53
13:30:29.921875,16.86
13:30:29.937500,15.16
13:30:29.953125,13.64
13:30:29.968750,12.36
13:30:29.984375,11.20
13:30:30,9.97
13:30:30.015625,8.49
13:30:30.031250,6.68
13:30:30.046875,4.60
13:30:30.062500,2.39
13:30:30.078125,0.20
13:30:30.093750,-1.84
13:30:30.109375,-3.72
13:30:30.125000,-5.53
13:30:30.140625,-7.41
13:30:30.156250,-9.50
13:30:30.171875,-11.86
13:30:30.187500,-14.50
13:30:30.203125,-17.35
13:30:30.218750,-20.33
13:30:30.234375,-23.43
13:30:30.250000,-26.60
13:30:30.265625,-29.70
13:30:30.281250,-32.44
13:30:30.296875,-34.28
13:30:30.312500,-34.63
13:30:30.328125,-32.98
13:30:30.343750,-29.20
13:30:30.359375,-23.59
13:30:30.375000,-16.84
13:30:30.390625,-9.79
13:30:30.406250,-3.20
13:30:30.421875,2.42
13:30:30.437500,6.85
13:30:30.453125,10.10
13:30:30.468750,12.26
13:30:30.484375,13.45
13:30:30.500000,13.87
13:30:30.515625,13.78
13:30:30.531250,13.50
13:30:30.546875,13.35
13:30:30.562500,13.52
13:30:30.578125,14.02
13:30:30.593750,14.73
13:30:30.609375,15.44
13:30:30.625000,15.97
13:30:30.640625,16.25
13:30:30.656250,16.33
13:30:30.671875,16.24
13:30:30.687500,16.05
13:30:30.703125,15.70
13:30:30.718750,15.15
13:30:30.734375,14.30
13:30:30.750000,13.17
13:30:30.765625,11.81
13:30:30.781250,10.31
13:30:30.796875,8.74
13:30:30.812500,7.16
13:30:30.828125,5.52
13:30:30.843750,3.77
13:30:30.859375,1.86
13:30:30.875000,-0.26
13:30:30.890625,-2.58
13:30:30.906250,-5.07
13:30:30.921875,-7.67
13:30:30.937500,-10.29
13:30:30.953125,-12.82
13:30:30.968750,-15.20
13:30:30.984375,-17.46
13:30:31,-19.74
13:30:31.015625,-22.27
13:30:31.031250,-25.25
13:30:31.046875,-28.68
13:30:31.062500,-32.31
13:30:31.078125,-35.55
13:30:31.093750,-37.70
13:30:31.109375,-38.06
13:30:31.125000,-36.24
13:30:31.140625,-32.24
13:30:31.156250,-26.48
13:30:31.171875,-19.59
13:30:31.187500,-12.30
13:30:31.203125,-5.16
13:30:31.218750,1.48
13:30:31.234375,7.47
13:30:31.250000,12.75
13:30:31.265625,17.28
13:30:31.281250,20.97
13:30:31.296875,23.71
13:30:31.312500,25.49
13:30:31.328125,26.36
13:30:31.343750,26.55
13:30:31.359375,26.33
13:30:31.375000,25.95
13:30:31.390625,25.54
13:30:31.406250,25.12
13:30:31.421875,24.65
13:30:31.437500,24.09
13:30:31.453125,23.46
13:30:31.468750,22.83
13:30:31.484375,22.27
13:30:31.500000,21.73
13:30:31.515625,21.07
13:30:31.531250,20.09
13:30:31.546875,18.62
13:30:31.562500,16.63
13:30:31.578125,14.26
13:30:31.593750,11.74
13:30:31.609375,9.24
13:30:31.625000,6.85
13:30:31.640625,4.52
13:30:31.656250,2.11
13:30:31.671875,-0.45
13:30:31.687500,-3.16
13:30:31.703125,-5.93
13:30:31.718750,-8.61
13:30:31.734375,-11.10
13:30:31.750000,-13.38
13:30:31.765625,-15.54
13:30:31.781250,-17.76
13:30:31.796875,-20.25
13:30:31.812500,-23.23
13:30:31.828125,-26.78
13:30:31.843750,-30.78
13:30:31.859375,-34.85
13:30:31.875000,-38.34
13:30:31.890625,-40.55
13:30:31.906250,-40.85
13:30:31.921875,-38.94
13:30:31.937500,-34.95
13:30:31.953125,-29.35
13:30:31.968750,-22.75
13:30:31.984375,-15.74
13:30:32,-8.73
13:30:32.015625,-1.94
13:30:32.031250,4.52
13:30:32.046875,10.57
13:30:32.062500,16.12
13:30:32.078125,21.05
13:30:32.093750,25.30
13:30:32.109375,28.77
13:30:32.125000,31.44
13:30:32.140625,33.26
13:30:32.156250,34.23
13:30:32.171875,34.46
13:30:32.187500,34.10
13:30:32.203125,33.37
13:30:32.218750,32.49
13:30:32.234375,31.61
13:30:32.250000,30.79
13:30:32.265625,30.06
13:30:32.281250,29.35
13:30:32.296875,28.61
13:30:32.312500,27.70
13:30:32.328125,26.48
13:30:32.343750,24.82
13:30:32.359375,22.66
13:30:32.375000,20.09
13:30:32.390625,17.35
13:30:32.406250,14.71
13:30:32.421875,12.33
13:30:32.437500,10.16
13:30:32.453125,7.99
13:30:32.468750,5.55
13:30:32.484375,2.74
13:30:32.500000,-0.35
13:30:32.515625,-3.40
13:30:32.531250,-6.06
13:30:32.546875,-8.16
13:30:32.562500,-9.80
13:30:32.578125,-11.28
13:30:32.593750,-13.02
13:30:32.609375,-15.33
13:30:32.625000,-18.33
13:30:32.640625,-21.94
13:30:32.656250,-25.95
13:30:32.671875,-30.05
13:30:32.687500,-33.82
13:30:32.703125,-36.79
13:30:32.718750,-38.43
13:30:32.734375,-38.25
13:30:32.750000,-35.99
13:30:32.765625,-31.73
13:30:32.781250,-25.88
13:30:32.796875,-19.07
13:30:32.812500,-11.97
13:30:32.828125,-5.08
13:30:32.843750,1.29
13:30:32.859375,7.05
13:30:32.875000,12.18
13:30:32.890625,16.63
13:30:32.906250,20.35
13:30:32.921875,23.28
13:30:32.937500,25.45
13:30:32.953125,26.97
13:30:32.968750,28.02
13:30:32.984375,28.72
13:30:33,29.12
13:30:33.015625,29.18
13:30:33.031250,28.87
13:30:33.046875,28.22
13:30:33.062500,27.38
13:30:33.078125,26.55
13:30:33.093750,25.88
13:30:33.109375,25.40
13:30:33.125000,25.00
13:30:33.140625,24.44
13:30:33.156250,23.55
13:30:33.171875,22.20
13:30:33.187500,20.47
13:30:33.203125,18.45
13:30:33.218750,16.32
13:30:33.234375,14.19
13:30:33.250000,12.15
13:30:33.265625,10.19
13:30:33.281250,8.27
13:30:33.296875,6.36
13:30:33.312500,4.40
13:30:33.328125,2.39
13:30:33.343750,0.33
13:30:33.359375,-1.77
13:30:33.375000,-3.87
13:30:33.390625,-5.98
13:30:33.406250,-8.13
13:30:33.421875,-10.33
13:30:33.437500,-12.58
13:30:33.453125,-14.83
13:30:33.468750,-17.00
13:30:33.484375,-19.05
13:30:33.500000,-21.03
13:30:33.515625,-23.14
13:30:33.531250,-25.61
13:30:33.546875,-28.58
13:30:33.562500,-32.01
13:30:33.578125,-35.50
13:30:33.593750,-38.46
13:30:33.609375,-40.19
13:30:33.625000,-40.14
13:30:33.640625,-38.14
13:30:33.656250,-34.34
13:30:33.671875,-29.15
13:30:33.687500,-23.11
13:30:33.703125,-16.69
13:30:33.718750,-10.22
13:30:33.734375,-3.99
13:30:33.750000,1.80
13:30:33.765625,6.91
13:30:33.781250,11.17
13:30:33.796875,14.48
13:30:33.812500,16.91
13:30:33.828125,18.65
13:30:33.843750,19.93
13:30:33.859375,20.95
13:30:33.875000,21.79
13:30:33.890625,22.46
13:30:33.906250,22.87
13:30:33.921875,22.99
13:30:33.937500,22.86
13:30:33.953125,22.52
13:30:33.968750,22.04
13:30:33.984375,21.44
13:30:34,20.69
13:30:34.015625,19.74
13:30:34.031250,18.61
13:30:34.046875,17.37
13:30:34.062500,16.13
13:30:34.078125,14.97
13:30:34.093750,13.88
13:30:34.109375,12.75
13:30:34.125000,11.48
13:30:34.140625,9.98
13:30:34.156250,8.30
13:30:34.171875,6.55
13:30:34.187500,4.89
13:30:34.203125,3.38
13:30:34.218750,2.02
13:30:34.234375,0.73
13:30:34.250000,-0.60
13:30:34.265625,-2.01
13:30:34.281250,-3.51
13:30:34.296875,-5.02
13:30:34.312500,-6.43
13:30:34.328125,-7.70
13:30:34.343750,-8.88
13:30:34.359375,-10.10
13:30:34.375000,-11.56
13:30:34.390625,-13.35
13:30:34.406250,-15.49
13:30:34.421875,-17.86
13:30:34.437500,-20.25
13:30:34.453125,-22.48
13:30:34.468750,-24.47
13:30:34.484375,-26.24
13:30:34.500000,-27.89
13:30:34.515625,-29.47
13:30:34.531250,-30.90
13:30:34.546875,-31.94
13:30:34.562500,-32.26
13:30:34.578125,-31.50
13:30:34.593750,-29.47
13:30:34.609375,-26.14
13:30:34.625000,-21.73
13:30:34.640625,-16.60
13:30:34.656250,-11.16
13:30:34.671875,-5.80
13:30:34.687500,-0.81
13:30:34.703125,3.63
13:30:34.718750,7.37
13:30:34.734375,10.35
13:30:34.750000,12.54
13:30:34.765625,13.98
13:30:34.781250,14.76
13:30:34.796875,15.03
13:30:34.812500,14.99
13:30:34.828125,14.84
13:30:34.843750,14.76
13:30:34.859375,14.85
13:30:34.875000,15.12
13:30:34.890625,15.47
13:30:34.906250,15.76
13:30:34.921875,15.84
13:30:34.937500,15.69
13:30:34.953125,15.33
13:30:34.968750,14.83
13:30:34.984375,14.23
13:30:35,13.52
13:30:35.015625,12.58
13:30:35.031250,11.38
13:30:35.046875,9.95
13:30:35.062500,8.43
13:30:35.078125,6.98
13:30:35.093750,5.76
13:30:35.109375,4.76
13:30:35.125000,3.87
13:30:35.140625,2.93
13:30:35.156250,1.77
13:30:35.171875,0.37
13:30:35.187500,-1.21
13:30:35.203125,-2.77
13:30:35.218750,-4.13
13:30:35.234375,-5.18
13:30:35.250000,-6.00
13:30:35.265625,-6.78
13:30:35.281250,-7.77
13:30:35.296875,-9.12
13:30:35.312500,-10.84
13:30:35.328125,-12.73
13:30:35.343750,-14.55
13:30:35.359375,-16.08
13:30:35.375000,-17.28
13:30:35.390625,-18.27
13:30:35.406250,-19.31
13:30:35.421875,-20.67
13:30:35.437500,-22.48
13:30:35.453125,-24.66
13:30:35.468750,-26.90
13:30:35.484375,-28.76
13:30:35.500000,-29.75
13:30:35.515625,-29.55
13:30:35.531250,-28.00
13:30:35.546875,-25.21
13:30:35.562500,-21.43
13:30:35.578125,-16.99
13:30:35.593750,-12.20
13:30:35.609375,-7.33
13:30:35.625000,-2.62
13:30:35.640625,1.70
13:30:35.656250,5.43
13:30:35.671875,8.44
13:30:35.687500,10.70
13:30:35.703125,12.28
13:30:35.718750,13.34
13:30:35.734375,14.07
13:30:35.750000,14.64
13:30:35.765625,15.16
13:30:35.781250,15.68
13:30:35.796875,16.13
13:30:35.812500,16.41
13:30:35.828125,16.45
13:30:35.843750,16.22
13:30:35.859375,15.81
13:30:35.875000,15.33
13:30:35.890625,14.85
13:30:35.906250,14.38
13:30:35.921875,13.80
13:30:35.937500,13.00
13:30:35.953125,11.94
13:30:35.968750,10.71
13:30:35.984375,9.47
13:30:36,8.35
13:30:36.015625,7.36
13:30:36.031250,6.37
13:30:36.046875,5.24
13:30:36.062500,3.87
13:30:36.078125,2.35
13:30:36.093750,0.89
13:30:36.109375,-0.32
13:30:36.125000,-1.19
13:30:36.140625,-1.77
13:30:36.156250,-2.21
13:30:36.171875,-2.69
13:30:36.187500,-3.32
13:30:36.203125,-4.16
13:30:36.218750,-5.19
13:30:36.234375,-6.39
13:30:36.250000,-7.74
13:30:36.265625,-9.29
13:30:36.281250,-11.05
13:30:36.296875,-13.01
13:30:36.312500,-15.13
13:30:36.328125,-17.25
13:30:36.343750,-19.25
13:30:36.359375,-21.05
13:30:36.375000,-22.70
13:30:36.390625,-24.36
13:30:36.406250,-26.20
13:30:36.421875,-28.23
13:30:36.437500,-30.20
13:30:36.453125,-31.62
13:30:36.468750,-31.88
13:30:36.484375,-30.56
13:30:36.500000,-27.56
13:30:36.515625,-23.20
13:30:36.531250,-18.08
13:30:36.546875,-12.81
13:30:36.562500,-7.87
13:30:36.578125,-3.46
13:30:36.593750,0.43
13:30:36.609375,3.93
13:30:36.625000,7.09
13:30:36.640625,9.91
13:30:36.656250,12.28
13:30:36.671875,14.14
13:30:36.687500,15.55
13:30:36.703125,16.64
13:30:36.718750,17.60
13:30:36.734375,18.53
13:30:36.750000,19.39
13:30:36.765625,20.00
13:30:36.781250,20.20
13:30:36.796875,19.93
13:30:36.812500,19.29
13:30:36.828125,18.51
13:30:36.843750,17.80
13:30:36.859375,17.25
13:30:36.875000,16.78
13:30:36.890625,16.20
13:30:36.906250,15.33
13:30:36.921875,14.07
13:30:36.937500,12.51
13:30:36.953125,10.81
13:30:36.968750,9.14
13:30:36.984375,7.64
13:30:37,6.33
13:30:37.015625,5.15
13:30:37.031250,4.01
13:30:37.046875,2.82
13:30:37.062500,1.59
13:30:37.078125,0.38
13:30:37.093750,-0.73
13:30:37.109375,-1.70
13:30:37.125000,-2.56
13:30:37.140625,-3.40
13:30:37.156250,-4.34
13:30:37.171875,-5.45
13:30:37.187500,-6.74
13:30:37.203125,-8.18
13:30:37.218750,-9.70
13:30:37.234375,-11.26
13:30:37.250000,-12.85
13:30:37.265625,-14.47
13:30:37.281250,-16.13
13:30:37.296875,-17.84
13:30:37.312500,-19.61
13:30:37.328125,-21.49
13:30:37.343750,-23.52
13:30:37.359375,-25.68
13:30:37.375000,-27.92
13:30:37.390625,-30.05
13:30:37.406250,-31.79
13:30:37.421875,-32.76
13:30:37.437500,-32.61
13:30:37.453125,-31.09
13:30:37.468750,-28.13
13:30:37.484375,-23.96
13:30:37.500000,-18.95
13:30:37.515625,-13.66
13:30:37.531250,-8.52
13:30:37.546875,-3.79
13:30:37.562500,0.47
13:30:37.578125,4.38
13:30:37.593750,8.01
13:30:37.609375,11.36
13:30:37.625000,14.32
13:30:37.640625,16.77
13:30:37.656250,18.63
13:30:37.671875,19.98
13:30:37.687500,20.94
13:30:37.703125,21.61
13:30:37.718750,22.00
13:30:37.734375,22.04
13:30:37.750000,21.63
13:30:37.765625,20.80
13:30:37.781250,19.67
13:30:37.796875,18.49
13:30:37.812500,17.50
13:30:37.828125,16.81
13:30:37.843750,16.40
13:30:37.859375,16.09
13:30:37.875000,15.63
13:30:37.890625,14.85
13:30:37.906250,13.71
13:30:37.921875,12.31
13:30:37.937500,10.83
13:30:37.953125,9.43
13:30:37.968750,8.17
13:30:37.984375,7.03
13:30:38,5.93
13:30:38.015625,4.79
13:30:38.031250,3.57
13:30:38.046875,2.28
13:30:38.062500,0.96
13:30:38.078125,-0.37
13:30:38.093750,-1.70
13:30:38.109375,-3.02
13:30:38.125000,-4.36
13:30:38.140625,-5.76
13:30:38.156250,-7.24
13:30:38.171875,-8.80
13:30:38.187500,-10.36
13:30:38.203125,-11.84
13:30:38.218750,-13.16
13:30:38.234375,-14.32
13:30:38.250000,-15.44
13:30:38.265625,-16.70
13:30:38.281250,-18.30
13:30:38.296875,-20.35
13:30:38.312500,-22.89
13:30:38.328125,-25.78
13:30:38.343750,-28.78
13:30:38.359375,-31.54
13:30:38.375000,-33.62
13:30:38.390625,-34.53
13:30:38.406250,-33.90
13:30:38.421875,-31.55
13:30:38.437500,-27.62
13:30:38.453125,-22.54
13:30:38.468750,-16.88
13:30:38.484375,-11.21
13:30:38.500000,-5.93
13:30:38.515625,-1.23
13:30:38.531250,2.83
13:30:38.546875,6.30
13:30:38.562500,9.20
13:30:38.578125,11.59
13:30:38.593750,13.50
13:30:38.609375,14.99
13:30:38.625000,16.10
13:30:38.640625,16.92
13:30:38.656250,17.51
13:30:38.671875,17.96
13:30:38.687500,18.34
13:30:38.703125,18.69
13:30:38.718750,18.98
13:30:38.734375,19.14
13:30:38.750000,19.07
13:30:38.765625,18.76
13:30:38.781250,18.24
13:30:38.796875,17.64
13:30:38.812500,17.05
13:30:38.828125,16.46
13:30:38.843750,15.78
13:30:38.859375,14.88
13:30:38.875000,13.67
13:30:38.890625,12.23
13:30:38.906250,10.72
13:30:38.921875,9.34
13:30:38.937500,8.19
13:30:38.953125,7.27
13:30:38.968750,6.45
13:30:38.984375,5.56
13:30:39,4.50
13:30:39.015625,3.25
13:30:39.031250,1.88
13:30:39.046875,0.46
13:30:39.062500,-1.00
13:30:39.078125,-2.54
13:30:39.093750,-4.24
13:30:39.109375,-6.11
13:30:39.125000,-8.06
13:30:39.140625,-9.90
13:30:39.156250,-11.50
13:30:39.171875,-12.82
13:30:39.187500,-13.96
13:30:39.203125,-15.12
13:30:39.218750,-16.50
13:30:39.234375,-18.19
13:30:39.250000,-20.21
13:30:39.265625,-22.51
13:30:39.281250,-25.06
13:30:39.296875,-27.81
13:30:39.312500,-30.58
13:30:39.328125,-33.06
13:30:39.343750,-34.72
13:30:39.359375,-34.96
13:30:39.375000,-33.36
13:30:39.390625,-29.80
13:30:39.406250,-24.64
13:30:39.421875,-18.56
13:30:39.437500,-12.31
13:30:39.453125,-6.49
13:30:39.468750,-1.42
13:30:39.484375,2.88
13:30:39.500000,6.57
13:30:39.515625,9.79
13:30:39.531250,12.61
13:30:39.546875,15.00
13:30:39.562500,16.87
13:30:39.578125,18.20
13:30:39.593750,19.01
13:30:39.609375,19.40
13:30:39.625000,19.49
13:30:39.640625,19.39
13:30:39.656250,19.20
13:30:39.671875,18.99
13:30:39.687500,18.83
13:30:39.703125,18.76
13:30:39.718750,18.79
13:30:39.734375,18.87
13:30:39.750000,18.91
13:30:39.765625,18.78
13:30:39.781250,18.33
13:30:39.796875,17.48
13:30:39.812500,16.21
13:30:39.828125,14.57
13:30:39.843750,12.71
13:30:39.859375,10.76
13:30:39.875000,8.84
13:30:39.890625,7.02
13:30:39.906250,5.31
13:30:39.921875,3.68
13:30:39.937500,2.08
13:30:39.953125,0.42
13:30:39.968750,-1.34
13:30:39.984375,-3.21
13:30:40,-5.18
13:30:40.015625,-7.16
13:30:40.031250,-9.10
13:30:40.046875,-10.93
13:30:40.062500,-12.65
13:30:40.078125,-14.30
13:30:40.093750,-15.97
13:30:40.109375,-17.78
13:30:40.125000,-19.84
13:30:40.140625,-22.24
13:30:40.156250,-24.92
13:30:40.171875,-27.67
13:30:40.187500,-30.07
13:30:40.203125,-31.59
13:30:40.218750,-31.68
13:30:40.234375,-29.95
13:30:40.250000,-26.35
13:30:40.265625,-21.21
13:30:40.281250,-15.17
13:30:40.296875,-8.98
13:30:40.312500,-3.29
13:30:40.328125,1.52
13:30:40.343750,5.37
13:30:40.359375,8.40
13:30:40.375000,10.81
13:30:40.390625,12.73
13:30:40.406250,14.19
13:30:40.421875,15.15
13:30:40.437500,15.65
13:30:40.453125,15.81
13:30:40.468750,15.87
13:30:40.484375,16.02
13:30:40.500000,16.36
13:30:40.515625,16.82
13:30:40.531250,17.29
13:30:40.546875,17.63
13:30:40.562500,17.78
13:30:40.578125,17.76
13:30:40.593750,17.61
13:30:40.609375,17.31
13:30:40.625000,16.84
13:30:40.640625,16.20
13:30:40.656250,15.42
13:30:40.671875,14.61
13:30:40.687500,13.89
13:30:40.703125,13.29
13:30:40.718750,12.75
13:30:40.734375,12.15
13:30:40.750000,11.35
13:30:40.765625,10.22
13:30:40.781250,8.75
13:30:40.796875,6.99
13:30:40.812500,5.05
13:30:40.828125,3.14
13:30:40.843750,1.42
13:30:40.859375,0.03
13:30:40.875000,-1.06
13:30:40.890625,-2.02
13:30:40.906250,-3.08
13:30:40.921875,-4.43
13:30:40.937500,-6.15
13:30:40.953125,-8.12
13:30:40.968750,-10.16
13:30:40.984375,-12.09
13:30:41,-13.82
13:30:41.015625,-15.41
13:30:41.031250,-16.94
13:30:41.046875,-18.51
13:30:41.062500,-20.16
13:30:41.078125,-21.98
13:30:41.093750,-24.02
13:30:41.109375,-26.40
13:30:41.125000,-29.18
13:30:41.140625,-32.24
13:30:41.156250,-35.24
13:30:41.171875,-37.64
13:30:41.187500,-38.79
13:30:41.203125,-38.11
13:30:41.218750,-35.31
13:30:41.234375,-30.48
13:30:41.250000,-24.16
13:30:41.265625,-17.08
13:30:41.281250,-9.99
13:30:41.296875,-3.45
13:30:41.312500,2.27
13:30:41.328125,7.14
13:30:41.343750,11.26
13:30:41.359375,14.65
13:30:41.375000,17.27
13:30:41.390625,19.07
13:30:41.406250,20.05
13:30:41.421875,20.39
13:30:41.437500,20.39
13:30:41.453125,20.39
13:30:41.468750,20.63
13:30:41.484375,21.17
13:30:41.500000,21.90
13:30:41.515625,22.64
13:30:41.531250,23.18
13:30:41.546875,23.44
13:30:41.562500,23.42
13:30:41.578125,23.20
13:30:41.593750,22.85
13:30:41.609375,22.38
13:30:41.625000,21.73
13:30:41.640625,20.81
13:30:41.656250,19.58
13:30:41.671875,18.06
13:30:41.687500,16.37
13:30:41.703125,14.61
13:30:41.718750,12.84
13:30:41.734375,11.08
13:30:41.750000,9.35
13:30:41.765625,7.67
13:30:41.781250,6.08
13:30:41.796875,4.64
13:30:41.812500,3.32
13:30:41.828125,2.00
13:30:41.843750,0.53
13:30:41.859375,-1.21
13:30:41.875000,-3.18
13:30:41.890625,-5.21
13:30:41.906250,-7.12
13:30:41.921875,-8.84
13:30:41.937500,-10.50
13:30:41.953125,-12.35
13:30:41.968750,-14.68
13:30:41.984375,-17.62
13:30:42,-21.06
13:30:42.015625,-24.63
13:30:42.031250,-27.79
13:30:42.046875,-29.95
13:30:42.062500,-30.64
13:30:42.078125,-29.57
13:30:42.093750,-26.73
13:30:42.109375,-22.39
13:30:42.125000,-17.02
13:30:42.140625,-11.21
13:30:42.156250,-5.48
13:30:42.171875,-0.27
13:30:42.187500,4.23
13:30:42.203125,7.95
13:30:42.218750,10.91
13:30:42.234375,13.18
13:30:42.250000,14.75
13:30:42.265625,15.59
13:30:42.281250,15.69
13:30:42.296875,15.14
13:30:42.312500,14.09
13:30:42.328125,12.81
13:30:42.343750,11.59
13:30:42.359375,10.63
13:30:42.375000,10.05
13:30:42.390625,9.86
13:30:42.406250,10.03
13:30:42.421875,10.57
13:30:42.437500,11.56
13:30:42.453125,13.10
13:30:42.468750,15.19
13:30:42.484375,17.74
13:30:42.500000,20.48
13:30:42.515625,23.08
13:30:42.531250,25.27
13:30:42.546875,26.88
13:30:42.562500,27.94
13:30:42.578125,28.57
13:30:42.593750,28.88
13:30:42.609375,28.89
13:30:42.625000,28.48
13:30:42.640625,27.46
13:30:42.656250,25.65
13:30:42.671875,22.99
13:30:42.687500,19.62
13:30:42.703125,15.73
13:30:42.718750,11.62
13:30:42.734375,7.51
13:30:42.750000,3.59
13:30:42.765625,-0.09
13:30:42.781250,-3.53
13:30:42.796875,-6.83
13:30:42.812500,-10.15
13:30:42.828125,-13.66
13:30:42.843750,-17.45
13:30:42.859375,-21.33
13:30:42.875000,-24.91
13:30:42.890625,-27.59
13:30:42.906250,-28.73
13:30:42.921875,-27.88
13:30:42.937500,-24.96
13:30:42.953125,-20.23
13:30:42.968750,-14.29
13:30:42.984375,-7.82
13:30:43,-1.49
13:30:43.015625,4.15
13:30:43.031250,8.79
13:30:43.046875,12.32
13:30:43.062500,14.76
13:30:43.078125,16.23
13:30:43.093750,16.90
13:30:43.109375,16.96
13:30:43.125000,16.65
13:30:43.140625,16.17
13:30:43.156250,15.71
13:30:43.171875,15.42
13:30:43.187500,15.32
13:30:43.203125,15.36
13:30:43.218750,15.40
13:30:43.234375,15.32
13:30:43.250000,15.04
13:30:43.265625,14.51
13:30:43.281250,13.74
13:30:43.296875,12.72
13:30:43.312500,11.47
13:30:43.328125,10.01
13:30:43.343750,8.42
13:30:43.359375,6.78
13:30:43.375000,5.13
13:30:43.390625,3.45
13:30:43.406250,1.69
13:30:43.421875,-0.20
13:30:43.437500,-2.19
13:30:43.453125,-4.20
13:30:43.468750,-6.07
13:30:43.484375,-7.70
13:30:43.500000,-9.08
13:30:43.515625,-10.28
13:30:43.531250,-11.39
13:30:43.546875,-12.49
13:30:43.562500,-13.64
13:30:43.578125,-14.86
13:30:43.593750,-16.18
13:30:43.609375,-17.68
13:30:43.625000,-19.41
13:30:43.640625,-21.36
13:30:43.656250,-23.43
13:30:43.671875,-25.39
13:30:43.687500,-26.85
13:30:43.703125,-27.39
13:30:43.718750,-26.58
13:30:43.734375,-24.18
13:30:43.750000,-20.25
13:30:43.765625,-15.17
13:30:43.781250,-9.56
13:30:43.796875,-4.08
13:30:43.812500,0.75
13:30:43.828125,4.72
13:30:43.843750,7.81
13:30:43.859375,10.18
13:30:43.875000,11.92
13:30:43.890625,13.05
13:30:43.906250,13.50
13:30:43.921875,13.26
13:30:43.937500,12.45
13:30:43.953125,11.31
13:30:43.968750,10.17
13:30:43.984375,9.29
13:30:44,8.81
13:30:44.015625,8.71
13:30:44.031250,8.88
13:30:44.046875,9.16
13:30:44.062500,9.39
13:30:44.078125,9.43
13:30:44.093750,9.15
13:30:44.109375,8.45
13:30:44.125000,7.33
13:30:44.140625,5.89
13:30:44.156250,4.29
13:30:44.171875,2.72
13:30:44.187500,1.31
13:30:44.203125,0.09
13:30:44.218750,-1.02
13:30:44.234375,-2.11
13:30:44.250000,-3.26
13:30:44.265625,-4.44
13:30:44.281250,-5.62
13:30:44.296875,-6.76
13:30:44.312500,-7.91
13:30:44.328125,-9.13
13:30:44.343750,-10.50
13:30:44.359375,-12.03
13:30:44.375000,-13.65
13:30:44.390625,-15.30
13:30:44.406250,-16.97
13:30:44.421875,-18.67
13:30:44.437500,-20.42
13:30:44.453125,-22.08
13:30:44.468750,-23.40
13:30:44.484375,-23.94
13:30:44.500000,-23.30
13:30:44.515625,-21.22
13:30:44.531250,-17.72
13:30:44.546875,-13.13
13:30:44.562500,-7.98
13:30:44.578125,-2.84
13:30:44.593750,1.79
13:30:44.609375,5.57
13:30:44.625000,8.35
13:30:44.640625,10.12
13:30:44.656250,10.96
13:30:44.671875,11.01
13:30:44.687500,10.50
13:30:44.703125,9.69
13:30:44.718750,8.87
13:30:44.734375,8.31
13:30:44.750000,8.19
13:30:44.765625,8.53
13:30:44.781250,9.23
13:30:44.796875,10.04
13:30:44.812500,10.67
13:30:44.828125,10.91
13:30:44.843750,10.62
13:30:44.859375,9.83
13:30:44.875000,8.65
13:30:44.890625,7.29
13:30:44.906250,5.90
13:30:44.921875,4.57
13:30:44.937500,3.27
13:30:44.953125,1.92
13:30:44.968750,0.38
13:30:44.984375,-1.42
13:30:45,-3.50
13:30:45.015625,-5.84
13:30:45.031250,-8.39
13:30:45.046875,-11.08
13:30:45.062500,-13.75
13:30:45.078125,-16.15
13:30:45.093750,-17.92
13:30:45.109375,-18.63
13:30:45.125000,-17.96
13:30:45.140625,-15.82
13:30:45.156250,-12.41
13:30:45.171875,-8.17
13:30:45.187500,-3.62
13:30:45.203125,0.78
13:30:45.218750,4.73
13:30:45.234375,8.09
13:30:45.250000,10.81
13:30:45.265625,12.87
13:30:45.281250,14.27
13:30:45.296875,15.02
13:30:45.312500,15.22
13:30:45.328125,15.02
13:30:45.343750,14.61
13:30:45.359375,14.17
13:30:45.375000,13.78
13:30:45.390625,13.47
13:30:45.406250,13.24
13:30:45.421875,13.06
13:30:45.437500,12.93
13:30:45.453125,12.84
13:30:45.468750,12.75
13:30:45.484375,12.57
13:30:45.500000,12.18
13:30:45.515625,11.49
13:30:45.531250,10.49
13:30:45.546875,9.24
13:30:45.562500,7.83
13:30:45.578125,6.36
13:30:45.593750,4.85
13:30:45.609375,3.32
13:30:45.625000,1.76
13:30:45.640625,0.23
13:30:45.656250,-1.21
13:30:45.671875,-2.54
13:30:45.687500,-3.82
13:30:45.703125,-5.18
13:30:45.718750,-6.78
13:30:45.734375,-8.75
13:30:45.750000,-11.05
13:30:45.765625,-13.55
13:30:45.781250,-16.03
13:30:45.796875,-18.33
13:30:45.812500,-20.37
13:30:45.828125,-22.18
13:30:45.843750,-23.88
13:30:45.859375,-25.68
13:30:45.875000,-27.78
13:30:45.890625,-30.40
13:30:45.906250,-33.60
13:30:45.921875,-37.24
13:30:45.937500,-40.86
13:30:45.953125,-43.81
13:30:45.968750,-45.36
13:30:45.984375,-44.95
13:30:46,-42.35
13:30:46.015625,-37.77
13:30:46.031250,-31.68
13:30:46.046875,-24.72
13:30:46.062500,-17.51
13:30:46.078125,-10.48
13:30:46.093750,-3.92
13:30:46.109375,2.03
13:30:46.125000,7.33
13:30:46.140625,11.90
13:30:46.156250,15.66
13:30:46.171875,18.52
13:30:46.187500,20.45
13:30:46.203125,21.49
13:30:46.218750,21.81
13:30:46.234375,21.65
13:30:46.250000,21.26
13:30:46.265625,20.86
13:30:46.281250,20.52
13:30:46.296875,20.21
13:30:46.312500,19.82
13:30:46.328125,19.27
13:30:46.343750,18.44
13:30:46.359375,17.32
13:30:46.375000,15.85
13:30:46.390625,14.04
13:30:46.406250,11.88
13:30:46.421875,9.35
13:30:46.437500,6.51
13:30:46.453125,3.41
13:30:46.468750,0.19
13:30:46.484375,-3.04
13:30:46.500000,-6.17
13:30:46.515625,-9.12
13:30:46.531250,-11.86
13:30:46.546875,-14.45
13:30:46.562500,-16.97
13:30:46.578125,-19.55
13:30:46.593750,-22.35
13:30:46.609375,-25.52
13:30:46.625000,-29.21
13:30:46.640625,-33.50
13:30:46.656250,-38.32
13:30:46.671875,-43.45
13:30:46.687500,-48.44
13:30:46.703125,-52.65
13:30:46.718750,-55.37
13:30:46.734375,-55.93
13:30:46.750000,-53.91
13:30:46.765625,-49.24
13:30:46.781250,-42.26
13:30:46.796875,-33.68
13:30:46.812500,-24.43
13:30:46.828125,-15.39
13:30:46.843750,-7.17
13:30:46.859375,-0.02
13:30:46.875000,6.17
13:30:46.890625,11.65
13:30:46.906250,16.71
13:30:46.921875,21.50
13:30:46.937500,25.97
13:30:46.953125,30.03
13:30:46.968750,33.55
13:30:46.984375,36.46
13:30:47,38.77
13:30:47.015625,40.46
13:30:47.031250,41.46
13:30:47.046875,41.66
13:30:47.062500,40.93
13:30:47.078125,39.18
13:30:47.093750,36.45
13:30:47.109375,32.92
13:30:47.125000,28.85
13:30:47.140625,24.55
13:30:47.156250,20.24
13:30:47.171875,16.00
13:30:47.187500,11.81
13:30:47.203125,7.56
13:30:47.218750,3.19
13:30:47.234375,-1.28
13:30:47.250000,-5.76
13:30:47.265625,-10.14
13:30:47.281250,-14.40
13:30:47.296875,-18.62
13:30:47.312500,-22.94
13:30:47.328125,-27.41
13:30:47.343750,-31.93
13:30:47.359375,-36.16
13:30:47.375000,-39.74
13:30:47.390625,-42.32
13:30:47.406250,-43.74
13:30:47.421875,-44.13
13:30:47.437500,-43.78
13:30:47.453125,-43.11
13:30:47.468750,-42.50
13:30:47.484375,-42.20
13:30:47.500000,-42.12
13:30:47.515625,-41.83
13:30:47.531250,-40.59
13:30:47.546875,-37.55
13:30:47.562500,-32.04
13:30:47.578125,-23.81
13:30:47.593750,-13.01
13:30:47.609375,-0.14
13:30:47.625000,14.10
13:30:47.640625,28.88
13:30:47.656250,43.27
13:30:47.671875,56.28
13:30:47.687500,67.04
13:30:47.703125,74.97
13:30:47.718750,79.97
13:30:47.734375,82.37
13:30:47.750000,82.62
13:30:47.765625,81.04
13:30:47.781250,77.59
13:30:47.796875,72.03
13:30:47.812500,64.32
13:30:47.828125,54.90
13:30:47.843750,44.72
13:30:47.859375,35.02
13:30:47.875000,26.81
13:30:47.890625,20.64
13:30:47.906250,16.51
13:30:47.921875,14.10
13:30:47.937500,13.03
13:30:47.953125,12.98
13:30:47.968750,13.70
13:30:47.984375,14.81
13:30:48,15.74
13:30:48.015625,15.77
13:30:48.031250,14.25
13:30:48.046875,10.79
13:30:48.062500,5.49
13:30:48.078125,-1.07
13:30:48.093750,-8.07
13:30:48.109375,-14.65
13:30:48.125000,-20.31
13:30:48.140625,-24.92
13:30:48.156250,-28.72
13:30:48.171875,-31.99
13:30:48.187500,-34.92
13:30:48.203125,-37.43
13:30:48.218750,-39.17
13:30:48.234375,-39.70
13:30:48.250000,-38.69
13:30:48.265625,-36.04
13:30:48.281250,-31.95
13:30:48.296875,-26.84
13:30:48.312500,-21.24
13:30:48.328125,-15.72
13:30:48.343750,-10.79
13:30:48.359375,-6.80
13:30:48.375000,-3.94
13:30:48.390625,-2.18
13:30:48.406250,-1.28
13:30:48.421875,-0.80
13:30:48.437500,-0.25
13:30:48.453125,0.82
13:30:48.468750,2.64
13:30:48.484375,5.15
13:30:48.500000,8.02
13:30:48.515625,10.74
13:30:48.531250,12.82
13:30:48.546875,13.98
13:30:48.562500,14.22
13:30:48.578125,13.77
13:30:48.593750,12.92
13:30:48.609375,11.88
13:30:48.625000,10.68
13:30:48.640625,9.20
13:30:48.656250,7.39
13:30:48.671875,5.42
13:30:48.687500,3.69
13:30:48.703125,2.76
13:30:48.718750,3.04
13:30:48.734375,4.59
13:30:48.750000,7.04
13:30:48.765625,9.73
13:30:48.781250,11.97
13:30:48.796875,13.35
13:30:48.812500,13.82
13:30:48.828125,13.63
13:30:48.843750,13.12
13:30:48.859375,12.50
13:30:48.875000,11.79
13:30:48.890625,10.86
13:30:48.906250,9.60
13:30:48.921875,8.02
13:30:48.937500,6.29
13:30:48.953125,4.62
13:30:48.968750,3.23
13:30:48.984375,2.22
13:30:49,1.63
13:30:49.015625,1.39
13:30:49.031250,1.39
13:30:49.046875,1.45
13:30:49.062500,1.34
13:30:49.078125,0.86
13:30:49.093750,-0.12
13:30:49.109375,-1.60
13:30:49.125000,-3.41
13:30:49.140625,-5.35
13:30:49.156250,-7.28
13:30:49.171875,-9.14
13:30:49.187500,-11.01
13:30:49.203125,-12.98
13:30:49.218750,-15.07
13:30:49.234375,-17.20
13:30:49.250000,-19.28
13:30:49.265625,-21.20
13:30:49.281250,-22.88
13:30:49.296875,-24.20
13:30:49.312500,-24.94
13:30:49.328125,-24.79
13:30:49.343750,-23.41
13:30:49.359375,-20.64
13:30:49.375000,-16.58
13:30:49.390625,-11.59
13:30:49.406250,-6.14
13:30:49.421875,-0.62
13:30:49.437500,4.72
13:30:49.453125,9.80
13:30:49.468750,14.51
13:30:49.484375,18.67
13:30:49.500000,21.99
13:30:49.515625,24.21
13:30:49.531250,25.27
13:30:49.546875,25.27
13:30:49.562500,24.55
13:30:49.578125,23.47
13:30:49.593750,22.31
13:30:49.609375,21.28
13:30:49.625000,20.50
13:30:49.640625,20.00
13:30:49.656250,19.82
13:30:49.671875,19.90
13:30:49.687500,20.10
13:30:49.703125,20.25
13:30:49.718750,20.14
13:30:49.734375,19.66
13:30:49.750000,18.83
13:30:49.765625,17.74
13:30:49.781250,16.52
13:30:49.796875,15.28
13:30:49.812500,14.06
13:30:49.828125,12.84
13:30:49.843750,11.60
13:30:49.859375,10.32
13:30:49.875000,9.03
13:30:49.890625,7.71
13:30:49.906250,6.34
13:30:49.921875,4.88
13:30:49.937500,3.32
13:30:49.953125,1.67
13:30:49.968750,0.01
13:30:49.984375,-1.59
13:30:50,-3.11
13:30:50.015625,-4.61
13:30:50.031250,-6.14
13:30:50.046875,-7.74
13:30:50.062500,-9.38
13:30:50.078125,-10.95
13:30:50.093750,-12.40
13:30:50.109375,-13.74
13:30:50.125000,-15.13
13:30:50.140625,-16.75
13:30:50.156250,-18.78
13:30:50.171875,-21.20
13:30:50.187500,-23.74
13:30:50.203125,-25.96
13:30:50.218750,-27.31
13:30:50.234375,-27.31
13:30:50.250000,-25.77
13:30:50.265625,-22.77
13:30:50.281250,-18.71
13:30:50.296875,-14.10
13:30:50.312500,-9.43
13:30:50.328125,-5.00
13:30:50.343750,-0.87
13:30:50.359375,3.02
13:30:50.375000,6.71
13:30:50.390625,10.14
13:30:50.406250,13.09
13:30:50.421875,15.33
13:30:50.437500,16.69
13:30:50.453125,17.21
13:30:50.468750,17.11
13:30:50.484375,16.68
13:30:50.500000,16.25
13:30:50.515625,16.03
13:30:50.531250,16.09
13:30:50.546875,16.36
13:30:50.562500,16.69
13:30:50.578125,16.87
13:30:50.593750,16.76
13:30:50.609375,16.32
13:30:50.625000,15.66
13:30:50.640625,14.98
13:30:50.656250,14.50
13:30:50.671875,14.33
13:30:50.687500,14.41
13:30:50.703125,14.55
13:30:50.718750,14.52
13:30:50.734375,14.16
13:30:50.750000,13.41
13:30:50.765625,12.35
13:30:50.781250,11.11
13:30:50.796875,9.80
13:30:50.812500,8.49
13:30:50.828125,7.21
13:30:50.843750,6.01
13:30:50.859375,4.93
13:30:50.875000,3.96
13:30:50.890625,3.08
13:30:50.906250,2.16
13:30:50.921875,1.05
13:30:50.937500,-0.39
13:30:50.953125,-2.22
13:30:50.968750,-4.34
13:30:50.984375,-6.57
13:30:51,-8.70
13:30:51.015625,-10.59
13:30:51.031250,-12.18
13:30:51.046875,-13.51
13:30:51.062500,-14.67
13:30:51.078125,-15.78
13:30:51.093750,-16.98
13:30:51.109375,-18.40
13:30:51.125000,-20.15
13:30:51.140625,-22.22
13:30:51.156250,-24.41
13:30:51.171875,-26.33
13:30:51.187500,-27.48
13:30:51.203125,-27.36
13:30:51.218750,-25.68
13:30:51.234375,-22.45
13:30:51.250000,-18.00
13:30:51.265625,-12.85
13:30:51.281250,-7.60
13:30:51.296875,-2.72
13:30:51.312500,1.50
13:30:51.328125,5.01
13:30:51.343750,7.90
13:30:51.359375,10.34
13:30:51.375000,12.47
13:30:51.390625,14.33
13:30:51.406250,15.86
13:30:51.421875,16.93
13:30:51.437500,17.43
13:30:51.453125,17.37
13:30:51.468750,16.87
13:30:51.484375,16.16
13:30:51.500000,15.46
13:30:51.515625,14.92
13:30:51.531250,14.56
13:30:51.546875,14.27
13:30:51.562500,13.93
13:30:51.578125,13.45
13:30:51.593750,12.80
13:30:51.609375,12.04
13:30:51.625000,11.23
13:30:51.640625,10.36
13:30:51.656250,9.42
13:30:51.671875,8.36
13:30:51.687500,7.18
13:30:51.703125,5.94
13:30:51.718750,4.70
13:30:51.734375,3.54
13:30:51.750000,2.49
13:30:51.765625,1.54
13:30:51.781250,0.64
13:30:51.796875,-0.26
13:30:51.812500,-1.18
13:30:51.828125,-2.13
13:30:51.843750,-3.13
13:30:51.859375,-4.12
13:30:51.875000,-5.06
13:30:51.890625,-5.97
13:30:51.906250,-6.87
13:30:51.921875,-7.82
13:30:51.937500,-8.85
13:30:51.953125,-9.96
13:30:51.968750,-11.09
13:30:51.984375,-12.21
13:30:52,-13.28
13:30:52.015625,-14.33
13:30:52.031250,-15.42
13:30:52.046875,-16.65
13:30:52.062500,-18.06
13:30:52.078125,-19.67
13:30:52.093750,-21.48
13:30:52.109375,-23.39
13:30:52.125000,-25.25
13:30:52.140625,-26.82
13:30:52.156250,-27.78
13:30:52.171875,-27.81
13:30:52.187500,-26.76
13:30:52.203125,-24.63
13:30:52.218750,-21.61
13:30:52.234375,-17.99
13:30:52.250000,-14.06
13:30:52.265625,-10.03
13:30:52.281250,-6.09
13:30:52.296875,-2.41
13:30:52.312500,0.82
13:30:52.328125,3.40
13:30:52.343750,5.23
13:30:52.359375,6.37
13:30:52.375000,7.03
13:30:52.390625,7.50
13:30:52.406250,7.97
13:30:52.421875,8.54
13:30:52.437500,9.11
13:30:52.453125,9.57
13:30:52.468750,9.80
13:30:52.484375,9.83
13:30:52.500000,9.77
13:30:52.515625,9.79
13:30:52.531250,10.00
13:30:52.546875,10.41
13:30:52.562500,10.86
13:30:52.578125,11.15
13:30:52.593750,11.08
13:30:52.609375,10.59
13:30:52.625000,9.80
13:30:52.640625,8.93
13:30:52.656250,8.16
13:30:52.671875,7.56
13:30:52.687500,7.03
13:30:52.703125,6.37
13:30:52.718750,5.45
13:30:52.734375,4.25
13:30:52.750000,2.94
13:30:52.765625,1.68
13:30:52.781250,0.62
13:30:52.796875,-0.27
13:30:52.812500,-1.11
13:30:52.828125,-2.04
13:30:52.843750,-3.14
13:30:52.859375,-4.40
13:30:52.875000,-5.74
13:30:52.890625,-7.08
13:30:52.906250,-8.39
13:30:52.921875,-9.66
13:30:52.937500,-10.89
13:30:52.953125,-12.10
13:30:52.968750,-13.30
13:30:52.984375,-14.48
13:30:53,-15.65
13:30:53.015625,-16.81
13:30:53.031250,-17.97
13:30:53.046875,-19.09
13:30:53.062500,-20.10
13:30:53.078125,-20.87
13:30:53.093750,-21.18
13:30:53.109375,-20.78
13:30:53.125000,-19.45
13:30:53.140625,-17.12
13:30:53.156250,-13.90
13:30:53.171875,-10.08
13:30:53.187500,-6.06
13:30:53.203125,-2.23
13:30:53.218750,1.13
13:30:53.234375,3.86
13:30:53.250000,5.97
13:30:53.265625,7.54
13:30:53.281250,8.69
13:30:53.296875,9.53
13:30:53.312500,10.11
13:30:53.328125,10.43
13:30:53.343750,10.50
13:30:53.359375,10.37
13:30:53.375000,10.13
13:30:53.390625,9.94
13:30:53.406250,9.97
13:30:53.421875,10.26
13:30:53.437500,10.77
13:30:53.453125,11.33
13:30:53.468750,11.73
13:30:53.484375,11.81
13:30:53.500000,11.51
13:30:53.515625,10.88
13:30:53.531250,10.05
13:30:53.546875,9.10
13:30:53.562500,8.08
13:30:53.578125,6.97
13:30:53.593750,5.76
13:30:53.609375,4.49
13:30:53.625000,3.27
13:30:53.640625,2.20
13:30:53.656250,1.33
13:30:53.671875,0.59
13:30:53.687500,-0.20
13:30:53.703125,-1.19
13:30:53.718750,-2.43
13:30:53.734375,-3.81
13:30:53.750000,-5.12
13:30:53.765625,-6.20
13:30:53.781250,-7.04
13:30:53.796875,-7.82
13:30:53.812500,-8.75
13:30:53.828125,-10.02
13:30:53.843750,-11.60
13:30:53.859375,-13.32
13:30:53.875000,-15.03
13:30:53.890625,-16.62
13:30:53.906250,-18.12
13:30:53.921875,-19.59
13:30:53.937500,-21.05
13:30:53.953125,-22.36
13:30:53.968750,-23.23
13:30:53.984375,-23.27
13:30:54,-22.14
13:30:54.015625,-19.68
13:30:54.031250,-15.98
13:30:54.046875,-11.38
13:30:54.062500,-6.43
13:30:54.078125,-1.70
13:30:54.093750,2.35
13:30:54.109375,5.50
13:30:54.125000,7.77
13:30:54.140625,9.38
13:30:54.156250,10.55
13:30:54.171875,11.47
13:30:54.187500,12.20
13:30:54.203125,12.75
13:30:54.218750,13.16
13:30:54.234375,13.49
13:30:54.250000,13.80
13:30:54.265625,14.07
13:30:54.281250,14.24
13:30:54.296875,14.18
13:30:54.312500,13.83
13:30:54.328125,13.25
13:30:54.343750,12.56
13:30:54.359375,11.91
13:30:54.375000,11.37
13:30:54.390625,10.91
13:30:54.406250,10.40
13:30:54.421875,9.70
13:30:54.437500,8.76
13:30:54.453125,7.64
13:30:54.468750,6.44
13:30:54.484375,5.28
13:30:54.500000,4.22
13:30:54.515625,3.23
13:30:54.531250,2.20
13:30:54.546875,1.03
13:30:54.562500,-0.32
13:30:54.578125,-1.86
13:30:54.593750,-3.56
13:30:54.609375,-5.40
13:30:54.625000,-7.38
13:30:54.640625,-9.49
13:30:54.656250,-11.67
13:30:54.671875,-13.75
13:30:54.687500,-15.59
13:30:54.703125,-17.12
13:30:54.718750,-18.41
13:30:54.734375,-19.70
13:30:54.750000,-21.18
13:30:54.765625,-22.93
13:30:54.781250,-24.79
13:30:54.796875,-26.44
13:30:54.812500,-27.50
13:30:54.828125,-27.65
13:30:54.843750,-26.73
13:30:54.859375,-24.70
13:30:54.875000,-21.64
13:30:54.890625,-17.72
13:30:54.906250,-13.23
13:30:54.921875,-8.52
13:30:54.937500,-3.99
13:30:54.953125,0.01
13:30:54.968750,3.32
13:30:54.984375,5.95
13:30:55,8.07
13:30:55.015625,9.87
13:30:55.031250,11.50
13:30:55.046875,13.02
13:30:55.062500,14.42
13:30:55.078125,15.61
13:30:55.093750,16.51
13:30:55.109375,17.08
13:30:55.125000,17.35
13:30:55.140625,17.40
13:30:55.156250,17.30
13:30:55.171875,17.06
13:30:55.187500,16.63
13:30:55.203125,15.93
13:30:55.218750,14.92
13:30:55.234375,13.71
13:30:55.250000,12.51
13:30:55.265625,11.52
13:30:55.281250,10.80
13:30:55.296875,10.22
13:30:55.312500,9.52
13:30:55.328125,8.44
13:30:55.343750,6.95
13:30:55.359375,5.23
13:30:55.375000,3.60
13:30:55.390625,2.36
13:30:55.406250,1.64
13:30:55.421875,1.30
13:30:55.437500,1.05
13:30:55.453125,0.48
13:30:55.468750,-0.69
13:30:55.484375,-2.52
13:30:55.500000,-4.88
13:30:55.515625,-7.44
13:30:55.531250,-9.88
13:30:55.546875,-11.97
13:30:55.562500,-13.68
13:30:55.578125,-15.16
13:30:55.593750,-16.68
13:30:55.609375,-18.47
13:30:55.625000,-20.67
13:30:55.640625,-23.29
13:30:55.656250,-26.14
13:30:55.671875,-28.86
13:30:55.687500,-30.92
13:30:55.703125,-31.73
13:30:55.718750,-30.84
13:30:55.734375,-28.09
13:30:55.750000,-23.70
13:30:55.765625,-18.19
13:30:55.781250,-12.22
13:30:55.796875,-6.32
13:30:55.812500,-0.85
13:30:55.828125,4.02
13:30:55.843750,8.23
13:30:55.859375,11.75
13:30:55.875000,14.52
13:30:55.890625,16.57
13:30:55.906250,17.98
13:30:55.921875,18.88
13:30:55.937500,19.47
13:30:55.953125,19.88
13:30:55.968750,20.23
13:30:55.984375,20.58
13:30:56,20.94
13:30:56.015625,21.26
13:30:56.031250,21.44
13:30:56.046875,21.38
13:30:56.062500,21.05
13:30:56.078125,20.52
13:30:56.093750,19.96
13:30:56.109375,19.49
13:30:56.125000,19.11
13:30:56.140625,18.68
13:30:56.156250,17.98
13:30:56.171875,16.86
13:30:56.187500,15.31
13:30:56.203125,13.49
13:30:56.218750,11.63
13:30:56.234375,9.92
13:30:56.250000,8.41
13:30:56.265625,7.04
13:30:56.281250,5.68
13:30:56.296875,4.24
13:30:56.312500,2.71
13:30:56.328125,1.14
13:30:56.343750,-0.45
13:30:56.359375,-2.03
13:30:56.375000,-3.66
13:30:56.390625,-5.41
13:30:56.406250,-7.31
13:30:56.421875,-9.31
13:30:56.437500,-11.30
13:30:56.453125,-13.19
13:30:56.468750,-14.96
13:30:56.484375,-16.74
13:30:56.500000,-18.76
13:30:56.515625,-21.20
13:30:56.531250,-24.07
13:30:56.546875,-27.04
13:30:56.562500,-29.55
13:30:56.578125,-30.91
13:30:56.593750,-30.60
13:30:56.609375,-28.37
13:30:56.625000,-24.32
13:30:56.640625,-18.87
13:30:56.656250,-12.59
13:30:56.671875,-6.05
13:30:56.687500,0.23
13:30:56.703125,5.87
13:30:56.718750,10.64
13:30:56.734375,14.41
13:30:56.750000,17.12
13:30:56.765625,18.85
13:30:56.781250,19.73
13:30:56.796875,20.00
13:30:56.812500,19.95
13:30:56.828125,19.83
13:30:56.843750,19.81
13:30:56.859375,19.92
13:30:56.875000,20.05
13:30:56.890625,20.11
13:30:56.906250,20.07
13:30:56.921875,19.99
13:30:56.937500,19.91
13:30:56.953125,19.85
13:30:56.968750,19.71
13:30:56.984375,19.33
13:30:57,18.64
13:30:57.015625,17.67
13:30:57.031250,16.55
13:30:57.046875,15.41
13:30:57.062500,14.29
13:30:57.078125,13.12
13:30:57.093750,11.80
13:30:57.109375,10.29
13:30:57.125000,8.64
13:30:57.140625,6.94
13:30:57.156250,5.27
13:30:57.171875,3.68
13:30:57.187500,2.12
13:30:57.203125,0.54
13:30:57.218750,-1.11
13:30:57.234375,-2.84
13:30:57.250000,-4.62
13:30:57.265625,-6.42
13:30:57.281250,-8.18
13:30:57.296875,-9.85
13:30:57.312500,-11.43
13:30:57.328125,-12.95
13:30:57.343750,-14.51
13:30:57.359375,-16.18
13:30:57.375000,-18.05
13:30:57.390625,-20.16
13:30:57.406250,-22.54
13:30:57.421875,-25.12
13:30:57.437500,-27.72
13:30:57.453125,-29.98
13:30:57.468750,-31.41
13:30:57.484375,-31.46
13:30:57.500000,-29.77
13:30:57.515625,-26.31
13:30:57.531250,-21.41
13:30:57.546875,-15.65
13:30:57.562500,-9.57
13:30:57.578125,-3.62
13:30:57.593750,1.98
13:30:57.609375,7.10
13:30:57.625000,11.60
13:30:57.640625,15.32
13:30:57.656250,18.11
13:30:57.671875,19.92
13:30:57.687500,20.85
13:30:57.703125,21.11
13:30:57.718750,20.90
13:30:57.734375,20.39
13:30:57.750000,19.69
13:30:57.765625,18.88
13:30:57.781250,18.11
13:30:57.796875,17.52
13:30:57.812500,17.26
13:30:57.828125,17.33
13:30:57.843750,17.57
13:30:57.859375,17.74
13:30:57.875000,17.60
13:30:57.890625,17.08
13:30:57.906250,16.25
13:30:57.921875,15.29
13:30:57.937500,14.34
13:30:57.953125,13.38
13:30:57.968750,12.28
13:30:57.984375,10.89
13:30:58,9.17
13:30:58.015625,7.27
13:30:58.031250,5.44
13:30:58.046875,3.91
13:30:58.062500,2.74
13:30:58.078125,1.81
13:30:58.093750,0.88
13:30:58.109375,-0.31
13:30:58.125000,-1.85
13:30:58.140625,-3.69
13:30:58.156250,-5.64
13:30:58.171875,-7.49
13:30:58.187500,-9.10
13:30:58.203125,-10.43
13:30:58.218750,-11.56
13:30:58.234375,-12.67
13:30:58.250000,-13.96
13:30:58.265625,-15.55
13:30:58.281250,-17.54
13:30:58.296875,-19.86
13:30:58.312500,-22.38
13:30:58.328125,-24.92
13:30:58.343750,-27.22
13:30:58.359375,-28.94
13:30:58.375000,-29.72
13:30:58.390625,-29.14
13:30:58.406250,-26.96
13:30:58.421875,-23.13
13:30:58.437500,-17.92
13:30:58.453125,-11.88
13:30:58.468750,-5.66
13:30:58.484375,0.13
13:30:58.500000,5.07
13:30:58.515625,8.99
13:30:58.531250,11.91
13:30:58.546875,13.92
13:30:58.562500,15.19
13:30:58.578125,15.83
13:30:58.593750,16.02
13:30:58.609375,15.94
13:30:58.625000,15.78
13:30:58.640625,15.66
13:30:58.656250,15.63
13:30:58.671875,15.64
13:30:58.687500,15.60
13:30:58.703125,15.47
13:30:58.718750,15.26
13:30:58.734375,15.01
13:30:58.750000,14.81
13:30:58.765625,14.67
13:30:58.781250,14.53
13:30:58.796875,14.28
13:30:58.812500,13.79
13:30:58.828125,12.94
13:30:58.843750,11.71
13:30:58.859375,10.19
13:30:58.875000,8.55
13:30:58.890625,6.97
13:30:58.906250,5.60
13:30:58.921875,4.51
13:30:58.937500,3.72
13:30:58.953125,3.14
13:30:58.968750,2.71
13:30:58.984375,2.34
13:30:59,1.98
13:30:59.015625,1.60
13:30:59.031250,1.16
13:30:59.046875,0.66
13:30:59.062500,0.10
13:30:59.078125,-0.49
13:30:59.093750,-1.05
13:30:59.109375,-1.60
13:30:59.125000,-2.17
13:30:59.140625,-2.87
13:30:59.156250,-3.86
13:30:59.171875,-5.23
13:30:59.187500,-7.05
13:30:59.203125,-9.32
13:30:59.218750,-11.96
13:30:59.234375,-14.78
13:30:59.250000,-17.52
13:30:59.265625,-19.78
13:30:59.281250,-21.12
13:30:59.296875,-21.13
13:30:59.312500,-19.62
13:30:59.328125,-16.71
13:30:59.343750,-12.88
13:30:59.359375,-8.89
13:30:59.375000,-5.50
13:30:59.390625,-3.35
13:30:59.406250,-2.74
13:30:59.421875,-3.61
13:30:59.437500,-5.62
13:30:59.453125,-8.34
13:30:59.468750,-11.32
13:30:59.484375,-14.24
13:30:59.500000,-16.85
13:30:59.515625,-18.89
13:30:59.531250,-20.10
13:30:59.546875,-20.16
13:30:59.562500,-18.84
13:30:59.578125,-16.15
13:30:59.593750,-12.33
13:30:59.609375,-7.84
13:30:59.625000,-3.23
13:30:59.640625,1.05
13:30:59.656250,4.72
13:30:59.671875,7.68
13:30:59.687500,9.92
13:30:59.703125,11.49
13:30:59.718750,12.43
13:30:59.734375,12.78
13:30:59.750000,12.60
13:30:59.765625,11.94
13:30:59.781250,10.83
13:30:59.796875,9.23
13:30:59.812500,7.15
13:30:59.828125,4.68
13:30:59.843750,2.03
13:30:59.859375,-0.52
13:30:59.875000,-2.71
13:30:59.890625,-4.39
13:30:59.906250,-5.60
13:30:59.921875,-6.48
13:30:59.937500,-7.19
13:30:59.953125,-7.87
13:30:59.968750,-8.56
13:30:59.984375,-9.32
13:31:00,-10.25
13:31:00.015625,-11.52
13:31:00.031250,-13.31
13:31:00.046875,-15.71
13:31:00.062500,-18.61
13:31:00.078125,-21.60
13:31:00.093750,-24.13
13:31:00.109375,-25.61
13:31:00.125000,-25.65
13:31:00.140625,-24.20
13:31:00.156250,-21.49
13:31:00.171875,-18.02
13:31:00.187500,-14.31
13:31:00.203125,-10.79
13:31:00.218750,-7.74
13:31:00.234375,-5.26
13:31:00.250000,-3.35
13:31:00.265625,-1.93
13:31:00.281250,-0.87
13:31:00.296875,-0.02
13:31:00.312500,0.79
13:31:00.328125,1.71
13:31:00.343750,2.84
13:31:00.359375,4.22
13:31:00.375000,5.90
13:31:00.390625,7.84
13:31:00.406250,9.98
13:31:00.421875,12.11
13:31:00.437500,13.96
13:31:00.453125,15.22
13:31:00.468750,15.67
13:31:00.484375,15.20
13:31:00.500000,13.90
13:31:00.515625,11.90
13:31:00.531250,9.31
13:31:00.546875,6.19
13:31:00.562500,2.55
13:31:00.578125,-1.55
13:31:00.593750,-5.97
13:31:00.609375,-10.50
13:31:00.625000,-14.98
13:31:00.640625,-19.40
13:31:00.656250,-23.84
13:31:00.671875,-28.39
13:31:00.687500,-33.00
13:31:00.703125,-37.37
13:31:00.718750,-40.99
13:31:00.734375,-43.28
13:31:00.750000,-43.83
13:31:00.765625,-42.53
13:31:00.781250,-39.54
13:31:00.796875,-35.23
13:31:00.812500,-30.04
13:31:00.828125,-24.34
13:31:00.843750,-18.45
13:31:00.859375,-12.62
13:31:00.875000,-7.08
13:31:00.890625,-2.09
13:31:00.906250,2.20
13:31:00.921875,5.73
13:31:00.937500,8.60
13:31:00.953125,11.05
13:31:00.968750,13.35
13:31:00.984375,15.76
13:31:01,18.37
13:31:01.015625,21.16
13:31:01.031250,23.98
13:31:01.046875,26.63
13:31:01.062500,29.00
13:31:01.078125,31.01
13:31:01.093750,32.61
13:31:01.109375,33.72
13:31:01.125000,34.22
13:31:01.140625,34.00
13:31:01.156250,33.03
13:31:01.171875,31.47
13:31:01.187500,29.62
13:31:01.203125,27.85
13:31:01.218750,26.51
13:31:01.234375,25.77
13:31:01.250000,25.58
13:31:01.265625,25.72
13:31:01.281250,25.88
13:31:01.296875,25.80
13:31:01.312500,25.34
13:31:01.328125,24.53
13:31:01.343750,23.49
13:31:01.359375,22.37
13:31:01.375000,21.30
13:31:01.390625,20.28
13:31:01.406250,19.27
13:31:01.421875,18.18
13:31:01.437500,16.98
13:31:01.453125,15.70
13:31:01.468750,14.41
13:31:01.484375,13.19
13:31:01.500000,12.08
13:31:01.515625,11.06
13:31:01.531250,10.13
13:31:01.546875,9.36
13:31:01.562500,8.90
13:31:01.578125,8.91
13:31:01.593750,9.55
13:31:01.609375,10.82
13:31:01.625000,12.54
13:31:01.640625,14.38
13:31:01.656250,15.90
13:31:01.671875,16.77
13:31:01.687500,16.79
13:31:01.703125,16.01
13:31:01.718750,14.69
13:31:01.734375,13.15
13:31:01.750000,11.74
13:31:01.765625,10.69
13:31:01.781250,10.08
13:31:01.796875,9.83
13:31:01.812500,9.81
13:31:01.828125,9.81
13:31:01.843750,9.71
13:31:01.859375,9.44
13:31:01.875000,8.96
13:31:01.890625,8.32
13:31:01.906250,7.56
13:31:01.921875,6.77
13:31:01.937500,6.02
13:31:01.953125,5.40
13:31:01.968750,4.95
13:31:01.984375,4.65
13:31:02,4.45
13:31:02.015625,4.26
13:31:02.031250,4.05
13:31:02.046875,3.78
13:31:02.062500,3.49
13:31:02.078125,3.10
13:31:02.093750,2.54
13:31:02.109375,1.64
13:31:02.125000,0.26
13:31:02.140625,-1.54
13:31:02.156250,-3.49
13:31:02.171875,-5.15
13:31:02.187500,-6.06
13:31:02.203125,-5.94
13:31:02.218750,-4.84
13:31:02.234375,-3.16
13:31:02.250000,-1.44
13:31:02.265625,-0.25
13:31:02.281250,0.06
13:31:02.296875,-0.54
13:31:02.312500,-1.90
13:31:02.328125,-3.77
13:31:02.343750,-5.97
13:31:02.359375,-8.46
13:31:02.375000,-11.33
13:31:02.390625,-14.68
13:31:02.406250,-18.49
13:31:02.421875,-22.49
13:31:02.437500,-26.19
13:31:02.453125,-29.04
13:31:02.468750,-30.51
13:31:02.484375,-30.29
13:31:02.500000,-28.36
13:31:02.515625,-24.92
13:31:02.531250,-20.30
13:31:02.546875,-14.95
13:31:02.562500,-9.29
13:31:02.578125,-3.73
13:31:02.593750,1.39
13:31:02.609375,5.92
13:31:02.625000,9.86
13:31:02.640625,13.46
13:31:02.656250,17.06
13:31:02.671875,20.94
13:31:02.687500,25.15
13:31:02.703125,29.43
13:31:02.718750,33.28
13:31:02.734375,36.26
13:31:02.750000,38.11
13:31:02.765625,38.99
13:31:02.781250,39.39
13:31:02.796875,39.89
13:31:02.812500,40.87
13:31:02.828125,42.24
13:31:02.843750,43.47
13:31:02.859375,43.77
13:31:02.875000,42.44
13:31:02.890625,39.24
13:31:02.906250,34.48
13:31:02.921875,28.91
13:31:02.937500,23.39
13:31:02.953125,18.46
13:31:02.968750,14.11
13:31:02.984375,9.84
13:31:03,4.94
13:31:03.015625,-1.08
13:31:03.031250,-8.28
13:31:03.046875,-16.19
13:31:03.062500,-24.09
13:31:03.078125,-31.23
13:31:03.093750,-37.08
13:31:03.109375,-41.37
13:31:03.125000,-44.06
13:31:03.140625,-45.15
13:31:03.156250,-44.70
13:31:03.171875,-42.86
13:31:03.187500,-39.90
13:31:03.203125,-36.34
13:31:03.218750,-32.91
13:31:03.234375,-30.53
13:31:03.250000,-30.04
13:31:03.265625,-32.06
13:31:03.281250,-36.76
13:31:03.296875,-43.74
13:31:03.312500,-52.07
13:31:03.328125,-60.43
13:31:03.343750,-67.42
13:31:03.359375,-71.95
13:31:03.375000,-73.47
13:31:03.390625,-71.98
13:31:03.406250,-67.90
13:31:03.421875,-61.82
13:31:03.437500,-54.30
13:31:03.453125,-45.75
13:31:03.468750,-36.55
13:31:03.484375,-27.19
13:31:03.500000,-18.20
13:31:03.515625,-10.20
13:31:03.531250,-3.65
13:31:03.546875,1.24
13:31:03.562500,4.65
13:31:03.578125,7.01
13:31:03.593750,8.84
13:31:03.609375,10.54
13:31:03.625000,12.28
13:31:03.640625,14.01
13:31:03.656250,15.52
13:31:03.671875,16.61
13:31:03.687500,17.16
13:31:03.703125,17.14
13:31:03.718750,16.56
13:31:03.734375,15.50
13:31:03.750000,13.98
13:31:03.765625,12.07
13:31:03.781250,9.87
13:31:03.796875,7.55
13:31:03.812500,5.33
13:31:03.828125,3.34
13:31:03.843750,1.63
13:31:03.859375,0.13
13:31:03.875000,-1.26
13:31:03.890625,-2.61
13:31:03.906250,-3.95
13:31:03.921875,-5.23
13:31:03.937500,-6.47
13:31:03.953125,-7.68
13:31:03.968750,-8.93
13:31:03.984375,-10.27
13:31:04,-11.71
13:31:04.015625,-13.19
13:31:04.031250,-14.64
13:31:04.046875,-15.98
13:31:04.062500,-17.21
13:31:04.078125,-18.37
13:31:04.093750,-19.54
13:31:04.109375,-20.83
13:31:04.125000,-22.33
13:31:04.140625,-24.12
13:31:04.156250,-26.21
13:31:04.171875,-28.53
13:31:04.187500,-30.89
13:31:04.203125,-33.03
13:31:04.218750,-34.59
13:31:04.234375,-35.23
13:31:04.250000,-34.63
13:31:04.265625,-32.63
13:31:04.281250,-29.22
13:31:04.296875,-24.58
13:31:04.312500,-19.03
13:31:04.328125,-13.02
13:31:04.343750,-6.99
13:31:04.359375,-1.34
13:31:04.375000,3.65
13:31:04.390625,7.83
13:31:04.406250,11.14
13:31:04.421875,13.63
13:31:04.437500,15.43
13:31:04.453125,16.67
13:31:04.468750,17.50
13:31:04.484375,18.05
13:31:04.500000,18.36
13:31:04.515625,18.52
13:31:04.531250,18.58
13:31:04.546875,18.58
13:31:04.562500,18.56
13:31:04.578125,18.53
13:31:04.593750,18.44
13:31:04.609375,18.24
13:31:04.625000,17.89
13:31:04.640625,17.34
13:31:04.656250,16.55
13:31:04.671875,15.53
13:31:04.687500,14.28
13:31:04.703125,12.80
13:31:04.718750,11.14
13:31:04.734375,9.39
13:31:04.750000,7.63
13:31:04.765625,5.87
13:31:04.781250,4.05
13:31:04.796875,2.07
13:31:04.812500,-0.11
13:31:04.828125,-2.43
13:31:04.843750,-4.74
13:31:04.859375,-6.90
13:31:04.875000,-8.85
13:31:04.890625,-10.68
13:31:04.906250,-12.59
13:31:04.921875,-14.72
13:31:04.937500,-17.14
13:31:04.953125,-19.83
13:31:04.968750,-22.73
13:31:04.984375,-25.81
13:31:05,-29.03
13:31:05.015625,-32.26
13:31:05.031250,-35.18
13:31:05.046875,-37.26
13:31:05.062500,-37.88
13:31:05.078125,-36.57
13:31:05.093750,-33.20
13:31:05.109375,-28.05
13:31:05.125000,-21.70
13:31:05.140625,-14.83
13:31:05.156250,-7.99
13:31:05.171875,-1.52
13:31:05.187500,4.41
13:31:05.203125,9.70
13:31:05.218750,14.19
13:31:05.234375,17.69
13:31:05.250000,20.08
13:31:05.265625,21.48
13:31:05.281250,22.26
13:31:05.296875,22.92
13:31:05.312500,23.87
13:31:05.328125,25.21
13:31:05.343750,26.72
13:31:05.359375,27.98
13:31:05.375000,28.64
13:31:05.390625,28.57
13:31:05.406250,27.90
13:31:05.421875,26.89
13:31:05.437500,25.73
13:31:05.453125,24.43
13:31:05.468750,22.89
13:31:05.484375,20.96
13:31:05.500000,18.58
13:31:05.515625,15.82
13:31:05.531250,12.87
13:31:05.546875,9.93
13:31:05.562500,7.14
13:31:05.578125,4.49
13:31:05.593750,1.89
13:31:05.609375,-0.83
13:31:05.625000,-3.81
13:31:05.640625,-7.10
13:31:05.656250,-10.64
13:31:05.671875,-14.24
13:31:05.687500,-17.70
13:31:05.703125,-20.87
13:31:05.718750,-23.71
13:31:05.734375,-26.33
13:31:05.750000,-28.95
13:31:05.765625,-31.80
13:31:05.781250,-35.06
13:31:05.796875,-38.74
13:31:05.812500,-42.63
13:31:05.828125,-46.30
13:31:05.843750,-49.10
13:31:05.859375,-50.33
13:31:05.875000,-49.42
13:31:05.890625,-46.06
13:31:05.906250,-40.38
13:31:05.921875,-32.83
13:31:05.937500,-24.08
13:31:05.953125,-14.83
13:31:05.968750,-5.59
13:31:05.984375,3.31
13:31:06,11.71
13:31:06.015625,19.48
13:31:06.031250,26.46
13:31:06.046875,32.42
13:31:06.062500,37.18
13:31:06.078125,40.67
13:31:06.093750,43.01
13:31:06.109375,44.42
13:31:06.125000,45.22
13:31:06.140625,45.62
13:31:06.156250,45.72
13:31:06.171875,45.54
13:31:06.187500,45.01
13:31:06.203125,44.11
13:31:06.218750,42.91
13:31:06.234375,41.48
13:31:06.250000,39.91
13:31:06.265625,38.21
13:31:06.281250,36.33
13:31:06.296875,34.17
13:31:06.312500,31.60
13:31:06.328125,28.58
13:31:06.343750,25.16
13:31:06.359375,21.51
13:31:06.375000,17.87
13:31:06.390625,14.52
13:31:06.406250,11.61
13:31:06.421875,9.14
13:31:06.437500,6.98
13:31:06.453125,4.89
13:31:06.468750,2.63
13:31:06.484375,0.03
13:31:06.500000,-2.98
13:31:06.515625,-6.33
13:31:06.531250,-9.86
13:31:06.546875,-13.38
13:31:06.562500,-16.73
13:31:06.578125,-19.83
13:31:06.593750,-22.71
13:31:06.609375,-25.53
13:31:06.625000,-28.53
13:31:06.640625,-31.86
13:31:06.656250,-35.50
13:31:06.671875,-39.12
13:31:06.687500,-42.13
13:31:06.703125,-43.81
13:31:06.718750,-43.53
13:31:06.734375,-40.93
13:31:06.750000,-36.03
13:31:06.765625,-29.22
13:31:06.781250,-21.09
13:31:06.796875,-12.30
13:31:06.812500,-3.43
13:31:06.828125,5.13
13:31:06.843750,13.18
13:31:06.859375,20.60
13:31:06.875000,27.29
13:31:06.890625,33.09
13:31:06.906250,37.76
13:31:06.921875,41.09
13:31:06.937500,43.01
13:31:06.953125,43.67
13:31:06.968750,43.38
13:31:06.984375,42.53
13:31:07,41.47
13:31:07.015625,40.38
13:31:07.031250,39.30
13:31:07.046875,38.14
13:31:07.062500,36.85
13:31:07.078125,35.41
13:31:07.093750,33.86
13:31:07.109375,32.28
13:31:07.125000,30.72
13:31:07.140625,29.18
13:31:07.156250,27.55
13:31:07.171875,25.70
13:31:07.187500,23.49
13:31:07.203125,20.90
13:31:07.218750,18.09
13:31:07.234375,15.33
13:31:07.250000,12.96
13:31:07.265625,11.16
13:31:07.281250,9.86
13:31:07.296875,8.74
13:31:07.312500,7.46
13:31:07.328125,5.75
13:31:07.343750,3.64
13:31:07.359375,1.36
13:31:07.375000,-0.75
13:31:07.390625,-2.50
13:31:07.406250,-3.92
13:31:07.421875,-5.25
13:31:07.437500,-6.82
13:31:07.453125,-8.82
13:31:07.468750,-11.30
13:31:07.484375,-14.06
13:31:07.500000,-16.86
13:31:07.515625,-19.48
13:31:07.531250,-21.84
13:31:07.546875,-23.99
13:31:07.562500,-26.09
13:31:07.578125,-28.38
13:31:07.593750,-31.01
13:31:07.609375,-34.06
13:31:07.625000,-37.41
13:31:07.640625,-40.73
13:31:07.656250,-43.49
13:31:07.671875,-45.02
13:31:07.687500,-44.72
13:31:07.703125,-42.21
13:31:07.718750,-37.44
13:31:07.734375,-30.74
13:31:07.750000,-22.67
13:31:07.765625,-13.89
13:31:07.781250,-4.96
13:31:07.796875,3.67
13:31:07.812500,11.69
13:31:07.828125,18.85
13:31:07.843750,24.97
13:31:07.859375,29.91
13:31:07.875000,33.65
13:31:07.890625,36.24
13:31:07.906250,37.80
13:31:07.921875,38.49
13:31:07.937500,38.47
13:31:07.953125,37.90
13:31:07.968750,36.97
13:31:07.984375,35.89
13:31:08,34.88
13:31:08.015625,34.08
13:31:08.031250,33.52
13:31:08.046875,33.13
13:31:08.062500,32.76
13:31:08.078125,32.24
13:31:08.093750,31.47
13:31:08.109375,30.43
13:31:08.125000,29.18
13:31:08.140625,27.79
13:31:08.156250,26.33
13:31:08.171875,24.79
13:31:08.187500,23.14
13:31:08.203125,21.41
13:31:08.218750,19.60
13:31:08.234375,17.82
13:31:08.250000,16.12
13:31:08.265625,14.52
13:31:08.281250,12.98
13:31:08.296875,11.45
13:31:08.312500,9.91
13:31:08.328125,8.40
13:31:08.343750,6.99
13:31:08.359375,5.75
13:31:08.375000,4.64
13:31:08.390625,3.54
13:31:08.406250,2.26
13:31:08.421875,0.67
13:31:08.437500,-1.22
13:31:08.453125,-3.33
13:31:08.468750,-5.45
13:31:08.484375,-7.45
13:31:08.500000,-9.24
13:31:08.515625,-10.90
13:31:08.531250,-12.55
13:31:08.546875,-14.31
13:31:08.562500,-16.22
13:31:08.578125,-18.21
13:31:08.593750,-20.17
13:31:08.609375,-22.02
13:31:08.625000,-23.74
13:31:08.640625,-25.44
13:31:08.656250,-27.28
13:31:08.671875,-29.41
13:31:08.687500,-31.95
13:31:08.703125,-34.90
13:31:08.718750,-38.15
13:31:08.734375,-41.41
13:31:08.750000,-44.22
13:31:08.765625,-45.94
13:31:08.781250,-45.99
13:31:08.796875,-44.00
13:31:08.812500,-39.98
13:31:08.828125,-34.37
13:31:08.843750,-27.81
13:31:08.859375,-20.96
13:31:08.875000,-14.27
13:31:08.890625,-7.95
13:31:08.906250,-2.03
13:31:08.921875,3.46
13:31:08.937500,8.44
13:31:08.953125,12.80
13:31:08.968750,16.45
13:31:08.984375,19.37
13:31:09,21.66
13:31:09.015625,23.44
13:31:09.031250,24.84
13:31:09.046875,25.99
13:31:09.062500,26.98
13:31:09.078125,27.88
13:31:09.093750,28.68
13:31:09.109375,29.31
13:31:09.125000,29.64
13:31:09.140625,29.64
13:31:09.156250,29.32
13:31:09.171875,28.86
13:31:09.187500,28.46
13:31:09.203125,28.23
13:31:09.218750,28.17
13:31:09.234375,28.14
13:31:09.250000,27.96
13:31:09.265625,27.51
13:31:09.281250,26.83
13:31:09.296875,26.02
13:31:09.312500,25.26
13:31:09.328125,24.65
13:31:09.343750,24.15
13:31:09.359375,23.66
13:31:09.375000,23.01
13:31:09.390625,22.04
13:31:09.406250,20.70
13:31:09.421875,19.05
13:31:09.437500,17.22
13:31:09.453125,15.31
13:31:09.468750,13.35
13:31:09.484375,11.28
13:31:09.500000,9.00
13:31:09.515625,6.44
13:31:09.531250,3.64
13:31:09.546875,0.78
13:31:09.562500,-1.95
13:31:09.578125,-4.40
13:31:09.593750,-6.53
13:31:09.609375,-8.40
13:31:09.625000,-10.12
13:31:09.640625,-11.83
13:31:09.656250,-13.63
13:31:09.671875,-15.55
13:31:09.687500,-17.61
13:31:09.703125,-19.77
13:31:09.718750,-21.98
13:31:09.734375,-24.17
13:31:09.750000,-26.29
13:31:09.765625,-28.34
13:31:09.781250,-30.29
13:31:09.796875,-32.10
13:31:09.812500,-33.67
13:31:09.828125,-34.91
13:31:09.843750,-35.74
13:31:09.859375,-36.20
13:31:09.875000,-36.50
13:31:09.890625,-36.92
13:31:09.906250,-37.77
13:31:09.921875,-39.23
13:31:09.937500,-41.24
13:31:09.953125,-43.51
13:31:09.968750,-45.49
13:31:09.984375,-46.54
13:31:10,-46.06
13:31:10.015625,-43.69
13:31:10.031250,-39.42
13:31:10.046875,-33.61
13:31:10.062500,-26.87
13:31:10.078125,-19.89
13:31:10.093750,-13.24
13:31:10.109375,-7.19
13:31:10.125000,-1.76
13:31:10.140625,3.19
13:31:10.156250,7.78
13:31:10.171875,12.03
13:31:10.187500,15.85
13:31:10.203125,19.13
13:31:10.218750,21.77
13:31:10.234375,23.69
13:31:10.250000,24.85
13:31:10.265625,25.25
13:31:10.281250,24.93
13:31:10.296875,24.02
13:31:10.312500,22.74
13:31:10.328125,21.38
13:31:10.343750,20.21
13:31:10.359375,19.37
13:31:10.375000,18.92
13:31:10.390625,18.79
13:31:10.406250,18.84
13:31:10.421875,18.91
13:31:10.437500,18.84
13:31:10.453125,18.46
13:31:10.468750,17.68
13:31:10.484375,16.44
13:31:10.500000,14.84
13:31:10.515625,13.04
13:31:10.531250,11.26
13:31:10.546875,9.67
13:31:10.562500,8.33
13:31:10.578125,7.21
13:31:10.593750,6.25
13:31:10.609375,5.36
13:31:10.625000,4.50
13:31:10.640625,3.69
13:31:10.656250,2.94
13:31:10.671875,2.30
13:31:10.687500,1.77
13:31:10.703125,1.31
13:31:10.718750,0.87
13:31:10.734375,0.36
13:31:10.750000,-0.22
13:31:10.765625,-0.80
13:31:10.781250,-1.29
13:31:10.796875,-1.62
13:31:10.812500,-1.80
13:31:10.828125,-2.01
13:31:10.843750,-2.41
13:31:10.859375,-3.17
13:31:10.875000,-4.27
13:31:10.890625,-5.58
13:31:10.906250,-6.85
13:31:10.921875,-7.90
13:31:10.937500,-8.68
13:31:10.953125,-9.30
13:31:10.968750,-9.96
13:31:10.984375,-10.86
13:31:11,-12.10
13:31:11.015625,-13.68
13:31:11.031250,-15.53
13:31:11.046875,-17.51
13:31:11.062500,-19.50
13:31:11.078125,-21.38
13:31:11.093750,-23.07
13:31:11.109375,-24.57
13:31:11.125000,-25.96
13:31:11.140625,-27.36
13:31:11.156250,-28.90
13:31:11.171875,-30.63
13:31:11.187500,-32.44
13:31:11.203125,-34.08
13:31:11.218750,-35.17
13:31:11.234375,-35.30
13:31:11.250000,-34.21
13:31:11.265625,-31.78
13:31:11.281250,-28.14
13:31:11.296875,-23.57
13:31:11.312500,-18.44
13:31:11.328125,-13.14
13:31:11.343750,-8.03
13:31:11.359375,-3.40
13:31:11.375000,0.54
13:31:11.390625,3.72
13:31:11.406250,6.16
13:31:11.421875,7.99
13:31:11.437500,9.37
13:31:11.453125,10.49
13:31:11.468750,11.51
13:31:11.484375,12.53
13:31:11.500000,13.60
13:31:11.515625,14.67
13:31:11.531250,15.63
13:31:11.546875,16.36
13:31:11.562500,16.73
13:31:11.578125,16.75
13:31:11.593750,16.49
13:31:11.609375,16.11
13:31:11.625000,15.78
13:31:11.640625,15.59
13:31:11.656250,15.56
13:31:11.671875,15.57
13:31:11.687500,15.48
13:31:11.703125,15.15
13:31:11.718750,14.48
13:31:11.734375,13.46
13:31:11.750000,12.20
13:31:11.765625,10.85
13:31:11.781250,9.57
13:31:11.796875,8.49
13:31:11.812500,7.62
13:31:11.828125,6.91
13:31:11.843750,6.28
13:31:11.859375,5.67
13:31:11.875000,5.08
13:31:11.890625,4.54
13:31:11.906250,4.05
13:31:11.921875,3.54
13:31:11.937500,2.90
13:31:11.953125,2.07
13:31:11.968750,1.04
13:31:11.984375,-0.11
13:31:12,-1.23
13:31:12.015625,-2.21
13:31:12.031250,-2.98
13:31:12.046875,-3.55
13:31:12.062500,-3.95
13:31:12.078125,-4.30
13:31:12.093750,-4.74
13:31:12.109375,-5.38
13:31:12.125000,-6.30
13:31:12.140625,-7.49
13:31:12.156250,-8.83
13:31:12.171875,-10.17
13:31:12.187500,-11.35
13:31:12.203125,-12.28
13:31:12.218750,-12.99
13:31:12.234375,-13.58
13:31:12.250000,-14.22
13:31:12.265625,-15.03
13:31:12.281250,-16.14
13:31:12.296875,-17.65
13:31:12.312500,-19.60
13:31:12.328125,-21.94
13:31:12.343750,-24.49
13:31:12.359375,-26.87
13:31:12.375000,-28.57
13:31:12.390625,-29.10
13:31:12.406250,-28.11
13:31:12.421875,-25.54
13:31:12.437500,-21.61
13:31:12.453125,-16.78
13:31:12.468750,-11.65
13:31:12.484375,-6.74
13:31:12.500000,-2.40
13:31:12.515625,1.27
13:31:12.531250,4.33
13:31:12.546875,6.94
13:31:12.562500,9.19
13:31:12.578125,11.06
13:31:12.593750,12.45
13:31:12.609375,13.30
13:31:12.625000,13.62
13:31:12.640625,13.57
13:31:12.656250,13.38
13:31:12.671875,13.27
13:31:12.687500,13.34
13:31:12.703125,13.56
13:31:12.718750,13.79
13:31:12.734375,13.89
13:31:12.750000,13.79
13:31:12.765625,13.46
13:31:12.781250,12.94
13:31:12.796875,12.20
13:31:12.812500,11.18
13:31:12.828125,9.82
13:31:12.843750,8.10
13:31:12.859375,6.12
13:31:12.875000,4.04
13:31:12.890625,2.02
13:31:12.906250,0.13
13:31:12.921875,-1.68
13:31:12.937500,-3.53
13:31:12.953125,-5.51
13:31:12.968750,-7.57
13:31:12.984375,-9.52
13:31:13,-11.08
13:31:13.015625,-12.06
13:31:13.031250,-12.47
13:31:13.046875,-12.48
13:31:13.062500,-12.40
13:31:13.078125,-12.49
13:31:13.093750,-12.81
13:31:13.109375,-13.21
13:31:13.125000,-13.47
13:31:13.140625,-13.40
13:31:13.156250,-12.93
13:31:13.171875,-12.19
13:31:13.187500,-11.40
13:31:13.203125,-10.74
13:31:13.218750,-10.29
13:31:13.234375,-10.05
13:31:13.250000,-9.96
13:31:13.265625,-9.99
13:31:13.281250,-10.16
13:31:13.296875,-10.47
13:31:13.312500,-10.95
13:31:13.328125,-11.56
13:31:13.343750,-12.21
13:31:13.359375,-12.85
13:31:13.375000,-13.40
13:31:13.390625,-13.88
13:31:13.406250,-14.32
13:31:13.421875,-14.70
13:31:13.437500,-14.93
13:31:13.453125,-14.82
13:31:13.468750,-14.04
13:31:13.484375,-12.24
13:31:13.500000,-9.10
13:31:13.515625,-4.49
13:31:13.531250,1.48
13:31:13.546875,8.47
13:31:13.562500,16.01
13:31:13.578125,23.57
13:31:13.593750,30.74
13:31:13.609375,37.27
13:31:13.625000,43.07
13:31:13.640625,48.12
13:31:13.656250,52.44
13:31:13.671875,56.00
13:31:13.687500,58.72
13:31:13.703125,60.50
13:31:13.718750,61.24
13:31:13.734375,60.91
13:31:13.750000,59.55
13:31:13.765625,57.20
13:31:13.781250,53.97
13:31:13.796875,50.02
13:31:13.812500,45.62
13:31:13.828125,41.12
13:31:13.843750,36.88
13:31:13.859375,33.11
13:31:13.875000,29.82
13:31:13.890625,26.81
13:31:13.906250,23.80
13:31:13.921875,20.56
13:31:13.937500,17.02
13:31:13.953125,13.31
13:31:13.968750,9.66
13:31:13.984375,6.29
13:31:14,3.34
13:31:14.015625,0.83
13:31:14.031250,-1.30
13:31:14.046875,-3.20
13:31:14.062500,-5.06
13:31:14.078125,-7.05
13:31:14.093750,-9.28
13:31:14.109375,-11.73
13:31:14.125000,-14.27
13:31:14.140625,-16.71
13:31:14.156250,-18.86
13:31:14.171875,-20.65
13:31:14.187500,-22.07
13:31:14.203125,-23.16
13:31:14.218750,-23.92
13:31:14.234375,-24.41
13:31:14.250000,-24.68
13:31:14.265625,-24.84
13:31:14.281250,-25.03
13:31:14.296875,-25.34
13:31:14.312500,-25.81
13:31:14.328125,-26.39
13:31:14.343750,-27.07
13:31:14.359375,-27.80
13:31:14.375000,-28.57
13:31:14.390625,-29.30
13:31:14.406250,-29.92
13:31:14.421875,-30.36
13:31:14.437500,-30.64
13:31:14.453125,-30.87
13:31:14.468750,-31.24
13:31:14.484375,-31.90
13:31:14.500000,-32.90
13:31:14.515625,-34.15
13:31:14.531250,-35.43
13:31:14.546875,-36.44
13:31:14.562500,-36.85
13:31:14.578125,-36.38
13:31:14.593750,-34.81
13:31:14.609375,-32.07
13:31:14.625000,-28.25
13:31:14.640625,-23.62
13:31:14.656250,-18.60
13:31:14.671875,-13.63
13:31:14.687500,-9.04
13:31:14.703125,-5.02
13:31:14.718750,-1.60
13:31:14.734375,1.23
13:31:14.750000,3.54
13:31:14.765625,5.38
13:31:14.781250,6.78
13:31:14.796875,7.78
13:31:14.812500,8.45
13:31:14.828125,8.88
13:31:14.843750,9.20
13:31:14.859375,9.51
13:31:14.875000,9.87
13:31:14.890625,10.27
13:31:14.906250,10.68
13:31:14.921875,11.04
13:31:14.937500,11.33
13:31:14.953125,11.56
13:31:14.968750,11.78
13:31:14.984375,12.02
13:31:15,12.21
13:31:15.015625,12.26
13:31:15.031250,12.08
13:31:15.046875,11.66
13:31:15.062500,11.04
13:31:15.078125,10.33
13:31:15.093750,9.59
13:31:15.109375,8.84
13:31:15.125000,8.01
13:31:15.140625,7.03
13:31:15.156250,5.91
13:31:15.171875,4.71
13:31:15.187500,3.53
13:31:15.203125,2.46
13:31:15.218750,1.53
13:31:15.234375,0.71
13:31:15.250000,-0.08
13:31:15.265625,-0.93
13:31:15.281250,-1.91
13:31:15.296875,-3.08
13:31:15.312500,-4.49
13:31:15.328125,-6.14
13:31:15.343750,-7.96
13:31:15.359375,-9.80
13:31:15.375000,-11.47
13:31:15.390625,-12.87
13:31:15.406250,-13.91
13:31:15.421875,-14.69
13:31:15.437500,-15.29
13:31:15.453125,-15.93
13:31:15.468750,-16.76
13:31:15.484375,-17.96
13:31:15.500000,-19.66
13:31:15.515625,-21.85
13:31:15.531250,-24.35
13:31:15.546875,-26.72
13:31:15.562500,-28.40
13:31:15.578125,-28.77
13:31:15.593750,-27.41
13:31:15.609375,-24.23
13:31:15.625000,-19.50
13:31:15.640625,-13.76
13:31:15.656250,-7.63
13:31:15.671875,-1.74
13:31:15.687500,3.54
13:31:15.703125,7.96
13:31:15.718750,11.49
13:31:15.734375,14.15
13:31:15.750000,16.07
13:31:15.765625,17.36
13:31:15.781250,18.17
13:31:15.796875,18.68
13:31:15.812500,19.04
13:31:15.828125,19.39
13:31:15.843750,19.77
13:31:15.859375,20.16
13:31:15.875000,20.47
13:31:15.890625,20.63
13:31:15.906250,20.59
13:31:15.921875,20.33
13:31:15.937500,19.91
13:31:15.953125,19.31
13:31:15.968750,18.53
13:31:15.984375,17.56
13:31:16,16.40
13:31:16.015625,15.12
13:31:16.031250,13.83
13:31:16.046875,12.60
13:31:16.062500,11.46
13:31:16.078125,10.40
13:31:16.093750,9.32
13:31:16.109375,8.18
13:31:16.125000,6.95
13:31:16.140625,5.68
13:31:16.156250,4.43
13:31:16.171875,3.28
13:31:16.187500,2.32
13:31:16.203125,1.51
13:31:16.218750,0.78
13:31:16.234375,-0.05
13:31:16.250000,-1.15
13:31:16.265625,-2.61
13:31:16.281250,-4.44
13:31:16.296875,-6.48
13:31:16.312500,-8.54
13:31:16.328125,-10.43
13:31:16.343750,-12.02
13:31:16.359375,-13.32
13:31:16.375000,-14.43
13:31:16.390625,-15.54
13:31:16.406250,-16.89
13:31:16.421875,-18.69
13:31:16.437500,-21.05
13:31:16.453125,-23.88
13:31:16.468750,-26.86
13:31:16.484375,-29.49
13:31:16.500000,-31.22
13:31:16.515625,-31.55
13:31:16.531250,-30.16
13:31:16.546875,-27.00
13:31:16.562500,-22.30
13:31:16.578125,-16.52
13:31:16.593750,-10.30
13:31:16.609375,-4.25
13:31:16.625000,1.16
13:31:16.640625,5.72
13:31:16.656250,9.55
13:31:16.671875,12.89
13:31:16.687500,15.99
13:31:16.703125,18.92
13:31:16.718750,21.57
13:31:16.734375,23.73
13:31:16.750000,25.24
13:31:16.765625,26.12
13:31:16.781250,26.45
13:31:16.796875,26.39
13:31:16.812500,26.08
13:31:16.828125,25.58
13:31:16.843750,24.93
13:31:16.859375,24.22
13:31:16.875000,23.52
13:31:16.890625,22.87
13:31:16.906250,22.30
13:31:16.921875,21.72
13:31:16.937500,21.04
13:31:16.953125,20.14
13:31:16.968750,18.93
13:31:16.984375,17.36
13:31:17,15.43
13:31:17.015625,13.24
13:31:17.031250,10.88
13:31:17.046875,8.47
13:31:17.062500,6.10
13:31:17.078125,3.83
13:31:17.093750,1.76
13:31:17.109375,-0.06
13:31:17.125000,-1.53
13:31:17.140625,-2.62
13:31:17.156250,-3.42
13:31:17.171875,-4.14
13:31:17.187500,-5.03
13:31:17.203125,-6.33
13:31:17.218750,-8.11
13:31:17.234375,-10.28
13:31:17.250000,-12.58
13:31:17.265625,-14.74
13:31:17.281250,-16.59
13:31:17.296875,-18.14
13:31:17.312500,-19.64
13:31:17.328125,-21.38
13:31:17.343750,-23.63
13:31:17.359375,-26.35
13:31:17.375000,-29.16
13:31:17.390625,-31.40
13:31:17.406250,-32.37
13:31:17.421875,-31.57
13:31:17.437500,-28.88
13:31:17.453125,-24.59
13:31:17.468750,-19.19
13:31:17.484375,-13.23
13:31:17.500000,-7.17
13:31:17.515625,-1.36
13:31:17.531250,3.93
13:31:17.546875,8.52
13:31:17.562500,12.26
13:31:17.578125,15.10
13:31:17.593750,17.11
13:31:17.609375,18.42
13:31:17.625000,19.18
13:31:17.640625,19.54
13:31:17.656250,19.67
13:31:17.671875,19.77
13:31:17.687500,20.01
13:31:17.703125,20.49
13:31:17.718750,21.16
13:31:17.734375,21.85
13:31:17.750000,22.28
13:31:17.765625,22.20
13:31:17.781250,21.58
13:31:17.796875,20.52
13:31:17.812500,19.29
13:31:17.828125,18.13
13:31:17.843750,17.16
13:31:17.859375,16.32
13:31:17.875000,15.45
13:31:17.890625,14.37
13:31:17.906250,12.97
13:31:17.921875,11.33
13:31:17.937500,9.60
13:31:17.953125,7.99
13:31:17.968750,6.59
13:31:17.984375,5.41
13:31:18,4.30
13:31:18.015625,3.12
13:31:18.031250,1.80
13:31:18.046875,0.37
13:31:18.062500,-1.07
13:31:18.078125,-2.46
13:31:18.093750,-3.80
13:31:18.109375,-5.18
13:31:18.125000,-6.67
13:31:18.140625,-8.26
13:31:18.156250,-9.85
13:31:18.171875,-11.31
13:31:18.187500,-12.60
13:31:18.203125,-13.81
13:31:18.218750,-15.19
13:31:18.234375,-16.94
13:31:18.250000,-19.11
13:31:18.265625,-21.46
13:31:18.281250,-23.50
13:31:18.296875,-24.65
13:31:18.312500,-24.43
13:31:18.328125,-22.62
13:31:18.343750,-19.38
13:31:18.359375,-15.08
13:31:18.375000,-10.21
13:31:18.390625,-5.25
13:31:18.406250,-0.53
13:31:18.421875,3.74
13:31:18.437500,7.46
13:31:18.453125,10.55
13:31:18.468750,12.96
13:31:18.484375,14.71
13:31:18.500000,15.86
13:31:18.515625,16.54
13:31:18.531250,16.93
13:31:18.546875,17.17
13:31:18.562500,17.37
13:31:18.578125,17.57
13:31:18.593750,17.77
13:31:18.609375,17.96
13:31:18.625000,18.10
13:31:18.640625,18.17
13:31:18.656250,18.10
13:31:18.671875,17.82
13:31:18.687500,17.32
13:31:18.703125,16.66
13:31:18.718750,15.95
13:31:18.734375,15.28
13:31:18.750000,14.69
13:31:18.765625,14.02
13:31:18.781250,13.07
13:31:18.796875,11.66
13:31:18.812500,9.77
13:31:18.828125,7.64
13:31:18.843750,5.63
13:31:18.859375,4.09
13:31:18.875000,3.12
13:31:18.890625,2.56
13:31:18.906250,2.05
13:31:18.921875,1.25
13:31:18.937500,-0.01
13:31:18.953125,-1.67
13:31:18.968750,-3.53
13:31:18.984375,-5.39
13:31:19,-7.18
13:31:19.015625,-8.91
13:31:19.031250,-10.61
13:31:19.046875,-12.26
13:31:19.062500,-13.78
13:31:19.078125,-15.12
13:31:19.093750,-16.38
13:31:19.109375,-17.75
13:31:19.125000,-19.42
13:31:19.140625,-21.44
13:31:19.156250,-23.59
13:31:19.171875,-25.40
13:31:19.187500,-26.35
13:31:19.203125,-26.03
13:31:19.218750,-24.35
13:31:19.234375,-21.46
13:31:19.250000,-17.73
13:31:19.265625,-13.57
13:31:19.281250,-9.35
13:31:19.296875,-5.33
13:31:19.312500,-1.71
13:31:19.328125,1.39
13:31:19.343750,3.83
13:31:19.359375,5.56
13:31:19.375000,6.60
13:31:19.390625,7.11
13:31:19.406250,7.32
13:31:19.421875,7.55
13:31:19.437500,8.00
13:31:19.453125,8.71
13:31:19.468750,9.52
13:31:19.484375,10.18
13:31:19.500000,10.44
13:31:19.515625,10.25
13:31:19.531250,9.70
13:31:19.546875,9.02
13:31:19.562500,8.42
13:31:19.578125,7.99
13:31:19.593750,7.66
13:31:19.609375,7.29
13:31:19.625000,6.73
13:31:19.640625,5.96
13:31:19.656250,5.06
13:31:19.671875,4.14
13:31:19.687500,3.32
13:31:19.703125,2.61
13:31:19.718750,1.96
13:31:19.734375,1.29
13:31:19.750000,0.54
13:31:19.765625,-0.26
13:31:19.781250,-1.04
13:31:19.796875,-1.73
13:31:19.812500,-2.37
13:31:19.828125,-3.06
13:31:19.843750,-3.97
13:31:19.859375,-5.16
13:31:19.875000,-6.59
13:31:19.890625,-8.08
13:31:19.906250,-9.44
13:31:19.921875,-10.60
13:31:19.937500,-11.62
13:31:19.953125,-12.74
13:31:19.968750,-14.19
13:31:19.984375,-16.07
13:31:20,-18.25
13:31:20.015625,-20.37
13:31:20.031250,-21.96
13:31:20.046875,-22.56
13:31:20.062500,-21.88
13:31:20.078125,-19.88
13:31:20.093750,-16.73
13:31:20.109375,-12.77
13:31:20.125000,-8.35
13:31:20.140625,-3.83
13:31:20.156250,0.48
13:31:20.171875,4.34
13:31:20.187500,7.55
13:31:20.203125,10.04
13:31:20.218750,11.83
13:31:20.234375,13.06
13:31:20.250000,13.95
13:31:20.265625,14.68
13:31:20.281250,15.34
13:31:20.296875,15.82
13:31:20.312500,15.96
13:31:20.328125,15.65
13:31:20.343750,14.94
13:31:20.359375,14.04
13:31:20.375000,13.24
13:31:20.390625,12.77
13:31:20.406250,12.67
13:31:20.421875,12.83
13:31:20.437500,13.03
13:31:20.453125,13.13
13:31:20.468750,13.04
13:31:20.484375,12.73
13:31:20.500000,12.14
13:31:20.515625,11.21
13:31:20.531250,9.86
13:31:20.546875,8.11
13:31:20.562500,6.10
13:31:20.578125,4.09
13:31:20.593750,2.34
13:31:20.609375,1.00
13:31:20.625000,0.06
13:31:20.640625,-0.65
13:31:20.656250,-1.43
13:31:20.671875,-2.55
13:31:20.687500,-4.14
13:31:20.703125,-6.17
13:31:20.718750,-8.44
13:31:20.734375,-10.61
13:31:20.750000,-12.40
13:31:20.765625,-13.65
13:31:20.781250,-14.42
13:31:20.796875,-14.98
13:31:20.812500,-15.67
13:31:20.828125,-16.79
13:31:20.843750,-18.50
13:31:20.859375,-20.77
13:31:20.875000,-23.34
13:31:20.890625,-25.79
13:31:20.906250,-27.59
13:31:20.921875,-28.27
13:31:20.937500,-27.49
13:31:20.953125,-25.20
13:31:20.968750,-21.59
13:31:20.984375,-17.09
13:31:21,-12.20
13:31:21.015625,-7.39
13:31:21.031250,-3.02
13:31:21.046875,0.72
13:31:21.062500,3.81
13:31:21.078125,6.32
13:31:21.093750,8.45
13:31:21.109375,10.39
13:31:21.125000,12.26
13:31:21.140625,14.07
13:31:21.156250,15.74
13:31:21.171875,17.15
13:31:21.187500,18.20
13:31:21.203125,18.86
13:31:21.218750,19.11
13:31:21.234375,18.93
13:31:21.250000,18.30
13:31:21.265625,17.26
13:31:21.281250,15.95
13:31:21.296875,14.59
13:31:21.312500,13.42
13:31:21.328125,12.63
13:31:21.343750,12.19
13:31:21.359375,11.97
13:31:21.375000,11.74
13:31:21.390625,11.31
13:31:21.406250,10.58
13:31:21.421875,9.52
13:31:21.437500,8.12
13:31:21.453125,6.44
13:31:21.468750,4.50
13:31:21.484375,2.43
13:31:21.500000,0.34
13:31:21.515625,-1.63
13:31:21.531250,-3.40
13:31:21.546875,-4.93
13:31:21.562500,-6.31
13:31:21.578125,-7.64
13:31:21.593750,-9.03
13:31:21.609375,-10.58
13:31:21.625000,-12.33
13:31:21.640625,-14.24
13:31:21.656250,-16.25
13:31:21.671875,-18.26
13:31:21.687500,-20.17
13:31:21.703125,-21.90
13:31:21.718750,-23.47
13:31:21.734375,-24.93
13:31:21.750000,-26.34
13:31:21.765625,-27.73
13:31:21.781250,-28.96
13:31:21.796875,-29.80
13:31:21.812500,-29.87
13:31:21.828125,-28.85
13:31:21.843750,-26.54
13:31:21.859375,-23.00
13:31:21.875000,-18.52
13:31:21.890625,-13.50
13:31:21.906250,-8.39
13:31:21.921875,-3.54
13:31:21.937500,0.83
13:31:21.953125,4.65
13:31:21.968750,7.92
13:31:21.984375,10.71
13:31:22,13.14
13:31:22.015625,15.34
13:31:22.031250,17.40
13:31:22.046875,19.34
13:31:22.062500,21.14
13:31:22.078125,22.68
13:31:22.093750,23.86
