15:24:09,-0.00
15:24:09.015625,-0.00
15:24:09.031250,-0.00
15:24:09.046875,-0.00
15:24:09.062500,-0.00
15:24:09.078125,-0.00
15:24:09.093750,-0.00
15:24:09.109375,-0.00
15:24:09.125000,-0.00
15:24:09.140625,-0.01
15:24:09.156250,-0.00
15:24:09.171875,0.00
15:24:09.187500,0.01
15:24:09.203125,0.01
15:24:09.218750,-0.00
15:24:09.234375,-0.03
15:24:09.250000,-0.05
15:24:09.265625,-0.05
15:24:09.281250,-0.00
15:24:09.296875,0.13
15:24:09.312500,0.36
15:24:09.328125,0.66
15:24:09.343750,1.01
15:24:09.359375,1.37
15:24:09.375000,1.72
15:24:09.390625,2.06
15:24:09.406250,2.40
15:24:09.421875,2.77
15:24:09.437500,3.24
15:24:09.453125,3.80
15:24:09.468750,4.42
15:24:09.484375,5.06
15:24:09.500000,5.66
15:24:09.515625,6.20
15:24:09.531250,6.68
15:24:09.546875,7.15
15:24:09.562500,7.64
15:24:09.578125,8.31
15:24:09.593750,9.14
15:24:09.609375,10.09
15:24:09.625000,11.04
15:24:09.640625,11.88
15:24:09.656250,12.56
15:24:09.671875,13.14
15:24:09.687500,13.76
15:24:09.703125,14.58
15:24:09.718750,15.96
15:24:09.734375,17.91
15:24:09.750000,20.32
15:24:09.765625,22.90
15:24:09.781250,25.38
15:24:09.796875,27.58
15:24:09.812500,29.57
15:24:09.828125,31.68
15:24:09.843750,34.20
15:24:09.859375,37.81
15:24:09.875000,42.54
15:24:09.890625,48.15
15:24:09.906250,54.10
15:24:09.921875,59.83
15:24:09.937500,64.97
15:24:09.953125,69.58
15:24:09.968750,74.14
15:24:09.984375,79.19
15:24:10,85.71
15:24:10.015625,93.76
15:24:10.031250,103.00
15:24:10.046875,112.62
15:24:10.062500,121.73
15:24:10.078125,129.77
15:24:10.093750,136.75
15:24:10.109375,144.29
15:24:10.125000,150.58
15:24:10.140625,157.77
15:24:10.156250,166.64
15:24:10.171875,177.95
15:24:10.187500,191.79
15:24:10.203125,206.97
15:24:10.218750,220.57
15:24:10.234375,228.25
15:24:10.250000,225.36
15:24:10.265625,208.37
15:24:10.281250,176.87
15:24:10.296875,132.76
15:24:10.312500,80.05
15:24:10.328125,23.07
15:24:10.343750,-34.94
15:24:10.359375,-92.44
15:24:10.375000,-149.16
15:24:10.390625,-205.23
15:24:10.406250,-260.49
15:24:10.421875,-313.74
15:24:10.437500,-363.88
15:24:10.453125,-409.83
15:24:10.468750,-450.90
15:24:10.484375,-486.49
15:24:10.500000,-515.72
15:24:10.515625,-537.20
15:24:10.531250,-549.17
15:24:10.546875,-549.96
15:24:10.562500,-538.26
15:24:10.578125,-514.07
15:24:10.593750,-478.49
15:24:10.609375,-433.65
15:24:10.625000,-382.17
15:24:10.640625,-326.69
15:24:10.656250,-269.45
15:24:10.671875,-212.18
15:24:10.687500,-156.18
15:24:10.703125,-102.37
15:24:10.718750,-51.72
15:24:10.734375,-5.18
15:24:10.750000,36.38
15:24:10.765625,72.30
15:24:10.781250,102.31
15:24:10.796875,126.55
15:24:10.812500,145.52
15:24:10.828125,159.92
15:24:10.843750,170.51
15:24:10.859375,177.85
15:24:10.875000,182.37
15:24:10.890625,184.34
15:24:10.906250,184.01
15:24:10.921875,181.64
15:24:10.937500,177.58
15:24:10.953125,172.24
15:24:10.968750,166.03
15:24:10.984375,159.30
15:24:11,152.29
15:24:11.015625,145.14
15:24:11.031250,137.93
15:24:11.046875,130.71
15:24:11.062500,123.50
15:24:11.078125,116.39
15:24:11.093750,109.43
15:24:11.109375,102.71
15:24:11.125000,96.27
15:24:11.140625,90.14
15:24:11.156250,84.35
15:24:11.171875,78.90
15:24:11.187500,73.80
15:24:11.203125,69.07
15:24:11.218750,64.70
15:24:11.234375,60.72
15:24:11.250000,57.13
15:24:11.265625,53.91
15:24:11.281250,51.06
15:24:11.296875,48.58
15:24:11.312500,46.48
15:24:11.328125,44.74
15:24:11.343750,43.38
15:24:11.359375,42.36
15:24:11.375000,41.69
15:24:11.390625,41.29
15:24:11.406250,41.10
15:24:11.421875,41.02
15:24:11.437500,40.88
15:24:11.453125,40.54
15:24:11.468750,39.82
15:24:11.484375,38.53
15:24:11.500000,36.54
15:24:11.515625,33.76
15:24:11.531250,30.13
15:24:11.546875,25.70
15:24:11.562500,20.54
15:24:11.578125,14.80
15:24:11.593750,8.72
15:24:11.609375,2.54
15:24:11.625000,-3.47
15:24:11.640625,-9.06
15:24:11.656250,-14.01
15:24:11.671875,-18.15
15:24:11.687500,-21.37
15:24:11.703125,-23.62
15:24:11.718750,-24.93
15:24:11.734375,-25.35
15:24:11.750000,-25.00
15:24:11.765625,-24.00
15:24:11.781250,-22.50
15:24:11.796875,-20.62
15:24:11.812500,-18.47
15:24:11.828125,-16.16
15:24:11.843750,-13.73
15:24:11.859375,-11.24
15:24:11.875000,-8.73
15:24:11.890625,-6.22
15:24:11.906250,-3.75
15:24:11.921875,-1.29
15:24:11.937500,1.16
15:24:11.953125,3.63
15:24:11.968750,6.14
15:24:11.984375,8.74
15:24:12,11.47
15:24:12.015625,14.31
15:24:12.031250,17.25
15:24:12.046875,20.28
15:24:12.062500,23.41
15:24:12.078125,26.64
15:24:12.093750,29.97
15:24:12.109375,33.43
15:24:12.125000,37.06
15:24:12.140625,40.91
15:24:12.156250,44.90
15:24:12.171875,49.00
15:24:12.187500,53.20
15:24:12.203125,57.52
15:24:12.218750,61.99
15:24:12.234375,66.67
15:24:12.250000,71.60
15:24:12.265625,76.86
15:24:12.281250,82.56
15:24:12.296875,88.55
15:24:12.312500,94.72
15:24:12.328125,101.01
15:24:12.343750,107.39
15:24:12.359375,113.82
15:24:12.375000,120.28
15:24:12.390625,126.77
15:24:12.406250,133.33
15:24:12.421875,139.99
15:24:12.437500,146.46
15:24:12.453125,152.52
15:24:12.468750,157.93
15:24:12.484375,162.44
15:24:12.500000,165.74
15:24:12.515625,167.43
15:24:12.531250,166.99
15:24:12.546875,163.64
15:24:12.562500,158.71
15:24:12.578125,152.64
15:24:12.593750,145.70
15:24:12.609375,138.05
15:24:12.625000,129.86
15:24:12.640625,121.26
15:24:12.656250,112.41
15:24:12.671875,103.46
15:24:12.687500,94.63
15:24:12.703125,86.14
15:24:12.718750,77.88
15:24:12.734375,69.83
15:24:12.750000,62.01
15:24:12.765625,54.47
15:24:12.781250,47.32
15:24:12.796875,40.69
15:24:12.812500,34.72
15:24:12.828125,29.53
15:24:12.843750,25.26
15:24:12.859375,21.70
15:24:12.875000,18.67
15:24:12.890625,15.99
15:24:12.906250,13.48
15:24:12.921875,11.01
15:24:12.937500,8.54
15:24:12.953125,6.04
15:24:12.968750,3.54
15:24:12.984375,1.06
15:24:13,-1.59
15:24:13.015625,-4.56
15:24:13.031250,-7.99
15:24:13.046875,-11.95
15:24:13.062500,-16.36
15:24:13.078125,-21.06
15:24:13.093750,-25.83
15:24:13.109375,-30.47
15:24:13.125000,-34.92
15:24:13.140625,-39.40
15:24:13.156250,-44.22
15:24:13.171875,-49.74
15:24:13.187500,-56.18
15:24:13.203125,-63.55
15:24:13.218750,-71.63
15:24:13.234375,-80.09
15:24:13.250000,-88.58
15:24:13.265625,-96.98
15:24:13.281250,-105.44
15:24:13.296875,-114.32
15:24:13.312500,-124.06
15:24:13.328125,-134.95
15:24:13.343750,-147.04
15:24:13.359375,-160.11
15:24:13.375000,-173.87
15:24:13.390625,-187.96
15:24:13.406250,-202.23
15:24:13.421875,-216.66
15:24:13.437500,-231.42
15:24:13.453125,-246.90
15:24:13.468750,-263.83
15:24:13.484375,-283.23
15:24:13.500000,-306.06
15:24:13.515625,-332.50
15:24:13.531250,-361.23
15:24:13.546875,-389.18
15:24:13.562500,-412.10
15:24:13.578125,-425.85
15:24:13.593750,-427.85
15:24:13.609375,-417.89
15:24:13.625000,-397.96
15:24:13.640625,-371.21
15:24:13.656250,-340.70
15:24:13.671875,-308.52
15:24:13.687500,-275.77
15:24:13.703125,-243.05
15:24:13.718750,-211.07
15:24:13.734375,-180.94
15:24:13.750000,-153.98
15:24:13.765625,-131.41
15:24:13.781250,-114.14
15:24:13.796875,-102.77
15:24:13.812500,-97.67
15:24:13.828125,-98.95
15:24:13.843750,-106.05
15:24:13.859375,-117.32
15:24:13.875000,-129.77
15:24:13.890625,-139.24
15:24:13.906250,-141.31
15:24:13.921875,-132.50
15:24:13.937500,-111.39
15:24:13.953125,-79.27
15:24:13.968750,-39.77
15:24:13.984375,2.10
15:24:14,41.52
15:24:14.015625,75.04
15:24:14.031250,101.25
15:24:14.046875,120.54
15:24:14.062500,134.40
15:24:14.078125,144.40
15:24:14.093750,151.54
15:24:14.109375,156.13
15:24:14.125000,158.03
15:24:14.140625,157.21
15:24:14.156250,154.08
15:24:14.171875,149.57
15:24:14.187500,144.92
15:24:14.203125,141.22
15:24:14.218750,139.03
15:24:14.234375,138.23
15:24:14.250000,138.11
15:24:14.265625,137.61
15:24:14.281250,135.73
15:24:14.296875,131.71
15:24:14.312500,125.17
15:24:14.328125,116.05
15:24:14.343750,104.60
15:24:14.359375,91.27
15:24:14.375000,76.81
15:24:14.390625,62.24
15:24:14.406250,48.77
15:24:14.421875,37.70
15:24:14.437500,30.04
15:24:14.453125,26.28
15:24:14.468750,26.10
15:24:14.484375,28.43
15:24:14.500000,31.58
15:24:14.515625,33.66
15:24:14.531250,32.95
15:24:14.546875,28.16
15:24:14.562500,18.57
15:24:14.578125,3.93
15:24:14.593750,-15.54
15:24:14.609375,-39.03
15:24:14.625000,-64.95
15:24:14.640625,-90.67
15:24:14.656250,-112.67
15:24:14.671875,-127.04
15:24:14.687500,-130.46
15:24:14.703125,-121.28
15:24:14.718750,-100.14
15:24:14.734375,-69.94
15:24:14.750000,-35.08
15:24:14.765625,-0.13
15:24:14.781250,31.17
15:24:14.796875,56.64
15:24:14.812500,75.55
15:24:14.828125,88.02
15:24:14.843750,94.49
15:24:14.859375,95.34
15:24:14.875000,91.10
15:24:14.890625,82.78
15:24:14.906250,72.13
15:24:14.921875,61.60
15:24:14.937500,53.80
15:24:14.953125,50.80
15:24:14.968750,53.56
15:24:14.984375,61.74
15:24:15,73.90
15:24:15.015625,88.12
15:24:15.031250,102.49
15:24:15.046875,115.45
15:24:15.062500,125.94
15:24:15.078125,133.20
15:24:15.093750,136.73
15:24:15.109375,136.20
15:24:15.125000,131.51
15:24:15.140625,122.89
15:24:15.156250,110.99
15:24:15.171875,96.88
15:24:15.187500,81.94
15:24:15.203125,67.71
15:24:15.218750,55.48
15:24:15.234375,46.06
15:24:15.250000,39.66
15:24:15.265625,35.88
15:24:15.281250,34.01
15:24:15.296875,33.13
15:24:15.312500,32.38
15:24:15.328125,30.79
15:24:15.343750,27.27
15:24:15.359375,20.64
15:24:15.375000,9.79
15:24:15.390625,-5.74
15:24:15.406250,-25.30
15:24:15.421875,-46.86
15:24:15.437500,-67.29
15:24:15.453125,-83.05
15:24:15.468750,-91.23
15:24:15.484375,-90.34
15:24:15.500000,-80.74
15:24:15.515625,-64.43
15:24:15.531250,-44.35
15:24:15.546875,-23.49
15:24:15.562500,-4.26
15:24:15.578125,11.76
15:24:15.593750,23.68
15:24:15.609375,31.02
15:24:15.625000,33.50
15:24:15.640625,31.09
15:24:15.656250,24.25
15:24:15.671875,14.15
15:24:15.687500,2.63
15:24:15.703125,-8.11
15:24:15.718750,-16.04
15:24:15.734375,-19.85
15:24:15.750000,-19.19
15:24:15.765625,-14.56
15:24:15.781250,-7.05
15:24:15.796875,2.07
15:24:15.812500,11.61
15:24:15.828125,20.53
15:24:15.843750,27.99
15:24:15.859375,33.29
15:24:15.875000,35.97
15:24:15.890625,35.77
15:24:15.906250,32.71
15:24:15.921875,27.01
15:24:15.937500,19.11
15:24:15.953125,9.64
15:24:15.968750,-0.51
15:24:15.984375,-10.28
15:24:16,-18.47
15:24:16.015625,-23.95
15:24:16.031250,-25.92
15:24:16.046875,-24.06
15:24:16.062500,-18.68
15:24:16.078125,-10.63
15:24:16.093750,-1.28
15:24:16.109375,7.74
15:24:16.125000,14.62
15:24:16.140625,17.74
15:24:16.156250,16.11
15:24:16.171875,9.91
15:24:16.187500,0.77
15:24:16.203125,-8.30
15:24:16.218750,-13.64
15:24:16.234375,-11.93
15:24:16.250000,-1.24
15:24:16.265625,18.45
15:24:16.281250,45.27
15:24:16.296875,76.12
15:24:16.312500,107.67
15:24:16.328125,137.15
15:24:16.343750,162.84
15:24:16.359375,184.06
15:24:16.375000,200.76
15:24:16.390625,213.02
15:24:16.406250,220.58
15:24:16.421875,222.76
15:24:16.437500,218.52
15:24:16.453125,206.92
15:24:16.468750,187.45
15:24:16.484375,160.26
15:24:16.500000,126.26
15:24:16.515625,87.05
15:24:16.531250,45.02
15:24:16.546875,3.33
15:24:16.562500,-34.33
15:24:16.578125,-64.32
15:24:16.593750,-84.09
15:24:16.609375,-93.00
15:24:16.625000,-92.69
15:24:16.640625,-86.54
15:24:16.656250,-78.55
15:24:16.671875,-72.10
15:24:16.687500,-69.21
15:24:16.703125,-70.47
15:24:16.718750,-75.61
15:24:16.734375,-84.12
15:24:16.750000,-95.56
15:24:16.765625,-109.46
15:24:16.781250,-125.06
15:24:16.796875,-141.11
15:24:16.812500,-155.95
15:24:16.828125,-167.77
15:24:16.843750,-175.01
15:24:16.859375,-176.60
15:24:16.875000,-172.22
15:24:16.890625,-162.44
15:24:16.906250,-148.71
15:24:16.921875,-133.21
15:24:16.937500,-118.38
15:24:16.953125,-106.40
15:24:16.968750,-98.50
15:24:16.984375,-94.67
15:24:17,-93.71
15:24:17.015625,-93.66
15:24:17.031250,-92.39
15:24:17.046875,-88.25
15:24:17.062500,-80.28
15:24:17.078125,-68.23
15:24:17.093750,-52.27
15:24:17.109375,-32.81
15:24:17.125000,-10.39
15:24:17.140625,14.12
15:24:17.156250,39.39
15:24:17.171875,63.68
15:24:17.187500,85.02
15:24:17.203125,101.74
15:24:17.218750,112.88
15:24:17.234375,118.40
15:24:17.250000,119.08
15:24:17.265625,116.18
15:24:17.281250,111.12
15:24:17.296875,105.29
15:24:17.312500,100.04
15:24:17.328125,96.67
15:24:17.343750,96.32
15:24:17.359375,99.72
15:24:17.375000,106.90
15:24:17.390625,117.06
15:24:17.406250,128.67
15:24:17.421875,139.73
15:24:17.437500,148.22
15:24:17.453125,152.23
15:24:17.468750,150.19
15:24:17.484375,140.95
15:24:17.500000,123.97
15:24:17.515625,99.66
15:24:17.531250,69.57
15:24:17.546875,36.45
15:24:17.562500,3.86
15:24:17.578125,-24.52
15:24:17.593750,-45.68
15:24:17.609375,-57.89
15:24:17.625000,-61.03
15:24:17.640625,-56.52
15:24:17.656250,-46.96
15:24:17.671875,-35.51
15:24:17.687500,-25.18
15:24:17.703125,-18.25
15:24:17.718750,-15.66
15:24:17.734375,-16.88
15:24:17.750000,-20.16
15:24:17.765625,-23.13
15:24:17.781250,-23.68
15:24:17.796875,-20.63
15:24:17.812500,-14.09
15:24:17.828125,-5.29
15:24:17.843750,3.78
15:24:17.859375,11.02
15:24:17.875000,14.64
15:24:17.890625,13.45
15:24:17.906250,7.02
15:24:17.921875,-4.25
15:24:17.937500,-19.17
15:24:17.953125,-35.90
15:24:17.968750,-52.25
15:24:17.984375,-66.11
15:24:18,-75.97
15:24:18.015625,-81.09
15:24:18.031250,-81.75
15:24:18.046875,-79.17
15:24:18.062500,-75.19
15:24:18.078125,-71.97
15:24:18.093750,-71.46
15:24:18.109375,-74.76
15:24:18.125000,-81.82
15:24:18.140625,-91.33
15:24:18.156250,-101.12
15:24:18.171875,-108.90
15:24:18.187500,-113.09
15:24:18.203125,-113.26
15:24:18.218750,-110.19
15:24:18.234375,-105.32
15:24:18.250000,-100.12
15:24:18.265625,-95.48
15:24:18.281250,-91.47
15:24:18.296875,-87.50
15:24:18.312500,-82.75
15:24:18.328125,-76.59
15:24:18.343750,-68.88
15:24:18.359375,-60.03
15:24:18.375000,-50.86
15:24:18.390625,-42.30
15:24:18.406250,-35.23
15:24:18.421875,-30.24
15:24:18.437500,-27.64
15:24:18.453125,-27.46
15:24:18.468750,-29.48
15:24:18.484375,-33.17
15:24:18.500000,-37.61
15:24:18.515625,-41.42
15:24:18.531250,-43.02
15:24:18.546875,-40.96
15:24:18.562500,-34.37
15:24:18.578125,-23.31
15:24:18.593750,-8.81
15:24:18.609375,7.49
15:24:18.625000,23.84
15:24:18.640625,38.84
15:24:18.656250,51.73
15:24:18.671875,62.22
15:24:18.687500,70.29
15:24:18.703125,75.83
15:24:18.718750,78.61
15:24:18.734375,78.38
15:24:18.750000,75.15
15:24:18.765625,69.37
15:24:18.781250,61.99
15:24:18.796875,54.27
15:24:18.812500,47.50
15:24:18.828125,42.71
15:24:18.843750,40.38
15:24:18.859375,40.49
15:24:18.875000,42.50
15:24:18.890625,45.57
15:24:18.906250,48.74
15:24:18.921875,51.07
15:24:18.937500,51.84
15:24:18.953125,50.63
15:24:18.968750,47.44
15:24:18.984375,42.60
15:24:19,36.76
15:24:19.015625,30.67
15:24:19.031250,25.03
15:24:19.046875,20.39
15:24:19.062500,17.05
15:24:19.078125,15.10
15:24:19.093750,14.49
15:24:19.109375,15.10
15:24:19.125000,16.75
15:24:19.140625,19.12
15:24:19.156250,21.68
15:24:19.171875,23.64
15:24:19.187500,24.03
15:24:19.203125,21.91
15:24:19.218750,16.68
15:24:19.234375,8.42
15:24:19.250000,-1.97
15:24:19.265625,-12.89
15:24:19.281250,-22.41
15:24:19.296875,-28.88
15:24:19.312500,-31.30
15:24:19.328125,-29.61
15:24:19.343750,-24.48
15:24:19.359375,-16.97
15:24:19.375000,-8.05
15:24:19.390625,1.67
15:24:19.406250,12.08
15:24:19.421875,23.43
15:24:19.437500,36.02
15:24:19.453125,50.04
15:24:19.468750,65.36
15:24:19.484375,81.42
15:24:19.500000,97.28
15:24:19.515625,111.86
15:24:19.531250,124.24
15:24:19.546875,134.05
15:24:19.562500,141.82
15:24:19.578125,148.83
15:24:19.593750,156.59
15:24:19.609375,165.91
15:24:19.625000,176.08
15:24:19.640625,184.72
15:24:19.656250,188.29
15:24:19.671875,183.43
15:24:19.687500,168.28
15:24:19.703125,143.27
15:24:19.718750,110.98
15:24:19.734375,75.08
15:24:19.750000,39.02
15:24:19.765625,4.96
15:24:19.781250,-26.52
15:24:19.796875,-56.08
15:24:19.812500,-85.01
15:24:19.828125,-114.86
15:24:19.843750,-147.28
15:24:19.859375,-183.96
15:24:19.875000,-226.08
15:24:19.890625,-273.44
15:24:19.906250,-323.55
15:24:19.921875,-371.44
15:24:19.937500,-410.64
15:24:19.953125,-435.22
15:24:19.968750,-441.93
15:24:19.984375,-431.48
15:24:20,-408.30
15:24:20.015625,-378.67
15:24:20.031250,-348.33
15:24:20.046875,-320.52
15:24:20.062500,-295.49
15:24:20.078125,-271.29
15:24:20.093750,-245.40
15:24:20.109375,-216.10
15:24:20.125000,-183.14
15:24:20.140625,-147.53
15:24:20.156250,-110.80
15:24:20.171875,-74.45
15:24:20.187500,-39.56
15:24:20.203125,-6.92
15:24:20.218750,22.75
15:24:20.234375,48.55
15:24:20.250000,69.56
15:24:20.265625,85.09
15:24:20.281250,95.01
15:24:20.296875,100.00
15:24:20.312500,101.38
15:24:20.328125,100.76
15:24:20.343750,99.46
15:24:20.359375,98.22
15:24:20.375000,97.08
15:24:20.390625,95.60
15:24:20.406250,93.32
15:24:20.421875,90.15
15:24:20.437500,86.43
15:24:20.453125,82.81
15:24:20.468750,79.91
15:24:20.484375,77.93
15:24:20.500000,76.55
15:24:20.515625,75.08
15:24:20.531250,72.74
15:24:20.546875,68.96
15:24:20.562500,63.60
15:24:20.578125,56.90
15:24:20.593750,49.27
15:24:20.609375,41.14
15:24:20.625000,32.76
15:24:20.640625,24.23
15:24:20.656250,15.51
15:24:20.671875,6.65
15:24:20.687500,-2.23
15:24:20.703125,-10.89
15:24:20.718750,-19.08
15:24:20.734375,-26.67
15:24:20.750000,-33.73
15:24:20.765625,-40.61
15:24:20.781250,-47.87
15:24:20.796875,-56.08
15:24:20.812500,-65.61
15:24:20.828125,-76.26
15:24:20.843750,-87.08
15:24:20.859375,-96.44
15:24:20.875000,-102.34
15:24:20.890625,-102.98
15:24:20.906250,-97.34
15:24:20.921875,-85.41
15:24:20.937500,-68.23
15:24:20.953125,-47.42
15:24:20.968750,-24.77
15:24:20.984375,-1.85
15:24:21,20.11
15:24:21.015625,40.09
15:24:21.031250,57.18
15:24:21.046875,70.56
15:24:21.062500,79.68
15:24:21.078125,84.45
15:24:21.093750,85.37
15:24:21.109375,83.40
15:24:21.125000,79.71
15:24:21.140625,75.32
15:24:21.156250,70.90
15:24:21.171875,66.80
15:24:21.187500,63.14
15:24:21.203125,60.05
15:24:21.218750,57.72
15:24:21.234375,56.41
15:24:21.250000,56.21
15:24:21.265625,56.94
15:24:21.281250,58.11
15:24:21.296875,59.04
15:24:21.312500,59.06
15:24:21.328125,57.78
15:24:21.343750,55.16
15:24:21.359375,51.49
15:24:21.375000,47.14
15:24:21.390625,42.44
15:24:21.406250,37.47
15:24:21.421875,32.15
15:24:21.437500,26.27
15:24:21.453125,19.76
15:24:21.468750,12.79
15:24:21.484375,5.71
15:24:21.500000,-1.08
15:24:21.515625,-7.35
15:24:21.531250,-13.15
15:24:21.546875,-18.81
15:24:21.562500,-24.79
15:24:21.578125,-31.59
15:24:21.593750,-39.59
15:24:21.609375,-48.98
15:24:21.625000,-59.69
15:24:21.640625,-71.22
15:24:21.656250,-82.52
15:24:21.671875,-91.96
15:24:21.687500,-97.59
15:24:21.703125,-97.67
15:24:21.718750,-91.18
15:24:21.734375,-78.27
15:24:21.750000,-60.21
15:24:21.765625,-39.02
15:24:21.781250,-16.82
15:24:21.796875,4.68
15:24:21.812500,24.37
15:24:21.828125,41.69
15:24:21.843750,56.33
15:24:21.859375,68.00
15:24:21.875000,76.42
15:24:21.890625,81.41
15:24:21.906250,83.08
15:24:21.921875,81.89
15:24:21.937500,78.59
15:24:21.953125,74.07
15:24:21.968750,69.14
15:24:21.984375,64.41
15:24:22,60.24
15:24:22.015625,56.86
15:24:22.031250,54.36
15:24:22.046875,52.75
15:24:22.062500,51.93
15:24:22.078125,51.59
15:24:22.093750,51.31
15:24:22.109375,50.61
15:24:22.125000,49.07
15:24:22.140625,46.44
15:24:22.156250,42.74
15:24:22.171875,38.13
15:24:22.187500,32.88
15:24:22.203125,27.22
15:24:22.218750,21.27
15:24:22.234375,15.02
15:24:22.250000,8.42
15:24:22.265625,1.45
15:24:22.281250,-5.83
15:24:22.296875,-13.24
15:24:22.312500,-20.53
15:24:22.328125,-27.47
15:24:22.343750,-33.92
15:24:22.359375,-40.00
15:24:22.375000,-46.09
15:24:22.390625,-52.84
15:24:22.406250,-60.89
15:24:22.421875,-70.61
15:24:22.437500,-81.65
15:24:22.453125,-92.85
15:24:22.468750,-102.33
15:24:22.484375,-107.93
15:24:22.500000,-107.95
15:24:22.515625,-101.58
15:24:22.531250,-89.23
15:24:22.546875,-72.36
15:24:22.562500,-52.96
15:24:22.578125,-33.00
15:24:22.593750,-13.92
15:24:22.609375,3.47
15:24:22.625000,18.93
15:24:22.640625,32.53
15:24:22.656250,44.32
15:24:22.671875,54.22
15:24:22.687500,62.03
15:24:22.703125,67.56
15:24:22.718750,70.78
15:24:22.734375,71.88
15:24:22.750000,71.25
15:24:22.765625,69.36
15:24:22.781250,66.68
15:24:22.796875,63.59
15:24:22.812500,60.43
15:24:22.828125,57.53
15:24:22.843750,55.22
15:24:22.859375,53.75
15:24:22.875000,53.22
15:24:22.890625,53.40
15:24:22.906250,53.86
15:24:22.921875,53.95
15:24:22.937500,53.10
15:24:22.953125,50.94
15:24:22.968750,47.51
15:24:22.984375,43.18
15:24:23,38.48
15:24:23.015625,33.83
15:24:23.031250,29.38
15:24:23.046875,24.95
15:24:23.062500,20.20
15:24:23.078125,14.89
15:24:23.093750,9.00
15:24:23.109375,2.77
15:24:23.125000,-3.54
15:24:23.140625,-9.79
15:24:23.156250,-16.17
15:24:23.171875,-23.06
15:24:23.187500,-30.86
15:24:23.203125,-39.84
15:24:23.218750,-50.12
15:24:23.234375,-61.63
15:24:23.250000,-74.14
15:24:23.265625,-87.01
15:24:23.281250,-99.12
15:24:23.296875,-108.73
15:24:23.312500,-113.79
15:24:23.328125,-112.49
15:24:23.343750,-103.81
15:24:23.359375,-88.00
15:24:23.375000,-66.48
15:24:23.390625,-41.45
15:24:23.406250,-15.25
15:24:23.421875,10.19
15:24:23.437500,33.58
15:24:23.453125,54.23
15:24:23.468750,71.79
15:24:23.484375,86.03
15:24:23.500000,96.77
15:24:23.515625,103.95
15:24:23.531250,107.72
15:24:23.546875,108.54
15:24:23.562500,107.07
15:24:23.578125,104.11
15:24:23.593750,100.37
15:24:23.609375,96.42
15:24:23.625000,92.58
15:24:23.640625,89.02
15:24:23.656250,85.80
15:24:23.671875,82.97
15:24:23.687500,80.54
15:24:23.703125,78.56
15:24:23.718750,77.01
15:24:23.734375,75.76
15:24:23.750000,74.60
15:24:23.765625,73.24
15:24:23.781250,71.44
15:24:23.796875,69.06
15:24:23.812500,66.12
15:24:23.828125,62.75
15:24:23.843750,59.17
15:24:23.859375,55.51
15:24:23.875000,51.76
15:24:23.890625,47.84
15:24:23.906250,43.56
15:24:23.921875,38.86
15:24:23.937500,33.81
15:24:23.953125,28.68
15:24:23.968750,23.86
15:24:23.984375,19.69
15:24:24,16.37
15:24:24.015625,13.83
15:24:24.031250,11.86
15:24:24.046875,10.12
15:24:24.062500,8.29
15:24:24.078125,6.22
15:24:24.093750,3.92
15:24:24.109375,1.55
15:24:24.125000,-0.67
15:24:24.140625,-2.61
15:24:24.156250,-4.24
15:24:24.171875,-5.69
15:24:24.187500,-7.10
15:24:24.203125,-8.52
15:24:24.218750,-9.91
15:24:24.234375,-11.14
15:24:24.250000,-12.09
15:24:24.265625,-12.76
15:24:24.281250,-13.30
15:24:24.296875,-13.97
15:24:24.312500,-15.00
15:24:24.328125,-16.50
15:24:24.343750,-18.43
15:24:24.359375,-20.66
15:24:24.375000,-23.06
15:24:24.390625,-25.55
15:24:24.406250,-28.17
15:24:24.421875,-31.02
15:24:24.437500,-34.27
15:24:24.453125,-38.09
15:24:24.468750,-42.55
15:24:24.484375,-47.63
15:24:24.500000,-53.13
15:24:24.515625,-58.79
15:24:24.531250,-64.33
15:24:24.546875,-69.59
15:24:24.562500,-74.57
15:24:24.578125,-79.43
15:24:24.593750,-84.42
15:24:24.609375,-89.81
15:24:24.625000,-95.74
15:24:24.640625,-102.19
15:24:24.656250,-108.96
15:24:24.671875,-115.79
15:24:24.687500,-122.50
15:24:24.703125,-129.10
15:24:24.718750,-135.83
15:24:24.734375,-143.16
15:24:24.750000,-151.65
15:24:24.765625,-161.64
15:24:24.781250,-172.98
15:24:24.796875,-184.65
15:24:24.812500,-194.74
15:24:24.828125,-200.77
15:24:24.843750,-200.19
15:24:24.859375,-191.22
15:24:24.875000,-173.39
15:24:24.890625,-147.76
15:24:24.906250,-116.65
15:24:24.921875,-82.92
15:24:24.937500,-49.28
15:24:24.953125,-17.75
15:24:24.968750,10.53
15:24:24.984375,35.03
15:24:25,55.60
15:24:25.015625,72.21
15:24:25.031250,84.97
15:24:25.046875,94.21
15:24:25.062500,100.58
15:24:25.078125,105.06
15:24:25.093750,108.81
15:24:25.109375,112.75
15:24:25.125000,117.35
15:24:25.140625,122.43
15:24:25.156250,127.32
15:24:25.171875,131.13
15:24:25.187500,133.19
15:24:25.203125,133.30
15:24:25.218750,131.72
15:24:25.234375,128.99
15:24:25.250000,125.56
15:24:25.265625,121.64
15:24:25.281250,117.14
15:24:25.296875,111.88
15:24:25.312500,105.82
15:24:25.328125,99.21
15:24:25.343750,92.44
15:24:25.359375,85.91
15:24:25.375000,79.73
15:24:25.390625,73.74
15:24:25.406250,67.54
15:24:25.421875,60.71
15:24:25.437500,52.99
15:24:25.453125,44.37
15:24:25.468750,35.08
15:24:25.484375,25.44
15:24:25.500000,15.79
15:24:25.515625,6.31
15:24:25.531250,-2.98
15:24:25.546875,-12.26
15:24:25.562500,-21.84
15:24:25.578125,-32.13
15:24:25.593750,-43.51
15:24:25.609375,-56.18
15:24:25.625000,-70.00
15:24:25.640625,-84.32
15:24:25.656250,-97.97
15:24:25.671875,-109.34
15:24:25.687500,-116.71
15:24:25.703125,-118.65
15:24:25.718750,-114.40
15:24:25.734375,-104.14
15:24:25.750000,-88.90
15:24:25.765625,-70.33
15:24:25.781250,-50.21
15:24:25.796875,-30.11
15:24:25.812500,-11.04
15:24:25.828125,6.53
15:24:25.843750,22.48
15:24:25.859375,36.73
15:24:25.875000,49.07
15:24:25.890625,59.08
15:24:25.906250,66.30
15:24:25.921875,70.48
15:24:25.937500,71.78
15:24:25.953125,70.76
15:24:25.968750,68.20
15:24:25.984375,64.90
15:24:26,61.40
15:24:26.015625,58.01
15:24:26.031250,54.84
15:24:26.046875,51.95
15:24:26.062500,49.43
15:24:26.078125,47.40
15:24:26.093750,45.86
15:24:26.109375,44.66
15:24:26.125000,43.38
15:24:26.140625,41.55
15:24:26.156250,38.69
15:24:26.171875,34.60
15:24:26.187500,29.37
15:24:26.203125,23.38
15:24:26.218750,17.12
15:24:26.234375,10.85
15:24:26.250000,4.56
15:24:26.265625,-2.06
15:24:26.281250,-9.37
15:24:26.296875,-17.51
15:24:26.312500,-26.27
15:24:26.328125,-35.15
15:24:26.343750,-43.55
15:24:26.359375,-51.08
15:24:26.375000,-57.73
15:24:26.390625,-63.88
15:24:26.406250,-70.16
15:24:26.421875,-77.23
15:24:26.437500,-85.59
15:24:26.453125,-95.43
15:24:26.468750,-106.46
15:24:26.484375,-117.83
15:24:26.500000,-128.14
15:24:26.515625,-135.67
15:24:26.531250,-138.71
15:24:26.546875,-136.07
15:24:26.562500,-127.40
15:24:26.578125,-113.29
15:24:26.593750,-95.07
15:24:26.609375,-74.46
15:24:26.625000,-53.15
15:24:26.640625,-32.46
15:24:26.656250,-13.25
15:24:26.671875,4.08
15:24:26.687500,19.39
15:24:26.703125,32.62
15:24:26.718750,43.63
15:24:26.734375,52.11
15:24:26.750000,57.77
15:24:26.765625,60.50
15:24:26.781250,60.57
15:24:26.796875,58.62
15:24:26.812500,55.55
15:24:26.828125,52.23
15:24:26.843750,49.24
15:24:26.859375,46.73
15:24:26.875000,44.60
15:24:26.890625,42.65
15:24:26.906250,40.85
15:24:26.921875,39.30
15:24:26.937500,38.25
15:24:26.953125,37.82
15:24:26.968750,37.92
15:24:26.984375,38.24
15:24:27,38.40
15:24:27.015625,38.12
15:24:27.031250,37.41
15:24:27.046875,36.44
15:24:27.062500,35.47
15:24:27.078125,34.59
15:24:27.093750,33.58
15:24:27.109375,31.92
15:24:27.125000,28.97
15:24:27.140625,24.21
15:24:27.156250,17.43
15:24:27.171875,8.89
15:24:27.187500,-0.81
15:24:27.203125,-10.81
15:24:27.218750,-20.36
15:24:27.234375,-28.96
15:24:27.250000,-36.54
15:24:27.265625,-43.42
15:24:27.281250,-50.24
15:24:27.296875,-57.75
15:24:27.312500,-66.69
15:24:27.328125,-77.54
15:24:27.343750,-90.27
15:24:27.359375,-104.19
15:24:27.375000,-117.89
15:24:27.390625,-129.40
15:24:27.406250,-136.60
15:24:27.421875,-137.74
15:24:27.437500,-131.96
15:24:27.453125,-119.51
15:24:27.468750,-101.68
15:24:27.484375,-80.36
15:24:27.500000,-57.58
15:24:27.515625,-34.95
15:24:27.531250,-13.50
15:24:27.546875,6.33
15:24:27.562500,24.41
15:24:27.578125,40.67
15:24:27.593750,54.87
15:24:27.609375,66.56
15:24:27.625000,75.27
15:24:27.640625,80.70
15:24:27.656250,83.04
15:24:27.671875,82.88
15:24:27.687500,81.13
15:24:27.703125,78.72
15:24:27.718750,76.34
15:24:27.734375,74.31
15:24:27.750000,72.65
15:24:27.765625,71.30
15:24:27.781250,70.20
15:24:27.796875,69.36
15:24:27.812500,68.79
15:24:27.828125,68.35
15:24:27.843750,67.77
15:24:27.859375,66.67
15:24:27.875000,64.74
15:24:27.890625,61.84
15:24:27.906250,58.06
15:24:27.921875,53.63
15:24:27.937500,48.79
15:24:27.953125,43.69
15:24:27.968750,38.35
15:24:27.984375,32.69
15:24:28,26.61
15:24:28.015625,20.08
15:24:28.031250,13.11
15:24:28.046875,5.77
15:24:28.062500,-1.90
15:24:28.078125,-9.79
15:24:28.093750,-17.82
15:24:28.109375,-25.82
15:24:28.125000,-33.56
15:24:28.140625,-40.82
15:24:28.156250,-47.47
15:24:28.171875,-53.57
15:24:28.187500,-59.31
15:24:28.203125,-65.11
15:24:28.218750,-71.44
15:24:28.234375,-78.78
15:24:28.250000,-87.33
15:24:28.265625,-96.90
15:24:28.281250,-106.71
15:24:28.296875,-115.46
15:24:28.312500,-121.43
15:24:28.328125,-122.99
15:24:28.343750,-118.91
15:24:28.359375,-108.78
15:24:28.375000,-93.07
15:24:28.390625,-72.98
15:24:28.406250,-50.13
15:24:28.421875,-26.13
15:24:28.437500,-2.37
15:24:28.453125,20.19
15:24:28.468750,40.89
15:24:28.484375,59.24
15:24:28.500000,74.83
15:24:28.515625,87.30
15:24:28.531250,96.42
15:24:28.546875,102.20
15:24:28.562500,104.95
15:24:28.578125,105.26
15:24:28.593750,103.86
15:24:28.609375,101.45
15:24:28.625000,98.58
15:24:28.640625,95.62
15:24:28.656250,92.83
15:24:28.671875,90.42
15:24:28.687500,88.55
15:24:28.703125,87.30
15:24:28.718750,86.57
15:24:28.734375,86.07
15:24:28.750000,85.33
15:24:28.765625,83.90
15:24:28.781250,81.45
15:24:28.796875,77.85
15:24:28.812500,73.20
15:24:28.828125,67.71
15:24:28.843750,61.62
15:24:28.859375,55.08
15:24:28.875000,48.15
15:24:28.890625,40.81
15:24:28.906250,33.13
15:24:28.921875,25.23
15:24:28.937500,17.34
15:24:28.953125,9.68
15:24:28.968750,2.38
15:24:28.984375,-4.60
15:24:29,-11.46
15:24:29.015625,-18.41
15:24:29.031250,-25.61
15:24:29.046875,-33.05
15:24:29.062500,-40.61
15:24:29.078125,-48.11
15:24:29.093750,-55.38
15:24:29.109375,-62.38
15:24:29.125000,-69.15
15:24:29.140625,-75.83
15:24:29.156250,-82.62
15:24:29.171875,-89.82
15:24:29.187500,-97.72
15:24:29.203125,-106.51
15:24:29.218750,-116.06
15:24:29.234375,-125.75
15:24:29.250000,-134.42
15:24:29.265625,-140.56
15:24:29.281250,-142.63
15:24:29.296875,-139.39
15:24:29.312500,-130.22
15:24:29.328125,-115.24
15:24:29.343750,-95.22
15:24:29.359375,-71.46
15:24:29.375000,-45.48
15:24:29.390625,-18.78
15:24:29.406250,7.32
15:24:29.421875,31.87
15:24:29.437500,54.30
15:24:29.453125,74.41
15:24:29.468750,92.24
15:24:29.484375,107.91
15:24:29.500000,121.42
15:24:29.515625,132.37
15:24:29.531250,139.89
15:24:29.546875,142.65
15:24:29.562500,139.21
15:24:29.578125,128.47
15:24:29.593750,110.33
15:24:29.609375,86.02
15:24:29.625000,58.19
15:24:29.640625,30.44
15:24:29.656250,6.50
15:24:29.671875,-10.64
15:24:29.687500,-19.51
15:24:29.703125,-20.39
15:24:29.718750,-15.05
15:24:29.734375,-6.18
15:24:29.750000,3.43
15:24:29.765625,11.55
15:24:29.781250,16.89
15:24:29.796875,19.09
15:24:29.812500,18.52
15:24:29.828125,15.87
15:24:29.843750,11.82
15:24:29.859375,6.92
15:24:29.875000,1.67
15:24:29.890625,-3.34
15:24:29.906250,-7.31
15:24:29.921875,-9.34
15:24:29.937500,-8.62
15:24:29.953125,-4.84
15:24:29.968750,1.53
15:24:29.984375,9.26
15:24:30,16.61
15:24:30.015625,21.87
15:24:30.031250,23.88
15:24:30.046875,22.19
15:24:30.062500,17.10
15:24:30.078125,9.28
15:24:30.093750,-0.56
15:24:30.109375,-11.87
15:24:30.125000,-24.24
15:24:30.140625,-37.33
15:24:30.156250,-50.69
15:24:30.171875,-63.77
15:24:30.187500,-75.97
15:24:30.203125,-86.74
15:24:30.218750,-95.61
15:24:30.234375,-102.22
15:24:30.250000,-106.28
15:24:30.265625,-107.49
15:24:30.281250,-105.48
15:24:30.296875,-99.80
15:24:30.312500,-90.00
15:24:30.328125,-75.75
15:24:30.343750,-57.10
15:24:30.359375,-34.66
15:24:30.375000,-9.73
15:24:30.390625,15.79
15:24:30.406250,39.67
15:24:30.421875,59.73
15:24:30.437500,74.25
15:24:30.453125,82.30
15:24:30.468750,83.98
15:24:30.484375,80.39
15:24:30.500000,73.52
15:24:30.515625,65.85
15:24:30.531250,59.84
15:24:30.546875,57.35
15:24:30.562500,59.34
15:24:30.578125,65.76
15:24:30.593750,75.84
15:24:30.609375,88.49
15:24:30.625000,102.65
15:24:30.640625,117.43
15:24:30.656250,131.94
15:24:30.671875,145.12
15:24:30.687500,155.60
15:24:30.703125,161.85
15:24:30.718750,162.58
15:24:30.734375,157.20
15:24:30.750000,146.13
15:24:30.765625,130.69
15:24:30.781250,112.77
15:24:30.796875,94.21
15:24:30.812500,76.25
15:24:30.828125,59.37
15:24:30.843750,43.37
15:24:30.859375,27.91
15:24:30.875000,13.02
15:24:30.890625,-0.56
15:24:30.906250,-11.50
15:24:30.921875,-18.25
15:24:30.937500,-19.73
15:24:30.953125,-15.78
15:24:30.968750,-7.36
15:24:30.984375,3.78
15:24:31,15.47
15:24:31.015625,25.69
15:24:31.031250,32.90
15:24:31.046875,36.16
15:24:31.062500,34.93
15:24:31.078125,29.22
15:24:31.093750,19.47
15:24:31.109375,6.78
15:24:31.125000,-7.09
15:24:31.140625,-19.81
15:24:31.156250,-29.03
15:24:31.171875,-32.85
15:24:31.187500,-30.46
15:24:31.203125,-22.33
15:24:31.218750,-10.12
15:24:31.234375,3.76
15:24:31.250000,16.78
15:24:31.265625,26.81
15:24:31.281250,32.44
15:24:31.296875,33.07
15:24:31.312500,28.80
15:24:31.328125,20.31
15:24:31.343750,8.72
15:24:31.359375,-4.56
15:24:31.375000,-17.86
15:24:31.390625,-29.53
15:24:31.406250,-38.14
15:24:31.421875,-42.84
15:24:31.437500,-43.52
15:24:31.453125,-40.96
15:24:31.468750,-36.59
15:24:31.484375,-32.21
15:24:31.500000,-29.49
15:24:31.515625,-29.65
15:24:31.531250,-33.11
15:24:31.546875,-39.49
15:24:31.562500,-47.72
15:24:31.578125,-56.37
15:24:31.593750,-64.06
15:24:31.609375,-69.75
15:24:31.625000,-73.13
15:24:31.640625,-74.55
15:24:31.656250,-75.02
15:24:31.671875,-75.84
15:24:31.687500,-78.34
15:24:31.703125,-83.54
15:24:31.718750,-91.91
15:24:31.734375,-103.30
15:24:31.750000,-116.97
15:24:31.765625,-131.79
15:24:31.781250,-146.54
15:24:31.796875,-160.18
15:24:31.812500,-171.99
15:24:31.828125,-181.60
15:24:31.843750,-188.83
15:24:31.859375,-193.58
15:24:31.875000,-195.74
15:24:31.890625,-195.28
15:24:31.906250,-192.48
15:24:31.921875,-187.96
15:24:31.937500,-182.70
15:24:31.953125,-177.60
15:24:31.968750,-173.15
15:24:31.984375,-169.12
15:24:32,-164.52
15:24:32.015625,-158.01
15:24:32.031250,-148.35
15:24:32.046875,-134.98
15:24:32.062500,-118.28
15:24:32.078125,-99.62
15:24:32.093750,-81.02
15:24:32.109375,-64.72
15:24:32.125000,-52.68
15:24:32.140625,-46.20
15:24:32.156250,-45.67
15:24:32.171875,-50.52
15:24:32.187500,-59.23
15:24:32.203125,-69.43
15:24:32.218750,-78.06
15:24:32.234375,-81.74
15:24:32.250000,-77.44
15:24:32.265625,-63.28
15:24:32.281250,-39.20
15:24:32.296875,-7.32
15:24:32.312500,28.42
15:24:32.328125,63.24
15:24:32.343750,92.83
15:24:32.359375,114.44
15:24:32.375000,127.42
15:24:32.390625,133.00
15:24:32.406250,133.47
15:24:32.421875,131.26
15:24:32.437500,128.20
15:24:32.453125,125.25
15:24:32.468750,122.56
15:24:32.484375,119.89
15:24:32.500000,116.87
15:24:32.515625,113.24
15:24:32.531250,108.94
15:24:32.546875,104.12
15:24:32.562500,99.16
15:24:32.578125,94.61
15:24:32.593750,91.01
15:24:32.609375,88.61
15:24:32.625000,86.96
15:24:32.640625,84.82
15:24:32.656250,80.38
15:24:32.671875,72.11
15:24:32.687500,59.60
15:24:32.703125,44.31
15:24:32.718750,29.53
15:24:32.734375,19.38
15:24:32.750000,17.25
15:24:32.765625,24.22
15:24:32.781250,38.15
15:24:32.796875,53.97
15:24:32.812500,65.16
15:24:32.828125,65.89
15:24:32.843750,53.02
15:24:32.859375,27.30
15:24:32.875000,-6.88
15:24:32.890625,-42.88
15:24:32.906250,-73.86
15:24:32.921875,-94.73
15:24:32.937500,-103.14
15:24:32.953125,-99.63
15:24:32.968750,-86.69
15:24:32.984375,-67.80
15:24:33,-46.58
15:24:33.015625,-26.33
15:24:33.031250,-9.91
15:24:33.046875,0.57
15:24:33.062500,3.99
15:24:33.078125,0.77
15:24:33.093750,-7.17
15:24:33.109375,-16.70
15:24:33.125000,-24.55
15:24:33.140625,-28.26
15:24:33.156250,-27.01
15:24:33.171875,-21.76
15:24:33.187500,-14.61
15:24:33.203125,-7.91
15:24:33.218750,-3.36
15:24:33.234375,-1.52
15:24:33.250000,-1.89
15:24:33.265625,-3.46
15:24:33.281250,-5.38
15:24:33.296875,-7.44
15:24:33.312500,-10.22
15:24:33.328125,-14.75
15:24:33.343750,-21.91
15:24:33.359375,-31.69
15:24:33.375000,-42.79
15:24:33.390625,-52.78
15:24:33.406250,-58.79
15:24:33.421875,-58.60
15:24:33.437500,-51.51
15:24:33.453125,-38.72
15:24:33.468750,-22.90
15:24:33.484375,-7.38
15:24:33.500000,5.06
15:24:33.515625,12.86
15:24:33.531250,15.90
15:24:33.546875,15.01
15:24:33.562500,11.31
15:24:33.578125,5.60
15:24:33.593750,-2.08
15:24:33.609375,-12.33
15:24:33.625000,-26.18
15:24:33.640625,-44.50
15:24:33.656250,-67.53
15:24:33.671875,-94.45
15:24:33.687500,-123.10
15:24:33.703125,-150.24
15:24:33.718750,-172.09
15:24:33.734375,-185.11
15:24:33.750000,-186.86
15:24:33.765625,-176.65
15:24:33.781250,-155.61
15:24:33.796875,-126.32
15:24:33.812500,-91.99
15:24:33.828125,-55.61
15:24:33.843750,-19.23
15:24:33.859375,16.30
15:24:33.875000,50.98
15:24:33.890625,85.01
15:24:33.906250,118.13
15:24:33.921875,149.23
15:24:33.937500,176.57
15:24:33.953125,198.33
15:24:33.968750,213.38
15:24:33.984375,221.60
15:24:34,223.90
15:24:34.015625,221.80
15:24:34.031250,216.87
15:24:34.046875,210.30
15:24:34.062500,202.85
15:24:34.078125,194.91
15:24:34.093750,186.80
15:24:34.109375,178.80
15:24:34.125000,171.17
15:24:34.140625,164.01
15:24:34.156250,157.34
15:24:34.171875,151.16
15:24:34.187500,145.62
15:24:34.203125,141.13
15:24:34.218750,138.27
15:24:34.234375,137.59
15:24:34.250000,139.38
15:24:34.265625,143.34
15:24:34.281250,148.53
15:24:34.296875,153.45
15:24:34.312500,156.38
15:24:34.328125,155.80
15:24:34.343750,150.85
15:24:34.359375,141.60
15:24:34.375000,129.00
15:24:34.390625,114.58
15:24:34.406250,99.91
15:24:34.421875,86.12
15:24:34.437500,73.53
15:24:34.453125,61.69
15:24:34.468750,49.60
15:24:34.484375,36.22
15:24:34.500000,20.77
15:24:34.515625,3.03
15:24:34.531250,-16.61
15:24:34.546875,-37.08
15:24:34.562500,-56.88
15:24:34.578125,-74.36
15:24:34.593750,-88.05
15:24:34.609375,-97.12
15:24:34.625000,-101.56
15:24:34.640625,-102.17
15:24:34.656250,-100.15
15:24:34.671875,-96.65
15:24:34.687500,-92.32
15:24:34.703125,-87.28
15:24:34.718750,-81.31
15:24:34.734375,-74.23
15:24:34.750000,-66.26
15:24:34.765625,-58.04
15:24:34.781250,-50.45
15:24:34.796875,-44.21
15:24:34.812500,-39.52
15:24:34.828125,-36.02
15:24:34.843750,-32.90
15:24:34.859375,-29.31
15:24:34.875000,-24.70
15:24:34.890625,-19.01
15:24:34.906250,-12.65
15:24:34.921875,-6.20
15:24:34.937500,-0.18
15:24:34.953125,5.22
15:24:34.968750,9.99
15:24:34.984375,14.00
15:24:35,16.78
15:24:35.015625,17.41
15:24:35.031250,14.77
15:24:35.046875,8.06
15:24:35.062500,-2.56
15:24:35.078125,-15.68
15:24:35.093750,-28.81
15:24:35.109375,-39.10
15:24:35.125000,-44.28
15:24:35.140625,-43.51
15:24:35.156250,-37.64
15:24:35.171875,-28.82
15:24:35.187500,-19.71
15:24:35.203125,-12.64
15:24:35.218750,-9.05
15:24:35.234375,-9.24
15:24:35.250000,-12.64
15:24:35.265625,-18.15
15:24:35.281250,-24.51
15:24:35.296875,-30.68
15:24:35.312500,-36.02
15:24:35.328125,-40.39
15:24:35.343750,-44.11
15:24:35.359375,-47.69
15:24:35.375000,-51.33
15:24:35.390625,-54.64
15:24:35.406250,-56.30
15:24:35.421875,-54.26
15:24:35.437500,-46.38
15:24:35.453125,-31.62
15:24:35.468750,-11.15
15:24:35.484375,11.30
15:24:35.500000,30.57
15:24:35.515625,42.41
15:24:35.531250,45.60
15:24:35.546875,42.77
15:24:35.562500,39.02
15:24:35.578125,39.28
15:24:35.593750,45.69
15:24:35.609375,56.81
15:24:35.625000,68.81
15:24:35.640625,77.98
15:24:35.656250,82.88
15:24:35.671875,84.82
15:24:35.687500,86.56
15:24:35.703125,90.34
15:24:35.718750,96.56
15:24:35.734375,103.85
15:24:35.750000,110.40
15:24:35.765625,115.29
15:24:35.781250,118.92
15:24:35.796875,122.50
15:24:35.812500,127.00
15:24:35.828125,132.44
15:24:35.843750,137.78
15:24:35.859375,141.38
15:24:35.875000,141.99
15:24:35.890625,139.34
15:24:35.906250,134.47
15:24:35.921875,129.16
15:24:35.937500,125.24
15:24:35.953125,123.74
15:24:35.968750,124.72
15:24:35.984375,127.37
15:24:36,130.46
15:24:36.015625,132.73
15:24:36.031250,133.15
15:24:36.046875,130.92
15:24:36.062500,125.38
15:24:36.078125,116.08
15:24:36.093750,102.96
15:24:36.109375,86.51
15:24:36.125000,67.88
15:24:36.140625,48.76
15:24:36.156250,30.99
15:24:36.171875,16.18
15:24:36.187500,5.24
15:24:36.203125,-1.88
15:24:36.218750,-6.12
15:24:36.234375,-9.12
15:24:36.250000,-12.71
15:24:36.265625,-18.36
15:24:36.281250,-26.75
15:24:36.296875,-37.58
15:24:36.312500,-49.62
15:24:36.328125,-61.23
15:24:36.343750,-70.88
15:24:36.359375,-77.58
15:24:36.375000,-81.08
15:24:36.390625,-81.83
15:24:36.406250,-80.61
15:24:36.421875,-78.34
15:24:36.437500,-75.87
15:24:36.453125,-73.96
15:24:36.468750,-73.33
15:24:36.484375,-74.68
15:24:36.500000,-78.59
15:24:36.515625,-85.32
15:24:36.531250,-94.60
15:24:36.546875,-105.60
15:24:36.562500,-116.89
15:24:36.578125,-126.83
15:24:36.593750,-133.81
15:24:36.609375,-136.62
15:24:36.625000,-134.76
15:24:36.640625,-128.53
15:24:36.656250,-118.94
15:24:36.671875,-107.50
15:24:36.687500,-95.84
15:24:36.703125,-85.38
15:24:36.718750,-77.07
15:24:36.734375,-71.48
15:24:36.750000,-68.99
15:24:36.765625,-70.03
15:24:36.781250,-75.11
15:24:36.796875,-84.57
15:24:36.812500,-98.32
15:24:36.828125,-115.43
15:24:36.843750,-134.07
15:24:36.859375,-151.74
15:24:36.875000,-165.59
15:24:36.890625,-173.03
15:24:36.906250,-172.21
15:24:36.921875,-162.52
15:24:36.937500,-144.97
15:24:36.953125,-122.08
15:24:36.968750,-97.47
15:24:36.984375,-75.02
15:24:37,-57.84
15:24:37.015625,-47.57
15:24:37.031250,-44.12
15:24:37.046875,-45.97
15:24:37.062500,-50.85
15:24:37.078125,-56.23
15:24:37.093750,-59.74
15:24:37.109375,-59.29
15:24:37.125000,-53.17
15:24:37.140625,-40.35
15:24:37.156250,-20.74
15:24:37.171875,4.53
15:24:37.187500,33.27
15:24:37.203125,62.62
15:24:37.218750,89.73
15:24:37.234375,112.29
15:24:37.250000,128.96
15:24:37.265625,139.36
15:24:37.281250,144.01
15:24:37.296875,144.12
15:24:37.312500,141.40
15:24:37.328125,137.93
15:24:37.343750,135.76
15:24:37.359375,136.36
15:24:37.375000,140.11
15:24:37.390625,146.11
15:24:37.406250,152.50
15:24:37.421875,157.36
15:24:37.437500,159.68
15:24:37.453125,160.11
15:24:37.468750,160.75
15:24:37.484375,164.37
15:24:37.500000,172.93
15:24:37.515625,186.42
15:24:37.531250,202.44
15:24:37.546875,216.72
15:24:37.562500,224.80
15:24:37.578125,223.60
15:24:37.593750,212.73
15:24:37.609375,194.48
15:24:37.625000,172.81
15:24:37.640625,151.64
15:24:37.656250,133.26
15:24:37.671875,117.74
15:24:37.687500,103.39
15:24:37.703125,87.95
15:24:37.718750,69.82
15:24:37.734375,48.55
15:24:37.750000,24.73
15:24:37.765625,-0.70
15:24:37.781250,-26.78
15:24:37.796875,-52.54
15:24:37.812500,-76.84
15:24:37.828125,-98.03
15:24:37.843750,-114.18
15:24:37.859375,-123.67
15:24:37.875000,-125.79
15:24:37.890625,-121.21
15:24:37.906250,-111.82
15:24:37.921875,-100.24
15:24:37.937500,-89.11
15:24:37.953125,-80.42
15:24:37.968750,-75.15
15:24:37.984375,-73.16
15:24:38,-73.47
15:24:38.015625,-74.72
15:24:38.031250,-75.64
15:24:38.046875,-75.52
15:24:38.062500,-74.33
15:24:38.078125,-72.52
15:24:38.093750,-70.63
15:24:38.109375,-68.92
15:24:38.125000,-67.26
15:24:38.140625,-65.22
15:24:38.156250,-62.37
15:24:38.171875,-58.55
15:24:38.187500,-54.04
15:24:38.203125,-49.37
15:24:38.218750,-45.21
15:24:38.234375,-42.13
15:24:38.250000,-40.48
15:24:38.265625,-40.38
15:24:38.281250,-41.80
15:24:38.296875,-44.44
15:24:38.312500,-47.89
15:24:38.328125,-51.67
15:24:38.343750,-55.39
15:24:38.359375,-58.82
15:24:38.375000,-61.94
15:24:38.390625,-64.84
15:24:38.406250,-67.67
15:24:38.421875,-70.55
15:24:38.437500,-73.66
15:24:38.453125,-77.35
15:24:38.468750,-82.10
15:24:38.484375,-88.35
15:24:38.500000,-96.13
15:24:38.515625,-104.76
15:24:38.531250,-112.83
15:24:38.546875,-118.45
15:24:38.562500,-119.93
15:24:38.578125,-116.31
15:24:38.593750,-107.73
15:24:38.609375,-95.28
15:24:38.625000,-80.52
15:24:38.640625,-64.92
15:24:38.656250,-49.44
15:24:38.671875,-34.44
15:24:38.687500,-20.01
15:24:38.703125,-6.26
15:24:38.718750,6.30
15:24:38.734375,16.77
15:24:38.750000,24.21
15:24:38.765625,28.04
15:24:38.781250,28.37
15:24:38.796875,26.08
15:24:38.812500,22.45
15:24:38.828125,18.72
15:24:38.843750,15.58
15:24:38.859375,13.07
15:24:38.875000,10.76
15:24:38.890625,8.11
15:24:38.906250,4.76
15:24:38.921875,0.59
15:24:38.937500,-4.43
15:24:38.953125,-10.46
15:24:38.968750,-17.60
15:24:38.984375,-25.74
15:24:39,-34.24
15:24:39.015625,-42.09
15:24:39.031250,-48.38
15:24:39.046875,-52.84
15:24:39.062500,-56.23
15:24:39.078125,-60.00
15:24:39.093750,-65.65
15:24:39.109375,-73.77
15:24:39.125000,-83.94
15:24:39.140625,-95.14
15:24:39.156250,-106.67
15:24:39.171875,-118.84
15:24:39.187500,-133.06
15:24:39.203125,-150.98
15:24:39.218750,-173.68
15:24:39.234375,-200.82
15:24:39.250000,-230.55
15:24:39.265625,-259.83
15:24:39.281250,-284.93
15:24:39.296875,-302.21
15:24:39.312500,-308.66
15:24:39.328125,-302.58
15:24:39.343750,-284.07
15:24:39.359375,-255.05
15:24:39.375000,-218.82
15:24:39.390625,-178.86
15:24:39.406250,-137.89
15:24:39.421875,-97.38
15:24:39.437500,-57.93
15:24:39.453125,-20.10
15:24:39.468750,15.02
15:24:39.484375,46.12
15:24:39.500000,72.59
15:24:39.515625,95.30
15:24:39.531250,116.61
15:24:39.546875,139.32
15:24:39.562500,165.24
15:24:39.578125,194.21
15:24:39.593750,224.19
15:24:39.609375,252.34
15:24:39.625000,276.21
15:24:39.640625,294.59
15:24:39.656250,307.36
15:24:39.671875,314.85
15:24:39.687500,317.13
15:24:39.703125,313.73
15:24:39.718750,303.90
15:24:39.734375,287.25
15:24:39.750000,264.09
15:24:39.765625,235.56
15:24:39.781250,203.38
15:24:39.796875,169.34
15:24:39.812500,134.98
15:24:39.828125,101.27
15:24:39.843750,68.74
15:24:39.859375,37.71
15:24:39.875000,8.65
15:24:39.890625,-17.65
15:24:39.906250,-40.25
15:24:39.921875,-58.45
15:24:39.937500,-72.75
15:24:39.953125,-85.14
15:24:39.968750,-99.09
15:24:39.984375,-118.27
15:24:40,-144.34
15:24:40.015625,-175.01
15:24:40.031250,-203.70
15:24:40.046875,-221.79
15:24:40.062500,-222.54
15:24:40.078125,-204.64
15:24:40.093750,-173.14
15:24:40.109375,-136.85
15:24:40.125000,-103.40
15:24:40.140625,-75.15
15:24:40.156250,-48.08
15:24:40.171875,-14.92
15:24:40.187500,29.67
15:24:40.203125,84.87
15:24:40.218750,143.15
15:24:40.234375,193.58
15:24:40.250000,227.01
15:24:40.265625,239.96
15:24:40.281250,235.17
15:24:40.296875,219.19
15:24:40.312500,198.76
15:24:40.328125,177.99
15:24:40.343750,157.85
15:24:40.359375,137.50
15:24:40.375000,116.21
15:24:40.390625,94.68
15:24:40.406250,74.99
15:24:40.421875,59.66
15:24:40.437500,49.99
15:24:40.453125,45.36
15:24:40.468750,43.43
15:24:40.484375,41.21
15:24:40.500000,36.38
15:24:40.515625,28.16
15:24:40.531250,17.38
15:24:40.546875,5.95
15:24:40.562500,-4.10
15:24:40.578125,-11.39
15:24:40.593750,-15.61
15:24:40.609375,-17.66
15:24:40.625000,-19.25
15:24:40.640625,-22.34
15:24:40.656250,-28.51
15:24:40.671875,-38.56
15:24:40.687500,-52.26
15:24:40.703125,-68.74
15:24:40.718750,-86.80
15:24:40.734375,-105.23
15:24:40.750000,-122.75
15:24:40.765625,-138.00
15:24:40.781250,-149.39
15:24:40.796875,-155.39
15:24:40.812500,-155.02
15:24:40.828125,-148.54
15:24:40.843750,-137.66
15:24:40.859375,-124.98
15:24:40.875000,-112.64
15:24:40.890625,-101.08
15:24:40.906250,-88.73
15:24:40.921875,-72.80
15:24:40.937500,-50.93
15:24:40.953125,-22.81
15:24:40.968750,9.32
15:24:40.984375,41.59
15:24:41,70.05
15:24:41.015625,92.05
15:24:41.031250,106.63
15:24:41.046875,113.96
15:24:41.062500,114.45
15:24:41.078125,108.46
15:24:41.093750,96.86
15:24:41.109375,81.88
15:24:41.125000,67.33
15:24:41.140625,57.67
15:24:41.156250,56.26
15:24:41.171875,63.73
15:24:41.187500,77.67
15:24:41.203125,93.55
15:24:41.218750,106.67
15:24:41.234375,113.84
15:24:41.250000,114.23
15:24:41.265625,108.91
15:24:41.281250,99.84
15:24:41.296875,88.71
15:24:41.312500,76.48
15:24:41.328125,63.68
15:24:41.343750,50.91
15:24:41.359375,39.37
15:24:41.375000,30.81
15:24:41.390625,27.17
15:24:41.406250,29.75
15:24:41.421875,38.53
15:24:41.437500,51.75
15:24:41.453125,66.27
15:24:41.468750,78.28
15:24:41.484375,84.51
15:24:41.500000,83.23
15:24:41.515625,74.52
15:24:41.531250,59.94
15:24:41.546875,41.70
15:24:41.562500,21.86
15:24:41.578125,1.97
15:24:41.593750,-16.87
15:24:41.609375,-33.85
15:24:41.625000,-48.65
15:24:41.640625,-61.87
15:24:41.656250,-75.38
15:24:41.671875,-92.08
15:24:41.687500,-115.08
15:24:41.703125,-145.99
15:24:41.718750,-183.58
15:24:41.734375,-223.20
15:24:41.750000,-257.54
15:24:41.765625,-278.59
15:24:41.781250,-280.33
15:24:41.796875,-261.23
15:24:41.812500,-225.54
15:24:41.828125,-182.14
15:24:41.843750,-141.65
15:24:41.859375,-112.44
15:24:41.875000,-97.59
15:24:41.890625,-94.22
15:24:41.906250,-95.58
15:24:41.921875,-94.75
15:24:41.937500,-88.08
15:24:41.953125,-76.21
15:24:41.968750,-62.68
15:24:41.984375,-51.11
15:24:42,-43.07
15:24:42.015625,-37.63
15:24:42.031250,-32.83
15:24:42.046875,-27.58
15:24:42.062500,-22.77
15:24:42.078125,-20.66
15:24:42.093750,-23.44
15:24:42.109375,-31.68
15:24:42.125000,-44.04
15:24:42.140625,-57.99
15:24:42.156250,-70.91
15:24:42.171875,-81.25
15:24:42.187500,-89.03
15:24:42.203125,-95.57
15:24:42.218750,-102.95
15:24:42.234375,-113.28
15:24:42.250000,-128.07
15:24:42.265625,-147.72
15:24:42.281250,-171.24
15:24:42.296875,-196.17
15:24:42.312500,-219.22
15:24:42.328125,-237.15
15:24:42.343750,-247.80
15:24:42.359375,-250.72
15:24:42.375000,-246.98
15:24:42.390625,-238.48
15:24:42.406250,-226.96
15:24:42.421875,-213.45
15:24:42.437500,-198.42
15:24:42.453125,-182.28
15:24:42.468750,-165.87
15:24:42.484375,-150.11
15:24:42.500000,-135.64
15:24:42.515625,-122.18
15:24:42.531250,-108.66
15:24:42.546875,-93.90
15:24:42.562500,-77.59
15:24:42.578125,-60.67
15:24:42.593750,-44.88
15:24:42.609375,-31.78
15:24:42.625000,-21.78
15:24:42.640625,-14.05
15:24:42.656250,-7.24
15:24:42.671875,-0.36
15:24:42.687500,6.60
15:24:42.703125,12.97
15:24:42.718750,18.15
15:24:42.734375,22.41
15:24:42.750000,26.93
15:24:42.765625,33.27
15:24:42.781250,42.39
15:24:42.796875,54.17
15:24:42.812500,67.43
15:24:42.828125,80.51
15:24:42.843750,92.10
15:24:42.859375,101.60
15:24:42.875000,109.08
15:24:42.890625,114.98
15:24:42.906250,119.60
15:24:42.921875,122.95
15:24:42.937500,124.86
15:24:42.953125,125.20
15:24:42.968750,124.14
15:24:42.984375,122.06
15:24:43,119.40
15:24:43.015625,116.14
15:24:43.031250,111.61
15:24:43.046875,104.54
15:24:43.062500,93.65
15:24:43.078125,78.43
15:24:43.093750,59.79
15:24:43.109375,40.22
15:24:43.125000,23.13
15:24:43.140625,11.87
15:24:43.156250,8.71
15:24:43.171875,14.24
15:24:43.187500,27.56
15:24:43.203125,46.73
15:24:43.218750,69.55
15:24:43.234375,93.96
15:24:43.250000,118.33
15:24:43.265625,141.34
15:24:43.281250,161.98
15:24:43.296875,179.49
15:24:43.312500,193.34
15:24:43.328125,203.31
15:24:43.343750,209.39
15:24:43.359375,211.90
15:24:43.375000,211.45
15:24:43.390625,208.97
15:24:43.406250,205.61
15:24:43.421875,202.48
15:24:43.437500,200.49
15:24:43.453125,200.14
15:24:43.468750,201.55
15:24:43.484375,204.64
15:24:43.500000,209.29
15:24:43.515625,215.36
15:24:43.531250,222.55
15:24:43.546875,230.26
15:24:43.562500,237.59
15:24:43.578125,243.45
15:24:43.593750,246.78
15:24:43.609375,246.83
15:24:43.625000,243.22
15:24:43.640625,236.00
15:24:43.656250,225.53
15:24:43.671875,212.36
15:24:43.687500,197.25
15:24:43.703125,181.07
15:24:43.718750,164.75
15:24:43.734375,149.06
15:24:43.750000,134.50
15:24:43.765625,121.07
15:24:43.781250,108.29
15:24:43.796875,95.37
15:24:43.812500,81.46
15:24:43.828125,65.91
15:24:43.843750,48.38
15:24:43.859375,28.96
15:24:43.875000,8.10
15:24:43.890625,-13.28
15:24:43.906250,-33.77
15:24:43.921875,-51.60
15:24:43.937500,-64.83
15:24:43.953125,-71.71
15:24:43.968750,-71.23
15:24:43.984375,-63.41
15:24:44,-49.33
15:24:44.015625,-30.75
15:24:44.031250,-9.69
15:24:44.046875,12.15
15:24:44.062500,33.59
15:24:44.078125,53.91
15:24:44.093750,72.58
15:24:44.109375,89.00
15:24:44.125000,102.35
15:24:44.140625,111.82
15:24:44.156250,116.84
15:24:44.171875,117.40
15:24:44.187500,114.23
15:24:44.203125,108.57
15:24:44.218750,101.81
15:24:44.234375,95.06
15:24:44.250000,88.84
15:24:44.265625,83.05
15:24:44.281250,77.28
15:24:44.296875,71.11
15:24:44.312500,64.54
15:24:44.328125,58.03
15:24:44.343750,52.33
15:24:44.359375,48.04
15:24:44.375000,45.25
15:24:44.390625,43.38
15:24:44.406250,41.29
15:24:44.421875,37.74
15:24:44.437500,31.88
15:24:44.453125,23.49
15:24:44.468750,13.10
15:24:44.484375,1.66
15:24:44.500000,-9.97
15:24:44.515625,-21.25
15:24:44.531250,-32.13
15:24:44.546875,-42.89
15:24:44.562500,-53.72
15:24:44.578125,-64.50
15:24:44.593750,-74.70
15:24:44.609375,-83.66
15:24:44.625000,-90.86
15:24:44.640625,-96.28
15:24:44.656250,-100.37
15:24:44.671875,-103.99
15:24:44.687500,-108.06
15:24:44.703125,-113.27
15:24:44.718750,-120.05
15:24:44.734375,-128.42
15:24:44.750000,-138.02
15:24:44.765625,-148.04
15:24:44.781250,-157.13
15:24:44.796875,-163.53
15:24:44.812500,-165.47
15:24:44.828125,-161.67
15:24:44.843750,-151.81
15:24:44.859375,-136.73
15:24:44.875000,-118.11
15:24:44.890625,-97.99
15:24:44.906250,-78.06
15:24:44.921875,-59.39
15:24:44.937500,-42.41
15:24:44.953125,-27.15
15:24:44.968750,-13.64
15:24:44.984375,-2.06
15:24:45,7.16
15:24:45.015625,13.54
15:24:45.031250,16.67
15:24:45.046875,16.36
15:24:45.062500,12.83
15:24:45.078125,6.76
15:24:45.093750,-0.76
15:24:45.109375,-8.43
15:24:45.125000,-14.97
15:24:45.140625,-19.45
15:24:45.156250,-21.35
15:24:45.171875,-20.66
15:24:45.187500,-17.64
15:24:45.203125,-12.75
15:24:45.218750,-6.53
15:24:45.234375,0.42
15:24:45.250000,7.42
15:24:45.265625,13.85
15:24:45.281250,19.16
15:24:45.296875,23.08
15:24:45.312500,25.68
15:24:45.328125,27.25
15:24:45.343750,28.18
15:24:45.359375,28.72
15:24:45.375000,28.96
15:24:45.390625,28.77
15:24:45.406250,28.03
15:24:45.421875,26.74
15:24:45.437500,25.06
15:24:45.453125,23.28
15:24:45.468750,21.67
15:24:45.484375,20.42
15:24:45.500000,19.53
15:24:45.515625,18.87
15:24:45.531250,18.25
15:24:45.546875,17.49
15:24:45.562500,16.45
15:24:45.578125,15.05
15:24:45.593750,13.25
15:24:45.609375,11.05
15:24:45.625000,8.55
15:24:45.640625,5.91
15:24:45.656250,3.35
15:24:45.671875,1.09
15:24:45.687500,-0.70
15:24:45.703125,-1.96
15:24:45.718750,-2.75
15:24:45.734375,-3.21
15:24:45.750000,-3.50
15:24:45.765625,-3.81
15:24:45.781250,-4.24
15:24:45.796875,-4.86
15:24:45.812500,-5.61
15:24:45.828125,-6.41
15:24:45.843750,-7.16
15:24:45.859375,-7.78
15:24:45.875000,-8.24
15:24:45.890625,-8.58
15:24:45.906250,-8.84
15:24:45.921875,-9.13
15:24:45.937500,-9.54
15:24:45.953125,-10.28
15:24:45.968750,-11.59
15:24:45.984375,-13.64
15:24:46,-16.50
15:24:46.015625,-20.00
15:24:46.031250,-23.77
15:24:46.046875,-27.45
15:24:46.062500,-30.79
15:24:46.078125,-33.89
15:24:46.093750,-37.11
15:24:46.109375,-40.88
15:24:46.125000,-45.49
15:24:46.140625,-50.89
15:24:46.156250,-56.72
15:24:46.171875,-62.47
15:24:46.187500,-67.68
15:24:46.203125,-72.16
15:24:46.218750,-75.93
15:24:46.234375,-79.22
15:24:46.250000,-82.38
15:24:46.265625,-85.87
15:24:46.281250,-90.20
15:24:46.296875,-95.70
15:24:46.312500,-102.26
15:24:46.328125,-109.07
15:24:46.343750,-114.54
15:24:46.359375,-116.75
15:24:46.375000,-113.94
15:24:46.390625,-105.30
15:24:46.406250,-91.20
15:24:46.421875,-73.09
15:24:46.437500,-52.92
15:24:46.453125,-32.53
15:24:46.468750,-13.21
15:24:46.484375,4.38
15:24:46.500000,19.91
15:24:46.515625,33.06
15:24:46.531250,43.47
15:24:46.546875,50.70
15:24:46.562500,54.60
15:24:46.578125,55.44
15:24:46.593750,53.95
15:24:46.609375,51.12
15:24:46.625000,47.83
15:24:46.640625,44.65
15:24:46.656250,41.70
15:24:46.671875,38.82
15:24:46.687500,35.83
15:24:46.703125,32.75
15:24:46.718750,29.90
15:24:46.734375,27.68
15:24:46.750000,26.42
15:24:46.765625,25.97
15:24:46.781250,25.81
15:24:46.796875,25.13
15:24:46.812500,23.22
15:24:46.828125,19.82
15:24:46.843750,15.24
15:24:46.859375,10.17
15:24:46.875000,5.39
15:24:46.890625,1.38
15:24:46.906250,-1.89
15:24:46.921875,-4.96
15:24:46.937500,-8.54
15:24:46.953125,-13.11
15:24:46.968750,-18.69
15:24:46.984375,-24.80
15:24:47,-30.61
15:24:47.015625,-35.39
15:24:47.031250,-38.82
15:24:47.046875,-41.23
15:24:47.062500,-43.52
15:24:47.078125,-46.90
15:24:47.093750,-52.42
15:24:47.109375,-60.49
15:24:47.125000,-70.60
15:24:47.140625,-81.22
15:24:47.156250,-90.13
15:24:47.171875,-95.04
15:24:47.187500,-94.27
15:24:47.203125,-87.32
15:24:47.218750,-75.03
15:24:47.234375,-59.30
15:24:47.250000,-42.26
15:24:47.265625,-25.65
15:24:47.281250,-10.01
15:24:47.296875,5.58
15:24:47.312500,23.09
15:24:47.328125,44.74
15:24:47.343750,71.72
15:24:47.359375,103.01
15:24:47.375000,135.16
15:24:47.390625,163.02
15:24:47.406250,181.48
15:24:47.421875,187.38
15:24:47.437500,180.71
15:24:47.453125,164.68
15:24:47.468750,144.40
15:24:47.484375,125.16
15:24:47.500000,110.68
15:24:47.515625,102.28
15:24:47.531250,98.63
15:24:47.546875,96.50
15:24:47.562500,91.72
15:24:47.578125,80.68
15:24:47.593750,61.57
15:24:47.609375,35.31
15:24:47.625000,5.45
15:24:47.640625,-22.96
15:24:47.656250,-45.15
15:24:47.671875,-57.96
15:24:47.687500,-60.35
15:24:47.703125,-52.93
15:24:47.718750,-37.31
15:24:47.734375,-15.78
15:24:47.750000,8.64
15:24:47.765625,32.27
15:24:47.781250,51.43
15:24:47.796875,63.91
15:24:47.812500,70.09
15:24:47.828125,72.95
15:24:47.843750,76.76
15:24:47.859375,84.76
15:24:47.875000,97.47
15:24:47.890625,112.27
15:24:47.906250,124.70
15:24:47.921875,130.26
15:24:47.937500,126.02
15:24:47.953125,111.25
15:24:47.968750,86.94
15:24:47.984375,55.19
15:24:48,18.51
15:24:48.015625,-20.57
15:24:48.031250,-59.95
15:24:48.046875,-98.38
15:24:48.062500,-135.91
15:24:48.078125,-173.97
15:24:48.093750,-214.83
15:24:48.109375,-260.59
15:24:48.125000,-311.80
15:24:48.140625,-366.32
15:24:48.156250,-419.30
15:24:48.171875,-464.29
15:24:48.187500,-495.33
15:24:48.203125,-508.99
15:24:48.218750,-505.61
15:24:48.234375,-489.02
15:24:48.250000,-464.78
15:24:48.265625,-437.84
15:24:48.281250,-410.80
15:24:48.296875,-383.59
15:24:48.312500,-354.53
15:24:48.328125,-321.98
15:24:48.343750,-285.67
15:24:48.359375,-246.86
15:24:48.375000,-207.63
15:24:48.390625,-169.70
15:24:48.406250,-133.64
15:24:48.421875,-98.86
15:24:48.437500,-64.09
15:24:48.453125,-28.03
15:24:48.468750,10.11
15:24:48.484375,50.31
15:24:48.500000,91.49
15:24:48.515625,131.39
15:24:48.531250,166.75
15:24:48.546875,193.78
15:24:48.562500,209.23
15:24:48.578125,211.46
15:24:48.593750,201.29
15:24:48.609375,181.80
15:24:48.625000,157.32
15:24:48.640625,132.02
15:24:48.656250,108.72
15:24:48.671875,88.54
15:24:48.687500,71.40
15:24:48.703125,56.75
15:24:48.718750,44.11
15:24:48.734375,33.07
15:24:48.750000,22.90
15:24:48.765625,12.30
15:24:48.781250,-0.30
15:24:48.796875,-16.17
15:24:48.812500,-35.37
15:24:48.828125,-56.47
15:24:48.843750,-76.65
15:24:48.859375,-92.69
15:24:48.875000,-101.99
15:24:48.890625,-103.43
15:24:48.906250,-97.58
15:24:48.921875,-86.20
15:24:48.937500,-71.40
15:24:48.953125,-54.87
15:24:48.968750,-37.40
15:24:48.984375,-19.06
15:24:49,0.36
15:24:49.015625,20.87
15:24:49.031250,41.91
15:24:49.046875,62.34
15:24:49.062500,80.76
15:24:49.078125,95.83
15:24:49.093750,106.75
15:24:49.109375,113.43
15:24:49.125000,116.48
15:24:49.140625,117.06
15:24:49.156250,116.47
15:24:49.171875,115.83
15:24:49.187500,115.75
15:24:49.203125,116.47
15:24:49.218750,117.83
15:24:49.234375,119.68
15:24:49.250000,121.87
15:24:49.265625,124.41
15:24:49.281250,127.26
15:24:49.296875,130.19
15:24:49.312500,132.81
15:24:49.328125,134.58
15:24:49.343750,134.99
15:24:49.359375,133.72
15:24:49.375000,130.78
15:24:49.390625,126.45
15:24:49.406250,121.27
15:24:49.421875,115.79
15:24:49.437500,110.52
15:24:49.453125,105.73
15:24:49.468750,101.46
15:24:49.484375,97.52
15:24:49.500000,93.65
15:24:49.515625,89.60
15:24:49.531250,85.28
15:24:49.546875,80.80
15:24:49.562500,76.43
15:24:49.578125,72.44
15:24:49.593750,69.05
15:24:49.609375,66.30
15:24:49.625000,64.08
15:24:49.640625,62.21
15:24:49.656250,60.49
15:24:49.671875,58.79
15:24:49.687500,56.99
15:24:49.703125,55.01
15:24:49.718750,52.80
15:24:49.734375,50.25
15:24:49.750000,47.30
15:24:49.765625,43.91
15:24:49.781250,40.14
15:24:49.796875,36.13
15:24:49.812500,32.11
15:24:49.828125,28.33
15:24:49.843750,24.98
15:24:49.859375,22.16
15:24:49.875000,19.84
15:24:49.890625,17.85
15:24:49.906250,15.95
15:24:49.921875,13.90
15:24:49.937500,11.51
15:24:49.953125,8.73
15:24:49.968750,5.64
15:24:49.984375,2.32
15:24:50,-1.10
15:24:50.015625,-4.62
15:24:50.031250,-8.32
15:24:50.046875,-12.30
15:24:50.062500,-16.69
15:24:50.078125,-21.44
15:24:50.093750,-26.41
15:24:50.109375,-31.38
15:24:50.125000,-36.13
15:24:50.140625,-40.47
15:24:50.156250,-44.42
15:24:50.171875,-48.17
15:24:50.187500,-52.05
15:24:50.203125,-56.52
15:24:50.218750,-61.95
15:24:50.234375,-68.55
15:24:50.250000,-76.14
15:24:50.265625,-84.31
15:24:50.281250,-92.43
15:24:50.296875,-100.07
15:24:50.312500,-107.01
15:24:50.328125,-113.45
15:24:50.343750,-119.85
15:24:50.359375,-126.82
15:24:50.375000,-134.96
15:24:50.390625,-144.68
15:24:50.406250,-156.05
15:24:50.421875,-168.49
15:24:50.437500,-180.67
15:24:50.453125,-190.49
15:24:50.468750,-195.54
15:24:50.484375,-193.76
15:24:50.500000,-184.10
15:24:50.515625,-166.91
15:24:50.531250,-143.74
15:24:50.546875,-116.68
15:24:50.562500,-87.76
15:24:50.578125,-58.47
15:24:50.593750,-29.75
15:24:50.609375,-2.32
15:24:50.625000,22.99
15:24:50.640625,45.26
15:24:50.656250,63.56
15:24:50.671875,77.28
15:24:50.687500,86.42
15:24:50.703125,91.54
15:24:50.718750,93.58
15:24:50.734375,93.65
15:24:50.750000,92.64
15:24:50.765625,91.14
15:24:50.781250,89.41
15:24:50.796875,87.49
15:24:50.812500,85.30
15:24:50.828125,82.91
15:24:50.843750,80.55
15:24:50.859375,78.56
15:24:50.875000,77.18
15:24:50.890625,76.35
15:24:50.906250,75.68
15:24:50.921875,74.53
15:24:50.937500,72.28
15:24:50.953125,68.59
15:24:50.968750,63.49
15:24:50.984375,57.36
15:24:51,50.73
15:24:51.015625,44.05
15:24:51.031250,37.52
15:24:51.046875,31.07
15:24:51.062500,24.43
15:24:51.078125,17.29
15:24:51.093750,9.45
15:24:51.109375,0.90
15:24:51.125000,-8.13
15:24:51.140625,-17.30
15:24:51.156250,-26.20
15:24:51.171875,-34.59
15:24:51.187500,-42.40
15:24:51.203125,-49.86
15:24:51.218750,-57.46
15:24:51.234375,-65.91
15:24:51.250000,-75.91
15:24:51.265625,-87.92
15:24:51.281250,-101.85
15:24:51.296875,-116.82
15:24:51.312500,-131.07
15:24:51.328125,-142.29
15:24:51.343750,-148.13
15:24:51.359375,-146.89
15:24:51.375000,-138.01
15:24:51.390625,-122.16
15:24:51.406250,-100.97
15:24:51.421875,-76.44
15:24:51.437500,-50.40
15:24:51.453125,-24.22
15:24:51.468750,1.23
15:24:51.484375,25.36
15:24:51.500000,47.63
15:24:51.515625,67.45
15:24:51.531250,84.16
15:24:51.546875,97.21
15:24:51.562500,106.34
15:24:51.578125,111.68
15:24:51.593750,113.77
15:24:51.609375,113.36
15:24:51.625000,111.24
15:24:51.640625,107.98
15:24:51.656250,104.01
15:24:51.671875,99.52
15:24:51.687500,94.78
15:24:51.703125,90.14
15:24:51.718750,86.03
15:24:51.734375,82.78
15:24:51.750000,80.44
15:24:51.765625,78.68
15:24:51.781250,76.93
15:24:51.796875,74.52
15:24:51.812500,70.95
15:24:51.828125,66.08
15:24:51.843750,60.13
15:24:51.859375,53.49
15:24:51.875000,46.54
15:24:51.890625,39.46
15:24:51.906250,32.18
15:24:51.921875,24.38
15:24:51.937500,15.72
15:24:51.953125,6.04
15:24:51.968750,-4.60
15:24:51.984375,-15.82
15:24:52,-27.09
15:24:52.015625,-37.89
15:24:52.031250,-47.88
15:24:52.046875,-57.00
15:24:52.062500,-65.42
15:24:52.078125,-73.58
15:24:52.093750,-82.08
15:24:52.109375,-91.61
15:24:52.125000,-102.67
15:24:52.140625,-115.29
15:24:52.156250,-128.62
15:24:52.171875,-140.94
15:24:52.187500,-149.95
15:24:52.203125,-153.27
15:24:52.218750,-149.25
15:24:52.234375,-137.39
15:24:52.250000,-118.46
15:24:52.265625,-94.16
15:24:52.281250,-66.55
15:24:52.296875,-37.60
15:24:52.312500,-8.90
15:24:52.328125,18.31
15:24:52.343750,43.07
15:24:52.359375,64.63
15:24:52.375000,82.51
15:24:52.390625,96.44
15:24:52.406250,106.46
15:24:52.421875,112.84
15:24:52.437500,115.97
15:24:52.453125,116.40
15:24:52.468750,114.73
15:24:52.484375,111.62
15:24:52.500000,107.74
15:24:52.515625,103.65
15:24:52.531250,99.73
15:24:52.546875,96.17
15:24:52.562500,93.09
15:24:52.578125,90.52
15:24:52.593750,88.46
15:24:52.609375,86.77
15:24:52.625000,85.12
15:24:52.640625,83.01
15:24:52.656250,79.86
15:24:52.671875,75.24
15:24:52.687500,69.05
15:24:52.703125,61.57
15:24:52.718750,53.34
15:24:52.734375,44.96
15:24:52.750000,36.84
15:24:52.765625,29.12
15:24:52.781250,21.64
15:24:52.796875,14.13
15:24:52.812500,6.35
15:24:52.828125,-1.76
15:24:52.843750,-10.10
15:24:52.859375,-18.38
15:24:52.875000,-26.31
15:24:52.890625,-33.74
15:24:52.906250,-40.70
15:24:52.921875,-47.51
15:24:52.937500,-54.65
15:24:52.953125,-62.77
15:24:52.968750,-72.52
15:24:52.984375,-84.40
15:24:53,-98.46
15:24:53.015625,-114.07
15:24:53.031250,-129.73
15:24:53.046875,-143.28
15:24:53.062500,-152.26
15:24:53.078125,-154.64
15:24:53.093750,-149.31
15:24:53.109375,-136.43
15:24:53.125000,-117.22
15:24:53.140625,-93.56
15:24:53.156250,-67.45
15:24:53.171875,-40.62
15:24:53.187500,-14.32
15:24:53.203125,10.55
15:24:53.218750,33.37
15:24:53.234375,53.63
15:24:53.250000,70.84
15:24:53.265625,84.61
15:24:53.281250,94.62
15:24:53.296875,100.76
15:24:53.312500,103.26
15:24:53.328125,102.71
15:24:53.343750,99.98
15:24:53.359375,96.11
15:24:53.375000,91.94
15:24:53.390625,88.07
15:24:53.406250,84.70
15:24:53.421875,81.82
15:24:53.437500,79.35
15:24:53.453125,77.30
15:24:53.468750,75.67
15:24:53.484375,74.39
15:24:53.500000,73.19
15:24:53.515625,71.57
15:24:53.531250,69.02
15:24:53.546875,65.16
15:24:53.562500,59.97
15:24:53.578125,53.78
15:24:53.593750,47.13
15:24:53.609375,40.48
15:24:53.625000,34.11
15:24:53.640625,27.98
15:24:53.656250,21.81
15:24:53.671875,15.32
15:24:53.687500,8.32
15:24:53.703125,0.78
15:24:53.718750,-7.13
15:24:53.734375,-15.22
15:24:53.750000,-23.26
15:24:53.765625,-31.10
15:24:53.781250,-38.62
15:24:53.796875,-45.79
15:24:53.812500,-52.63
15:24:53.828125,-59.29
15:24:53.843750,-66.03
15:24:53.859375,-73.23
15:24:53.875000,-81.36
15:24:53.890625,-90.79
15:24:53.906250,-101.59
15:24:53.921875,-113.29
15:24:53.937500,-124.73
15:24:53.953125,-134.12
15:24:53.968750,-139.46
15:24:53.984375,-139.05
15:24:54,-131.96
15:24:54.015625,-118.31
15:24:54.031250,-99.14
15:24:54.046875,-76.11
15:24:54.062500,-50.95
15:24:54.078125,-25.18
15:24:54.093750,0.08
15:24:54.109375,24.06
15:24:54.125000,46.16
15:24:54.140625,65.84
15:24:54.156250,82.50
15:24:54.171875,95.61
15:24:54.187500,104.75
15:24:54.203125,109.84
15:24:54.218750,111.25
15:24:54.234375,109.70
15:24:54.250000,106.22
15:24:54.265625,101.83
15:24:54.281250,97.30
15:24:54.296875,93.08
15:24:54.312500,89.35
15:24:54.328125,86.14
15:24:54.343750,83.49
15:24:54.359375,81.38
15:24:54.375000,79.78
15:24:54.390625,78.48
15:24:54.406250,77.17
15:24:54.421875,75.51
15:24:54.437500,73.25
15:24:54.453125,70.31
15:24:54.468750,66.75
15:24:54.484375,62.72
15:24:54.500000,58.34
15:24:54.515625,53.60
15:24:54.531250,48.41
15:24:54.546875,42.60
15:24:54.562500,36.07
15:24:54.578125,28.87
15:24:54.593750,21.27
15:24:54.609375,13.67
15:24:54.625000,6.40
15:24:54.640625,-0.40
15:24:54.656250,-6.90
15:24:54.671875,-13.45
15:24:54.687500,-20.44
15:24:54.703125,-28.03
15:24:54.718750,-36.08
15:24:54.734375,-44.22
15:24:54.750000,-52.03
15:24:54.765625,-59.33
15:24:54.781250,-66.20
15:24:54.796875,-73.09
15:24:54.812500,-80.61
15:24:54.828125,-89.35
15:24:54.843750,-99.62
15:24:54.859375,-111.26
15:24:54.875000,-123.49
15:24:54.890625,-134.89
15:24:54.906250,-143.65
15:24:54.921875,-147.89
15:24:54.937500,-146.13
15:24:54.953125,-137.67
15:24:54.968750,-122.83
15:24:54.984375,-102.84
15:24:55,-79.51
15:24:55.015625,-54.78
15:24:55.031250,-30.23
15:24:55.046875,-6.90
15:24:55.062500,14.68
15:24:55.078125,34.24
15:24:55.093750,51.53
15:24:55.109375,66.15
15:24:55.125000,77.64
15:24:55.140625,85.69
15:24:55.156250,90.32
15:24:55.171875,92.05
15:24:55.187500,91.63
15:24:55.203125,89.99
15:24:55.218750,87.83
15:24:55.234375,85.60
15:24:55.250000,83.45
15:24:55.265625,81.44
15:24:55.281250,79.60
15:24:55.296875,78.05
15:24:55.312500,76.91
15:24:55.328125,76.20
15:24:55.343750,75.77
15:24:55.359375,75.22
15:24:55.375000,74.14
15:24:55.390625,72.18
15:24:55.406250,69.23
15:24:55.421875,65.47
15:24:55.437500,61.23
15:24:55.453125,56.86
15:24:55.468750,52.49
15:24:55.484375,48.08
15:24:55.500000,43.37
15:24:55.515625,38.13
15:24:55.531250,32.22
15:24:55.546875,25.73
15:24:55.562500,18.90
15:24:55.578125,12.11
15:24:55.593750,5.61
15:24:55.609375,-0.51
15:24:55.625000,-6.39
15:24:55.640625,-12.33
15:24:55.656250,-18.70
15:24:55.671875,-25.66
15:24:55.687500,-33.10
15:24:55.703125,-40.63
15:24:55.718750,-47.73
15:24:55.734375,-54.05
15:24:55.750000,-59.57
15:24:55.765625,-64.66
15:24:55.781250,-69.96
15:24:55.796875,-76.17
15:24:55.812500,-83.81
15:24:55.828125,-93.14
15:24:55.843750,-103.93
15:24:55.859375,-115.46
15:24:55.875000,-126.45
15:24:55.890625,-135.24
15:24:55.906250,-140.02
15:24:55.921875,-139.38
15:24:55.937500,-132.64
15:24:55.953125,-120.07
15:24:55.968750,-102.72
15:24:55.984375,-82.15
15:24:56,-59.91
15:24:56.015625,-37.32
15:24:56.031250,-15.29
15:24:56.046875,5.57
15:24:56.062500,24.86
15:24:56.078125,42.23
15:24:56.093750,57.32
15:24:56.109375,69.70
15:24:56.125000,79.01
15:24:56.140625,85.04
15:24:56.156250,87.87
15:24:56.171875,88.00
15:24:56.187500,86.22
15:24:56.203125,83.39
15:24:56.218750,80.21
15:24:56.234375,77.15
15:24:56.250000,74.44
15:24:56.265625,72.19
15:24:56.281250,70.50
15:24:56.296875,69.46
15:24:56.312500,68.94
15:24:56.328125,68.54
15:24:56.343750,67.59
15:24:56.359375,65.48
15:24:56.375000,61.86
15:24:56.390625,56.91
15:24:56.406250,51.25
15:24:56.421875,45.70
15:24:56.437500,40.90
15:24:56.453125,37.05
15:24:56.468750,33.92
15:24:56.484375,30.99
15:24:56.500000,27.69
15:24:56.515625,23.66
15:24:56.531250,18.82
15:24:56.546875,13.32
15:24:56.562500,7.42
15:24:56.578125,1.43
15:24:56.593750,-4.47
15:24:56.609375,-10.17
15:24:56.625000,-15.72
15:24:56.640625,-21.26
15:24:56.656250,-27.00
15:24:56.671875,-33.07
15:24:56.687500,-39.46
15:24:56.703125,-46.00
15:24:56.718750,-52.40
15:24:56.734375,-58.36
15:24:56.750000,-63.77
15:24:56.765625,-68.81
15:24:56.781250,-73.90
15:24:56.796875,-79.64
15:24:56.812500,-86.59
15:24:56.828125,-94.96
15:24:56.843750,-104.49
15:24:56.859375,-114.27
15:24:56.875000,-122.86
15:24:56.890625,-128.59
15:24:56.906250,-129.94
15:24:56.921875,-125.93
15:24:56.937500,-116.42
15:24:56.953125,-102.08
15:24:56.968750,-84.18
15:24:56.984375,-64.20
15:24:57,-43.49
15:24:57.015625,-23.07
15:24:57.031250,-3.57
15:24:57.046875,14.64
15:24:57.062500,31.29
15:24:57.078125,46.06
15:24:57.093750,58.49
15:24:57.109375,68.03
15:24:57.125000,74.32
15:24:57.140625,77.36
15:24:57.156250,77.65
15:24:57.171875,76.10
15:24:57.187500,73.77
15:24:57.203125,71.49
15:24:57.218750,69.65
15:24:57.234375,68.27
15:24:57.250000,67.20
15:24:57.265625,66.37
15:24:57.281250,65.96
15:24:57.296875,66.24
15:24:57.312500,67.34
15:24:57.328125,69.03
15:24:57.343750,70.75
15:24:57.359375,71.75
15:24:57.375000,71.48
15:24:57.390625,69.81
15:24:57.406250,66.99
15:24:57.421875,63.54
15:24:57.437500,59.96
15:24:57.453125,56.53
15:24:57.468750,53.25
15:24:57.484375,49.95
15:24:57.500000,46.45
15:24:57.515625,42.61
15:24:57.531250,38.52
15:24:57.546875,34.36
15:24:57.562500,30.41
15:24:57.578125,26.95
15:24:57.593750,24.19
15:24:57.609375,22.19
15:24:57.625000,20.84
15:24:57.640625,19.89
15:24:57.656250,18.97
15:24:57.671875,17.71
15:24:57.687500,15.88
15:24:57.703125,13.44
15:24:57.718750,10.59
15:24:57.734375,7.69
15:24:57.750000,5.11
15:24:57.765625,3.07
15:24:57.781250,1.60
15:24:57.796875,0.53
15:24:57.812500,-0.41
15:24:57.828125,-1.41
15:24:57.843750,-2.57
15:24:57.859375,-3.86
15:24:57.875000,-5.22
15:24:57.890625,-6.59
15:24:57.906250,-7.98
15:24:57.921875,-9.35
15:24:57.937500,-10.74
15:24:57.953125,-12.13
15:24:57.968750,-13.41
15:24:57.984375,-14.59
15:24:58,-15.67
15:24:58.015625,-16.78
15:24:58.031250,-18.08
15:24:58.046875,-19.68
15:24:58.062500,-21.56
15:24:58.078125,-23.58
15:24:58.093750,-25.46
15:24:58.109375,-26.97
15:24:58.125000,-27.97
15:24:58.140625,-28.60
15:24:58.156250,-29.14
15:24:58.171875,-30.00
15:24:58.187500,-31.46
15:24:58.203125,-33.63
15:24:58.218750,-36.31
15:24:58.234375,-39.15
15:24:58.250000,-41.84
15:24:58.265625,-44.27
15:24:58.281250,-46.62
15:24:58.296875,-49.24
15:24:58.312500,-52.55
15:24:58.328125,-56.80
15:24:58.343750,-61.88
15:24:58.359375,-67.49
15:24:58.375000,-73.20
15:24:58.390625,-78.69
15:24:58.406250,-83.86
15:24:58.421875,-88.82
15:24:58.437500,-93.84
15:24:58.453125,-99.31
15:24:58.468750,-105.70
15:24:58.484375,-113.52
15:24:58.500000,-123.09
15:24:58.515625,-134.22
15:24:58.531250,-145.87
15:24:58.546875,-156.15
15:24:58.562500,-162.71
15:24:58.578125,-163.39
15:24:58.593750,-157.05
15:24:58.609375,-143.93
15:24:58.625000,-125.43
15:24:58.640625,-103.58
15:24:58.656250,-80.32
15:24:58.671875,-57.09
15:24:58.687500,-34.69
15:24:58.703125,-13.58
15:24:58.718750,5.84
15:24:58.734375,23.12
15:24:58.750000,37.75
15:24:58.765625,49.34
15:24:58.781250,57.76
15:24:58.796875,63.14
15:24:58.812500,65.83
15:24:58.828125,66.36
15:24:58.843750,65.26
15:24:58.859375,63.12
15:24:58.875000,60.41
15:24:58.890625,57.54
15:24:58.906250,54.84
15:24:58.921875,52.62
15:24:58.937500,51.12
15:24:58.953125,50.57
15:24:58.968750,51.03
15:24:58.984375,52.36
15:24:59,54.12
15:24:59.015625,55.74
15:24:59.031250,56.66
15:24:59.046875,56.52
15:24:59.062500,55.22
15:24:59.078125,52.93
15:24:59.093750,49.88
15:24:59.109375,46.26
15:24:59.125000,42.13
15:24:59.140625,37.49
15:24:59.156250,32.32
15:24:59.171875,26.71
15:24:59.187500,20.80
15:24:59.203125,14.76
15:24:59.218750,8.73
15:24:59.234375,2.72
15:24:59.250000,-3.34
15:24:59.265625,-9.65
15:24:59.281250,-16.29
15:24:59.296875,-23.27
15:24:59.312500,-30.46
15:24:59.328125,-37.62
15:24:59.343750,-44.56
15:24:59.359375,-51.17
15:24:59.375000,-57.60
15:24:59.390625,-64.20
15:24:59.406250,-71.53
15:24:59.421875,-80.16
15:24:59.437500,-90.35
15:24:59.453125,-101.83
15:24:59.468750,-113.56
15:24:59.484375,-123.84
15:24:59.500000,-130.67
15:24:59.515625,-132.34
15:24:59.531250,-127.91
15:24:59.546875,-117.53
15:24:59.562500,-102.27
15:24:59.578125,-83.68
15:24:59.593750,-63.31
15:24:59.609375,-42.40
15:24:59.625000,-21.83
15:24:59.640625,-2.20
15:24:59.656250,16.02
15:24:59.671875,32.40
15:24:59.687500,46.61
15:24:59.703125,58.47
15:24:59.718750,67.88
15:24:59.734375,74.81
15:24:59.750000,79.29
15:24:59.765625,81.41
15:24:59.781250,81.43
15:24:59.796875,79.78
15:24:59.812500,77.06
15:24:59.828125,73.88
15:24:59.843750,70.75
15:24:59.859375,68.01
15:24:59.875000,65.86
15:24:59.890625,64.30
15:24:59.906250,63.28
15:24:59.921875,62.58
15:24:59.937500,61.87
15:24:59.953125,60.76
15:24:59.968750,58.88
15:24:59.984375,55.97
15:25:00,51.94
15:25:00.015625,46.90
15:25:00.031250,41.04
15:25:00.046875,34.64
15:25:00.062500,27.94
15:25:00.078125,21.08
15:25:00.093750,14.18
15:25:00.109375,7.21
15:25:00.125000,0.08
15:25:00.140625,-7.37
15:25:00.156250,-15.33
15:25:00.171875,-23.88
15:25:00.187500,-33.01
15:25:00.203125,-42.51
15:25:00.218750,-52.09
15:25:00.234375,-61.45
15:25:00.250000,-70.38
15:25:00.265625,-78.81
15:25:00.281250,-86.85
15:25:00.296875,-94.75
15:25:00.312500,-102.94
15:25:00.328125,-111.97
15:25:00.343750,-122.27
15:25:00.359375,-133.91
15:25:00.375000,-146.19
15:25:00.390625,-157.60
15:25:00.406250,-165.98
15:25:00.421875,-169.11
15:25:00.437500,-165.33
15:25:00.453125,-154.12
15:25:00.468750,-136.23
15:25:00.484375,-113.23
15:25:00.500000,-87.13
15:25:00.515625,-59.71
15:25:00.531250,-32.41
15:25:00.546875,-6.32
15:25:00.562500,17.73
15:25:00.578125,38.96
15:25:00.593750,56.88
15:25:00.609375,71.28
15:25:00.625000,82.41
15:25:00.640625,90.80
15:25:00.656250,97.11
15:25:00.671875,101.82
15:25:00.687500,105.16
15:25:00.703125,107.14
15:25:00.718750,107.65
15:25:00.734375,106.68
15:25:00.750000,104.42
15:25:00.765625,101.26
15:25:00.781250,97.69
15:25:00.796875,94.16
15:25:00.812500,90.95
15:25:00.828125,88.09
15:25:00.843750,85.38
15:25:00.859375,82.48
15:25:00.875000,79.04
15:25:00.890625,74.84
15:25:00.906250,69.82
15:25:00.921875,64.10
15:25:00.937500,57.96
15:25:00.953125,51.71
15:25:00.968750,45.63
15:25:00.984375,39.86
15:25:01,34.36
15:25:01.015625,28.88
15:25:01.031250,23.08
15:25:01.046875,16.61
15:25:01.062500,9.25
15:25:01.078125,1.02
15:25:01.093750,-7.94
15:25:01.109375,-17.36
15:25:01.125000,-26.94
15:25:01.140625,-36.43
15:25:01.156250,-45.63
15:25:01.171875,-54.37
15:25:01.187500,-62.61
15:25:01.203125,-70.52
15:25:01.218750,-78.58
15:25:01.234375,-87.53
15:25:01.250000,-98.11
15:25:01.265625,-110.61
15:25:01.281250,-124.51
15:25:01.296875,-138.26
15:25:01.312500,-149.64
15:25:01.328125,-156.18
15:25:01.343750,-156.06
15:25:01.359375,-148.56
15:25:01.375000,-134.23
15:25:01.390625,-114.69
15:25:01.406250,-92.00
15:25:01.421875,-68.17
15:25:01.437500,-44.74
15:25:01.453125,-22.62
15:25:01.468750,-2.27
15:25:01.484375,16.22
15:25:01.500000,32.89
15:25:01.515625,47.75
15:25:01.531250,60.72
15:25:01.546875,71.62
15:25:01.562500,80.23
15:25:01.578125,86.42
15:25:01.593750,90.25
15:25:01.609375,92.03
15:25:01.625000,92.26
15:25:01.640625,91.56
15:25:01.656250,90.51
15:25:01.671875,89.54
15:25:01.687500,88.88
15:25:01.703125,88.60
15:25:01.718750,88.68
15:25:01.734375,89.00
15:25:01.750000,89.41
15:25:01.765625,89.67
15:25:01.781250,89.47
15:25:01.796875,88.45
15:25:01.812500,86.29
15:25:01.828125,82.91
15:25:01.843750,78.56
15:25:01.859375,73.82
15:25:01.875000,69.46
15:25:01.890625,66.02
15:25:01.906250,63.63
15:25:01.921875,61.83
15:25:01.937500,59.74
15:25:01.953125,56.38
15:25:01.968750,51.07
15:25:01.984375,43.65
15:25:02,34.48
15:25:02.015625,24.29
15:25:02.031250,13.89
15:25:02.046875,3.84
15:25:02.062500,-5.63
15:25:02.078125,-14.65
15:25:02.093750,-23.59
15:25:02.109375,-32.94
15:25:02.125000,-43.21
15:25:02.140625,-54.70
15:25:02.156250,-67.32
15:25:02.171875,-80.33
15:25:02.187500,-92.37
15:25:02.203125,-101.64
15:25:02.218750,-106.39
15:25:02.234375,-105.40
15:25:02.250000,-98.44
15:25:02.265625,-86.24
15:25:02.281250,-70.13
15:25:02.296875,-51.60
15:25:02.312500,-31.75
15:25:02.328125,-11.21
15:25:02.343750,9.79
15:25:02.359375,31.15
15:25:02.375000,52.57
15:25:02.390625,73.38
15:25:02.406250,92.58
15:25:02.421875,109.12
15:25:02.437500,122.22
15:25:02.453125,131.65
15:25:02.468750,137.90
15:25:02.484375,142.04
15:25:02.500000,145.30
15:25:02.515625,148.73
15:25:02.531250,152.76
15:25:02.546875,157.23
15:25:02.562500,161.55
15:25:02.578125,164.99
15:25:02.593750,167.12
15:25:02.609375,168.13
15:25:02.625000,168.86
15:25:02.640625,170.67
15:25:02.656250,174.85
15:25:02.671875,181.98
15:25:02.687500,191.25
15:25:02.703125,200.25
15:25:02.718750,205.36
15:25:02.734375,202.71
15:25:02.750000,189.31
15:25:02.765625,164.04
15:25:02.781250,128.10
15:25:02.796875,84.89
15:25:02.812500,39.29
15:25:02.828125,-3.47
15:25:02.843750,-38.98
15:25:02.859375,-64.74
15:25:02.875000,-80.74
15:25:02.890625,-89.47
15:25:02.906250,-95.13
15:25:02.921875,-102.31
15:25:02.937500,-114.75
15:25:02.953125,-134.19
15:25:02.968750,-160.35
15:25:02.984375,-191.36
15:25:03,-224.73
15:25:03.015625,-257.96
15:25:03.031250,-288.79
15:25:03.046875,-314.92
15:25:03.062500,-333.83
15:25:03.078125,-342.97
15:25:03.093750,-340.58
15:25:03.109375,-326.49
15:25:03.125000,-302.48
15:25:03.140625,-271.79
15:25:03.156250,-237.79
15:25:03.171875,-202.71
15:25:03.187500,-167.09
15:25:03.203125,-130.22
15:25:03.218750,-91.18
15:25:03.234375,-49.86
15:25:03.250000,-7.28
15:25:03.265625,34.87
15:25:03.281250,74.91
15:25:03.296875,111.61
15:25:03.312500,144.04
15:25:03.328125,171.28
15:25:03.343750,192.23
15:25:03.359375,205.90
15:25:03.375000,212.05
15:25:03.390625,211.49
15:25:03.406250,206.11
15:25:03.421875,198.20
15:25:03.437500,189.73
15:25:03.453125,181.86
15:25:03.468750,174.91
15:25:03.484375,168.65
15:25:03.500000,162.69
15:25:03.515625,156.79
15:25:03.531250,150.68
15:25:03.546875,144.00
15:25:03.562500,135.98
15:25:03.578125,125.71
15:25:03.593750,112.36
15:25:03.609375,95.78
15:25:03.625000,76.66
15:25:03.640625,56.40
15:25:03.656250,36.67
15:25:03.671875,18.78
15:25:03.687500,3.40
15:25:03.703125,-9.59
15:25:03.718750,-20.69
15:25:03.734375,-30.52
15:25:03.750000,-39.50
15:25:03.765625,-47.82
15:25:03.781250,-55.40
15:25:03.796875,-61.92
15:25:03.812500,-66.94
15:25:03.828125,-69.95
15:25:03.843750,-70.65
15:25:03.859375,-69.18
15:25:03.875000,-66.28
15:25:03.890625,-63.28
15:25:03.906250,-61.86
15:25:03.921875,-63.57
15:25:03.937500,-69.41
15:25:03.953125,-79.46
15:25:03.968750,-92.55
15:25:03.984375,-106.49
15:25:04,-118.36
15:25:04.015625,-125.25
15:25:04.031250,-125.15
15:25:04.046875,-117.42
15:25:04.062500,-102.96
15:25:04.078125,-83.57
15:25:04.093750,-61.23
15:25:04.109375,-37.50
15:25:04.125000,-13.55
15:25:04.140625,9.57
15:25:04.156250,30.44
15:25:04.171875,47.25
15:25:04.187500,58.24
15:25:04.203125,62.27
15:25:04.218750,59.35
15:25:04.234375,50.61
15:25:04.250000,38.02
15:25:04.265625,23.72
15:25:04.281250,9.74
15:25:04.296875,-2.28
15:25:04.312500,-11.10
15:25:04.328125,-16.02
15:25:04.343750,-17.23
15:25:04.359375,-16.02
15:25:04.375000,-14.68
15:25:04.390625,-15.87
15:25:04.406250,-21.57
15:25:04.421875,-32.33
15:25:04.437500,-46.83
15:25:04.453125,-62.34
15:25:04.468750,-75.56
15:25:04.484375,-83.74
15:25:04.500000,-85.41
15:25:04.515625,-80.81
15:25:04.531250,-71.71
15:25:04.546875,-60.86
15:25:04.562500,-51.25
15:25:04.578125,-45.29
15:25:04.593750,-44.23
15:25:04.609375,-47.83
15:25:04.625000,-54.48
15:25:04.640625,-61.77
15:25:04.656250,-67.32
15:25:04.671875,-69.57
15:25:04.687500,-68.29
15:25:04.703125,-64.38
15:25:04.718750,-59.50
15:25:04.734375,-55.37
15:25:04.750000,-53.39
15:25:04.765625,-54.35
15:25:04.781250,-58.48
15:25:04.796875,-65.54
15:25:04.812500,-74.85
15:25:04.828125,-85.30
15:25:04.843750,-95.45
15:25:04.859375,-103.71
15:25:04.875000,-108.58
15:25:04.890625,-109.06
15:25:04.906250,-104.86
15:25:04.921875,-96.44
15:25:04.937500,-84.92
15:25:04.953125,-71.59
15:25:04.968750,-57.57
15:25:04.984375,-43.34
15:25:05,-28.92
15:25:05.015625,-14.25
15:25:05.031250,0.23
15:25:05.046875,13.33
15:25:05.062500,23.65
15:25:05.078125,30.62
15:25:05.093750,35.41
15:25:05.109375,40.92
15:25:05.125000,50.56
15:25:05.140625,66.28
15:25:05.156250,87.41
15:25:05.171875,110.46
15:25:05.187500,131.00
15:25:05.203125,145.87
15:25:05.218750,154.43
15:25:05.234375,158.51
15:25:05.250000,160.62
15:25:05.265625,162.29
15:25:05.281250,163.32
15:25:05.296875,162.37
15:25:05.312500,158.24
15:25:05.328125,150.89
15:25:05.343750,141.33
15:25:05.359375,130.91
15:25:05.375000,120.47
15:25:05.390625,110.11
15:25:05.406250,99.64
15:25:05.421875,89.07
15:25:05.437500,78.89
15:25:05.453125,69.78
15:25:05.468750,62.22
15:25:05.484375,56.12
15:25:05.500000,50.92
15:25:05.515625,45.90
15:25:05.531250,40.43
15:25:05.546875,34.14
15:25:05.562500,26.80
15:25:05.578125,18.38
15:25:05.593750,9.00
15:25:05.609375,-1.01
15:25:05.625000,-11.25
15:25:05.640625,-21.58
15:25:05.656250,-32.03
15:25:05.671875,-43.11
15:25:05.687500,-55.27
15:25:05.703125,-68.54
15:25:05.718750,-82.18
15:25:05.734375,-94.64
15:25:05.750000,-104.01
15:25:05.765625,-108.62
15:25:05.781250,-107.63
15:25:05.796875,-101.21
15:25:05.812500,-90.47
15:25:05.828125,-76.93
15:25:05.843750,-62.06
15:25:05.859375,-46.84
15:25:05.875000,-31.64
15:25:05.890625,-16.47
15:25:05.906250,-1.34
15:25:05.921875,13.45
15:25:05.937500,27.17
15:25:05.953125,38.87
15:25:05.968750,47.74
15:25:05.984375,53.36
15:25:06,55.94
15:25:06.015625,56.13
15:25:06.031250,54.76
15:25:06.046875,52.57
15:25:06.062500,50.01
15:25:06.078125,47.28
15:25:06.093750,44.51
15:25:06.109375,41.90
15:25:06.125000,39.80
15:25:06.140625,38.53
15:25:06.156250,38.26
15:25:06.171875,38.76
15:25:06.187500,39.47
15:25:06.203125,39.61
15:25:06.218750,38.50
15:25:06.234375,35.77
15:25:06.250000,31.54
15:25:06.265625,26.29
15:25:06.281250,20.64
15:25:06.296875,15.09
15:25:06.312500,9.81
15:25:06.328125,4.68
15:25:06.343750,-0.59
15:25:06.359375,-6.31
15:25:06.375000,-12.62
15:25:06.390625,-19.46
15:25:06.406250,-26.62
15:25:06.421875,-33.87
15:25:06.437500,-40.99
15:25:06.453125,-47.85
15:25:06.468750,-54.39
15:25:06.484375,-60.64
15:25:06.500000,-66.65
15:25:06.515625,-72.59
15:25:06.531250,-78.70
15:25:06.546875,-85.31
15:25:06.562500,-92.76
15:25:06.578125,-101.31
15:25:06.593750,-110.84
15:25:06.609375,-120.73
15:25:06.625000,-129.77
15:25:06.640625,-136.30
15:25:06.656250,-138.66
15:25:06.671875,-135.62
15:25:06.687500,-126.82
15:25:06.703125,-112.83
15:25:06.718750,-94.95
15:25:06.734375,-74.73
15:25:06.750000,-53.60
15:25:06.765625,-32.52
15:25:06.781250,-12.06
15:25:06.796875,7.40
15:25:06.812500,25.45
15:25:06.828125,41.51
15:25:06.843750,54.88
15:25:06.859375,64.96
15:25:06.875000,71.46
15:25:06.890625,74.59
15:25:06.906250,74.98
15:25:06.921875,73.56
15:25:06.937500,71.29
15:25:06.953125,68.87
15:25:06.968750,66.72
15:25:06.984375,64.95
15:25:07,63.57
15:25:07.015625,62.59
15:25:07.031250,62.08
15:25:07.046875,62.10
15:25:07.062500,62.53
15:25:07.078125,63.07
15:25:07.093750,63.23
15:25:07.109375,62.53
15:25:07.125000,60.70
15:25:07.140625,57.73
15:25:07.156250,53.87
15:25:07.171875,49.47
15:25:07.187500,44.78
15:25:07.203125,39.93
15:25:07.218750,34.87
15:25:07.234375,29.45
15:25:07.250000,23.51
15:25:07.265625,16.94
15:25:07.281250,9.68
15:25:07.296875,1.77
15:25:07.312500,-6.60
15:25:07.328125,-15.11
15:25:07.343750,-23.38
15:25:07.359375,-31.03
15:25:07.375000,-37.88
15:25:07.390625,-44.00
15:25:07.406250,-49.70
15:25:07.421875,-55.50
15:25:07.437500,-62.00
15:25:07.453125,-69.76
15:25:07.468750,-79.09
15:25:07.484375,-89.83
15:25:07.500000,-101.17
15:25:07.515625,-111.66
15:25:07.531250,-119.49
15:25:07.546875,-122.92
15:25:07.562500,-120.85
15:25:07.578125,-113.09
15:25:07.593750,-100.33
15:25:07.609375,-83.83
15:25:07.625000,-64.94
15:25:07.640625,-44.79
15:25:07.656250,-24.19
15:25:07.671875,-3.76
15:25:07.687500,15.91
15:25:07.703125,34.17
15:25:07.718750,50.36
15:25:07.734375,63.89
15:25:07.750000,74.36
15:25:07.765625,81.60
15:25:07.781250,85.70
15:25:07.796875,86.94
15:25:07.812500,85.85
15:25:07.828125,83.19
15:25:07.843750,79.78
15:25:07.859375,76.42
15:25:07.875000,73.66
15:25:07.890625,71.72
15:25:07.906250,70.51
15:25:07.921875,69.74
15:25:07.937500,69.10
15:25:07.953125,68.37
15:25:07.968750,67.38
15:25:07.984375,66.01
15:25:08,64.10
15:25:08.015625,61.46
15:25:08.031250,57.94
15:25:08.046875,53.53
15:25:08.062500,48.38
15:25:08.078125,42.76
15:25:08.093750,36.95
15:25:08.109375,31.21
15:25:08.125000,25.63
15:25:08.140625,20.19
15:25:08.156250,14.78
15:25:08.171875,9.25
15:25:08.187500,3.43
15:25:08.203125,-2.76
15:25:08.218750,-9.32
15:25:08.234375,-16.12
15:25:08.250000,-22.97
15:25:08.265625,-29.75
15:25:08.281250,-36.43
15:25:08.296875,-43.10
15:25:08.312500,-49.94
15:25:08.328125,-57.18
15:25:08.343750,-65.00
15:25:08.359375,-73.69
15:25:08.375000,-83.47
15:25:08.390625,-94.40
15:25:08.406250,-106.07
15:25:08.421875,-117.39
15:25:08.437500,-126.73
15:25:08.453125,-132.18
15:25:08.468750,-132.17
15:25:08.484375,-125.94
15:25:08.500000,-113.81
15:25:08.515625,-96.94
15:25:08.531250,-76.92
15:25:08.546875,-55.27
15:25:08.562500,-33.16
15:25:08.578125,-11.37
15:25:08.593750,9.51
15:25:08.609375,28.99
15:25:08.625000,46.48
15:25:08.640625,61.40
15:25:08.656250,73.29
15:25:08.671875,81.92
15:25:08.687500,87.34
15:25:08.703125,89.92
15:25:08.718750,90.19
15:25:08.734375,88.79
15:25:08.750000,86.35
15:25:08.765625,83.39
15:25:08.781250,80.31
15:25:08.796875,77.39
15:25:08.812500,74.82
15:25:08.828125,72.76
15:25:08.843750,71.29
15:25:08.859375,70.42
15:25:08.875000,69.97
15:25:08.890625,69.62
15:25:08.906250,68.97
15:25:08.921875,67.62
15:25:08.937500,65.26
15:25:08.953125,61.74
15:25:08.968750,57.11
15:25:08.984375,51.54
15:25:09,45.23
15:25:09.015625,38.41
15:25:09.031250,31.28
15:25:09.046875,24.01
15:25:09.062500,16.81
15:25:09.078125,9.84
15:25:09.093750,3.22
15:25:09.109375,-3.03
15:25:09.125000,-9.04
15:25:09.140625,-15.10
15:25:09.156250,-21.49
15:25:09.171875,-28.42
15:25:09.187500,-35.92
15:25:09.203125,-43.77
15:25:09.218750,-51.63
15:25:09.234375,-59.20
15:25:09.250000,-66.46
15:25:09.265625,-73.68
15:25:09.281250,-81.42
15:25:09.296875,-90.25
15:25:09.312500,-100.50
15:25:09.328125,-111.91
15:25:09.343750,-123.48
15:25:09.359375,-133.58
15:25:09.375000,-140.32
15:25:09.390625,-141.97
15:25:09.406250,-137.49
15:25:09.421875,-126.82
15:25:09.437500,-110.75
15:25:09.453125,-90.79
15:25:09.468750,-68.57
15:25:09.484375,-45.57
15:25:09.500000,-22.86
15:25:09.515625,-1.11
15:25:09.531250,19.28
15:25:09.546875,37.94
15:25:09.562500,54.42
15:25:09.578125,68.28
15:25:09.593750,79.12
15:25:09.609375,86.71
15:25:09.625000,91.09
15:25:09.640625,92.59
15:25:09.656250,91.71
15:25:09.671875,89.11
15:25:09.687500,85.50
15:25:09.703125,81.57
15:25:09.718750,77.98
15:25:09.734375,75.20
15:25:09.750000,73.50
15:25:09.765625,72.82
15:25:09.781250,72.78
15:25:09.796875,72.83
15:25:09.812500,72.42
15:25:09.828125,71.20
15:25:09.843750,69.08
15:25:09.859375,66.22
15:25:09.875000,62.85
15:25:09.890625,59.13
15:25:09.906250,55.06
15:25:09.921875,50.49
15:25:09.937500,45.33
15:25:09.953125,39.64
15:25:09.968750,33.71
15:25:09.984375,27.97
15:25:10,22.78
15:25:10.015625,18.26
15:25:10.031250,14.24
15:25:10.046875,10.26
15:25:10.062500,5.86
15:25:10.078125,0.73
15:25:10.093750,-5.07
15:25:10.109375,-11.17
15:25:10.125000,-16.96
15:25:10.140625,-21.88
15:25:10.156250,-25.65
15:25:10.171875,-28.37
15:25:10.187500,-30.58
15:25:10.203125,-33.13
15:25:10.218750,-36.83
15:25:10.234375,-42.13
15:25:10.250000,-48.73
15:25:10.265625,-55.46
15:25:10.281250,-60.22
15:25:10.296875,-60.33
15:25:10.312500,-53.11
15:25:10.328125,-36.69
15:25:10.343750,-10.80
15:25:10.359375,22.69
15:25:10.375000,59.91
15:25:10.390625,95.73
15:25:10.406250,125.07
15:25:10.421875,144.26
15:25:10.437500,152.07
15:25:10.453125,149.76
15:25:10.468750,140.50
15:25:10.484375,128.09
15:25:10.500000,115.92
15:25:10.515625,106.13
15:25:10.531250,99.54
15:25:10.546875,95.85
15:25:10.562500,94.08
15:25:10.578125,92.84
15:25:10.593750,90.61
15:25:10.609375,85.90
15:25:10.625000,77.59
15:25:10.640625,65.18
15:25:10.656250,49.08
15:25:10.671875,30.57
15:25:10.687500,11.48
15:25:10.703125,-6.32
15:25:10.718750,-21.46
15:25:10.734375,-33.61
15:25:10.750000,-43.47
15:25:10.765625,-52.56
15:25:10.781250,-62.61
15:25:10.796875,-74.97
15:25:10.812500,-89.96
15:25:10.828125,-106.82
15:25:10.843750,-123.85
15:25:10.859375,-138.96
15:25:10.875000,-150.23
15:25:10.890625,-156.31
15:25:10.906250,-156.55
15:25:10.921875,-150.92
15:25:10.937500,-139.91
15:25:10.953125,-124.43
15:25:10.968750,-105.87
15:25:10.984375,-86.15
15:25:11,-67.49
15:25:11.015625,-51.90
15:25:11.031250,-40.65
15:25:11.046875,-33.92
15:25:11.062500,-30.79
15:25:11.078125,-29.76
15:25:11.093750,-29.29
15:25:11.109375,-28.42
15:25:11.125000,-26.83
15:25:11.140625,-24.71
15:25:11.156250,-22.42
15:25:11.171875,-20.18
15:25:11.187500,-18.01
15:25:11.203125,-15.80
15:25:11.218750,-13.56
15:25:11.234375,-11.44
15:25:11.250000,-9.66
15:25:11.265625,-8.43
15:25:11.281250,-7.76
15:25:11.296875,-7.46
15:25:11.312500,-7.21
15:25:11.328125,-6.79
15:25:11.343750,-6.11
15:25:11.359375,-5.33
15:25:11.375000,-4.74
15:25:11.390625,-4.64
15:25:11.406250,-5.18
15:25:11.421875,-6.33
15:25:11.437500,-7.87
15:25:11.453125,-9.57
15:25:11.468750,-11.19
15:25:11.484375,-12.67
15:25:11.500000,-14.08
15:25:11.515625,-15.63
15:25:11.531250,-17.50
15:25:11.546875,-19.84
15:25:11.562500,-22.56
15:25:11.578125,-25.37
15:25:11.593750,-27.92
15:25:11.609375,-30.00
15:25:11.625000,-31.73
15:25:11.640625,-33.56
15:25:11.656250,-36.17
15:25:11.671875,-40.04
15:25:11.687500,-45.23
15:25:11.703125,-51.27
15:25:11.718750,-57.34
15:25:11.734375,-62.64
15:25:11.750000,-66.80
15:25:11.765625,-69.99
15:25:11.781250,-72.77
15:25:11.796875,-75.90
15:25:11.812500,-80.14
15:25:11.828125,-86.05
15:25:11.843750,-93.98
15:25:11.859375,-103.77
15:25:11.875000,-114.57
15:25:11.890625,-124.64
15:25:11.906250,-131.49
15:25:11.921875,-132.62
15:25:11.937500,-126.46
15:25:11.953125,-112.99
15:25:11.968750,-93.93
15:25:11.984375,-71.98
15:25:12,-49.65
15:25:12.015625,-28.35
15:25:12.031250,-8.18
15:25:12.046875,11.50
15:25:12.062500,31.07
15:25:12.078125,49.95
15:25:12.093750,66.48
15:25:12.109375,78.60
15:25:12.125000,84.68
15:25:12.140625,84.26
15:25:12.156250,78.14
15:25:12.171875,68.08
15:25:12.187500,56.34
15:25:12.203125,45.01
15:25:12.218750,35.69
15:25:12.234375,29.47
15:25:12.250000,26.75
15:25:12.265625,27.39
15:25:12.281250,30.67
15:25:12.296875,35.38
15:25:12.312500,40.05
15:25:12.328125,43.12
15:25:12.343750,43.37
15:25:12.359375,40.22
15:25:12.375000,34.02
15:25:12.390625,25.92
15:25:12.406250,17.52
15:25:12.421875,10.38
15:25:12.437500,5.43
15:25:12.453125,2.69
15:25:12.468750,1.44
15:25:12.484375,0.50
15:25:12.500000,-1.21
15:25:12.515625,-4.35
15:25:12.531250,-9.05
15:25:12.546875,-15.10
15:25:12.562500,-22.00
15:25:12.578125,-29.34
15:25:12.593750,-36.76
15:25:12.609375,-44.02
15:25:12.625000,-50.99
15:25:12.640625,-57.66
15:25:12.656250,-64.15
15:25:12.671875,-70.76
15:25:12.687500,-77.91
15:25:12.703125,-85.98
15:25:12.718750,-95.12
15:25:12.734375,-105.02
15:25:12.750000,-114.81
15:25:12.765625,-123.04
15:25:12.781250,-128.04
15:25:12.796875,-128.28
15:25:12.812500,-122.86
15:25:12.828125,-111.69
15:25:12.843750,-95.55
15:25:12.859375,-75.72
15:25:12.875000,-53.66
15:25:12.890625,-30.55
15:25:12.906250,-7.31
15:25:12.921875,15.44
15:25:12.937500,37.11
15:25:12.953125,57.04
15:25:12.968750,74.55
15:25:12.984375,89.01
15:25:13,100.04
15:25:13.015625,107.60
15:25:13.031250,112.02
15:25:13.046875,113.82
15:25:13.062500,113.59
15:25:13.078125,111.86
15:25:13.093750,109.06
15:25:13.109375,105.57
15:25:13.125000,101.72
15:25:13.140625,97.93
15:25:13.156250,94.55
15:25:13.171875,91.86
15:25:13.187500,89.95
15:25:13.203125,88.61
15:25:13.218750,87.43
15:25:13.234375,85.83
15:25:13.250000,83.25
15:25:13.265625,79.30
15:25:13.281250,73.82
15:25:13.296875,67.00
15:25:13.312500,59.26
15:25:13.328125,51.20
15:25:13.343750,43.37
15:25:13.359375,36.14
15:25:13.375000,29.53
15:25:13.390625,23.28
15:25:13.406250,16.97
15:25:13.421875,10.20
15:25:13.437500,2.83
15:25:13.453125,-4.98
15:25:13.468750,-12.85
15:25:13.484375,-20.33
15:25:13.500000,-27.25
15:25:13.515625,-33.71
15:25:13.531250,-40.16
15:25:13.546875,-47.32
15:25:13.562500,-55.91
15:25:13.578125,-66.40
15:25:13.593750,-78.77
15:25:13.609375,-92.26
15:25:13.625000,-105.47
15:25:13.640625,-116.57
15:25:13.656250,-123.77
15:25:13.671875,-125.73
15:25:13.687500,-121.86
15:25:13.703125,-112.28
15:25:13.718750,-97.75
15:25:13.734375,-79.31
15:25:13.750000,-58.16
15:25:13.765625,-35.50
15:25:13.781250,-12.59
15:25:13.796875,9.35
15:25:13.812500,29.26
15:25:13.828125,46.36
15:25:13.843750,60.27
15:25:13.859375,70.97
15:25:13.875000,78.73
15:25:13.890625,83.91
15:25:13.906250,86.90
15:25:13.921875,88.04
15:25:13.937500,87.69
15:25:13.953125,86.22
15:25:13.968750,84.03
15:25:13.984375,81.61
15:25:14,79.42
15:25:14.015625,77.80
15:25:14.031250,76.90
15:25:14.046875,76.64
15:25:14.062500,76.67
15:25:14.078125,76.55
15:25:14.093750,75.83
15:25:14.109375,74.18
15:25:14.125000,71.47
15:25:14.140625,67.73
15:25:14.156250,63.15
15:25:14.171875,57.96
15:25:14.187500,52.42
15:25:14.203125,46.76
15:25:14.218750,41.12
15:25:14.234375,35.50
15:25:14.250000,29.71
15:25:14.265625,23.49
15:25:14.281250,16.59
15:25:14.296875,8.88
15:25:14.312500,0.48
15:25:14.328125,-8.28
15:25:14.343750,-16.97
15:25:14.359375,-25.22
15:25:14.375000,-32.84
15:25:14.390625,-39.94
15:25:14.406250,-46.91
15:25:14.421875,-54.46
15:25:14.437500,-63.28
15:25:14.453125,-73.91
15:25:14.468750,-86.38
15:25:14.484375,-100.00
15:25:14.500000,-113.37
15:25:14.515625,-124.55
15:25:14.531250,-131.61
15:25:14.546875,-133.01
15:25:14.562500,-128.07
15:25:14.578125,-116.92
15:25:14.593750,-100.50
15:25:14.609375,-80.16
15:25:14.625000,-57.37
15:25:14.640625,-33.49
15:25:14.656250,-9.72
15:25:14.671875,12.92
15:25:14.687500,33.55
15:25:14.703125,51.51
15:25:14.718750,66.32
15:25:14.734375,77.71
15:25:14.750000,85.61
15:25:14.765625,90.20
15:25:14.781250,91.78
15:25:14.796875,90.85
15:25:14.812500,88.02
15:25:14.828125,84.02
15:25:14.843750,79.58
15:25:14.859375,75.34
15:25:14.875000,71.74
15:25:14.890625,68.97
15:25:14.906250,66.99
15:25:14.921875,65.51
15:25:14.937500,64.16
15:25:14.953125,62.55
15:25:14.968750,60.36
15:25:14.984375,57.36
15:25:15,53.46
15:25:15.015625,48.60
15:25:15.031250,42.80
15:25:15.046875,36.09
15:25:15.062500,28.54
15:25:15.078125,20.26
15:25:15.093750,11.37
15:25:15.109375,1.98
15:25:15.125000,-7.77
15:25:15.140625,-17.78
15:25:15.156250,-27.90
15:25:15.171875,-38.08
15:25:15.187500,-48.27
15:25:15.203125,-58.51
15:25:15.218750,-68.94
15:25:15.234375,-79.72
15:25:15.250000,-91.13
15:25:15.265625,-103.43
15:25:15.281250,-116.77
15:25:15.296875,-131.15
15:25:15.312500,-146.22
15:25:15.328125,-161.32
15:25:15.343750,-175.49
15:25:15.359375,-187.73
15:25:15.375000,-197.10
15:25:15.390625,-202.98
15:25:15.406250,-205.01
15:25:15.421875,-203.12
15:25:15.437500,-197.32
15:25:15.453125,-187.73
15:25:15.468750,-174.49
15:25:15.484375,-158.00
15:25:15.500000,-138.81
15:25:15.515625,-117.76
15:25:15.531250,-95.69
15:25:15.546875,-73.39
15:25:15.562500,-51.31
15:25:15.578125,-29.62
15:25:15.593750,-8.27
15:25:15.609375,12.81
15:25:15.625000,33.43
15:25:15.640625,53.04
15:25:15.656250,70.82
15:25:15.671875,85.93
15:25:15.687500,97.80
15:25:15.703125,106.45
15:25:15.718750,112.36
15:25:15.734375,116.45
15:25:15.750000,119.63
15:25:15.765625,122.54
15:25:15.781250,125.47
15:25:15.796875,128.42
15:25:15.812500,131.19
15:25:15.828125,133.61
15:25:15.843750,135.50
15:25:15.859375,136.71
15:25:15.875000,137.11
15:25:15.890625,136.57
15:25:15.906250,135.05
15:25:15.921875,132.57
15:25:15.937500,129.25
15:25:15.953125,125.13
15:25:15.968750,120.14
15:25:15.984375,114.02
15:25:16,106.50
15:25:16.015625,97.41
15:25:16.031250,86.84
15:25:16.046875,75.18
15:25:16.062500,63.05
15:25:16.078125,51.18
15:25:16.093750,40.20
15:25:16.109375,30.56
15:25:16.125000,22.42
15:25:16.140625,15.69
15:25:16.156250,10.10
15:25:16.171875,5.25
15:25:16.187500,0.70
15:25:16.203125,-4.04
15:25:16.218750,-9.58
15:25:16.234375,-16.60
15:25:16.250000,-25.94
15:25:16.265625,-38.33
15:25:16.281250,-54.04
15:25:16.296875,-72.51
15:25:16.312500,-92.13
15:25:16.328125,-110.39
15:25:16.343750,-124.38
15:25:16.359375,-131.47
15:25:16.375000,-130.04
15:25:16.390625,-119.76
15:25:16.406250,-101.63
15:25:16.421875,-77.58
15:25:16.437500,-49.99
15:25:16.453125,-21.17
15:25:16.468750,6.94
15:25:16.484375,32.94
15:25:16.500000,55.94
15:25:16.515625,75.45
15:25:16.531250,91.18
15:25:16.546875,102.98
15:25:16.562500,110.87
15:25:16.578125,115.12
15:25:16.593750,116.27
15:25:16.609375,115.25
15:25:16.625000,113.03
15:25:16.640625,110.48
15:25:16.656250,108.10
15:25:16.671875,106.00
15:25:16.687500,104.04
15:25:16.703125,102.14
15:25:16.718750,100.34
15:25:16.734375,98.84
15:25:16.750000,97.85
15:25:16.765625,97.32
15:25:16.781250,96.85
15:25:16.796875,95.82
15:25:16.812500,93.48
15:25:16.828125,89.39
15:25:16.843750,83.51
15:25:16.859375,76.33
15:25:16.875000,68.66
15:25:16.890625,61.31
15:25:16.906250,54.79
15:25:16.921875,49.13
15:25:16.937500,43.83
15:25:16.953125,38.14
15:25:16.968750,31.28
15:25:16.984375,22.80
15:25:17,12.62
15:25:17.015625,1.05
15:25:17.031250,-11.28
15:25:17.046875,-23.68
15:25:17.062500,-35.56
15:25:17.078125,-46.77
15:25:17.093750,-57.68
15:25:17.109375,-69.23
15:25:17.125000,-82.50
15:25:17.140625,-98.11
15:25:17.156250,-115.65
15:25:17.171875,-133.36
15:25:17.187500,-148.41
15:25:17.203125,-157.66
15:25:17.218750,-158.69
15:25:17.234375,-150.56
15:25:17.250000,-134.07
15:25:17.265625,-111.43
15:25:17.281250,-85.55
15:25:17.296875,-59.24
15:25:17.312500,-34.72
15:25:17.328125,-13.38
15:25:17.343750,4.10
15:25:17.359375,17.59
15:25:17.375000,27.33
15:25:17.390625,33.80
15:25:17.406250,37.76
15:25:17.421875,40.22
15:25:17.437500,42.25
15:25:17.453125,44.83
15:25:17.468750,48.51
15:25:17.484375,53.17
15:25:17.500000,58.03
15:25:17.515625,61.84
15:25:17.531250,63.30
15:25:17.546875,61.55
15:25:17.562500,56.48
15:25:17.578125,48.83
15:25:17.593750,40.00
15:25:17.609375,31.54
15:25:17.625000,24.72
15:25:17.640625,20.13
15:25:17.656250,17.58
15:25:17.671875,16.27
15:25:17.687500,15.13
15:25:17.703125,13.24
15:25:17.718750,10.09
15:25:17.734375,5.58
15:25:17.750000,-0.13
15:25:17.765625,-6.82
15:25:17.781250,-14.42
15:25:17.796875,-22.92
15:25:17.812500,-32.26
15:25:17.828125,-42.14
15:25:17.843750,-52.02
15:25:17.859375,-61.22
15:25:17.875000,-69.17
15:25:17.890625,-75.60
15:25:17.906250,-80.54
15:25:17.921875,-84.25
15:25:17.937500,-87.04
15:25:17.953125,-89.10
15:25:17.968750,-90.56
15:25:17.984375,-91.56
15:25:18,-92.25
15:25:18.015625,-92.79
15:25:18.031250,-93.05
15:25:18.046875,-92.53
15:25:18.062500,-90.28
15:25:18.078125,-85.24
15:25:18.093750,-76.62
15:25:18.109375,-64.34
15:25:18.125000,-49.17
15:25:18.140625,-32.61
15:25:18.156250,-16.42
15:25:18.171875,-2.14
15:25:18.187500,9.36
15:25:18.203125,18.05
15:25:18.218750,24.56
15:25:18.234375,29.91
15:25:18.250000,35.08
15:25:18.265625,40.74
15:25:18.281250,47.10
15:25:18.296875,54.02
15:25:18.312500,61.18
15:25:18.328125,68.16
15:25:18.343750,74.61
15:25:18.359375,80.22
15:25:18.375000,84.80
15:25:18.390625,88.42
15:25:18.406250,91.46
15:25:18.421875,94.70
15:25:18.437500,99.05
15:25:18.453125,105.07
15:25:18.468750,112.61
15:25:18.484375,120.62
15:25:18.500000,127.39
15:25:18.515625,131.15
15:25:18.531250,130.78
15:25:18.546875,126.33
15:25:18.562500,119.10
15:25:18.578125,111.17
15:25:18.593750,104.69
15:25:18.609375,101.20
15:25:18.625000,101.16
15:25:18.640625,104.00
15:25:18.656250,108.48
15:25:18.671875,113.28
15:25:18.687500,117.51
15:25:18.703125,120.99
15:25:18.718750,124.16
15:25:18.734375,127.69
15:25:18.750000,132.03
15:25:18.765625,136.98
15:25:18.781250,141.50
15:25:18.796875,143.83
15:25:18.812500,141.96
15:25:18.828125,134.25
15:25:18.843750,120.06
15:25:18.859375,100.03
15:25:18.875000,76.05
15:25:18.890625,50.74
15:25:18.906250,26.70
15:25:18.921875,5.85
15:25:18.937500,-11.00
15:25:18.953125,-24.15
15:25:18.968750,-34.71
15:25:18.984375,-44.00
15:25:19,-53.16
15:25:19.015625,-62.77
15:25:19.031250,-72.74
15:25:19.046875,-82.44
15:25:19.062500,-90.86
15:25:19.078125,-96.91
15:25:19.093750,-99.67
15:25:19.109375,-98.55
15:25:19.125000,-93.52
15:25:19.140625,-85.04
15:25:19.156250,-74.14
15:25:19.171875,-62.28
15:25:19.187500,-51.15
15:25:19.203125,-42.33
15:25:19.218750,-36.96
15:25:19.234375,-35.47
15:25:19.250000,-37.44
15:25:19.265625,-41.77
15:25:19.281250,-47.06
15:25:19.296875,-52.04
15:25:19.312500,-55.91
15:25:19.328125,-58.46
15:25:19.343750,-59.91
15:25:19.359375,-60.71
15:25:19.375000,-61.21
15:25:19.390625,-61.53
15:25:19.406250,-61.60
15:25:19.421875,-61.32
15:25:19.437500,-60.70
15:25:19.453125,-59.86
15:25:19.468750,-59.03
15:25:19.484375,-58.35
15:25:19.500000,-57.80
15:25:19.515625,-57.21
15:25:19.531250,-56.36
15:25:19.546875,-55.22
15:25:19.562500,-54.02
15:25:19.578125,-53.17
15:25:19.593750,-53.10
15:25:19.609375,-54.04
15:25:19.625000,-55.86
15:25:19.640625,-58.04
15:25:19.656250,-59.80
15:25:19.671875,-60.45
15:25:19.687500,-59.54
15:25:19.703125,-57.11
15:25:19.718750,-53.71
15:25:19.734375,-50.27
15:25:19.750000,-47.79
15:25:19.765625,-47.06
15:25:19.781250,-48.56
15:25:19.796875,-52.23
15:25:19.812500,-57.60
15:25:19.828125,-63.88
15:25:19.843750,-70.01
15:25:19.859375,-74.74
15:25:19.875000,-76.81
15:25:19.890625,-75.09
15:25:19.906250,-68.91
15:25:19.921875,-58.27
15:25:19.937500,-43.94
15:25:19.953125,-27.37
15:25:19.968750,-10.23
15:25:19.984375,6.01
15:25:20,20.44
15:25:20.015625,32.76
15:25:20.031250,43.11
15:25:20.046875,51.65
15:25:20.062500,58.38
15:25:20.078125,63.03
15:25:20.093750,65.29
15:25:20.109375,65.07
15:25:20.125000,62.74
15:25:20.140625,59.15
15:25:20.156250,55.37
15:25:20.171875,52.33
15:25:20.187500,50.48
15:25:20.203125,49.75
15:25:20.218750,49.64
15:25:20.234375,49.44
15:25:20.250000,48.54
15:25:20.265625,46.54
15:25:20.281250,43.28
15:25:20.296875,38.72
15:25:20.312500,32.97
15:25:20.328125,26.25
15:25:20.343750,18.94
15:25:20.359375,11.66
15:25:20.375000,5.14
15:25:20.390625,0.16
15:25:20.406250,-2.74
15:25:20.421875,-3.44
15:25:20.437500,-2.33
15:25:20.453125,-0.33
15:25:20.468750,1.42
15:25:20.484375,1.93
15:25:20.500000,0.71
15:25:20.515625,-1.92
15:25:20.531250,-4.95
15:25:20.546875,-7.02
15:25:20.562500,-7.09
15:25:20.578125,-4.98
15:25:20.593750,-1.60
15:25:20.609375,1.27
15:25:20.625000,1.60
15:25:20.640625,-2.03
15:25:20.656250,-9.92
15:25:20.671875,-21.08
15:25:20.687500,-33.49
15:25:20.703125,-44.76
15:25:20.718750,-52.69
15:25:20.734375,-55.80
15:25:20.750000,-53.47
15:25:20.765625,-46.04
15:25:20.781250,-34.57
15:25:20.796875,-20.63
15:25:20.812500,-5.92
15:25:20.828125,8.06
15:25:20.843750,20.26
15:25:20.859375,30.23
15:25:20.875000,38.03
15:25:20.890625,43.93
15:25:20.906250,48.19
15:25:20.921875,50.89
15:25:20.937500,51.93
15:25:20.953125,51.24
15:25:20.968750,48.89
15:25:20.984375,45.11
15:25:21,40.23
15:25:21.015625,34.49
15:25:21.031250,28.05
15:25:21.046875,20.99
15:25:21.062500,13.51
15:25:21.078125,5.93
15:25:21.093750,-1.30
15:25:21.109375,-7.74
15:25:21.125000,-13.11
15:25:21.140625,-17.41
15:25:21.156250,-20.83
15:25:21.171875,-23.67
15:25:21.187500,-26.16
15:25:21.203125,-28.38
15:25:21.218750,-30.20
15:25:21.234375,-31.41
15:25:21.250000,-31.81
15:25:21.265625,-31.36
15:25:21.281250,-30.26
15:25:21.296875,-28.92
15:25:21.312500,-27.98
15:25:21.328125,-28.08
15:25:21.343750,-29.75
15:25:21.359375,-33.29
15:25:21.375000,-38.73
15:25:21.390625,-45.88
15:25:21.406250,-54.50
15:25:21.421875,-64.31
15:25:21.437500,-75.04
15:25:21.453125,-86.46
15:25:21.468750,-98.25
15:25:21.484375,-109.86
15:25:21.500000,-120.41
15:25:21.515625,-128.70
15:25:21.531250,-133.42
15:25:21.546875,-133.45
15:25:21.562500,-128.20
15:25:21.578125,-117.81
15:25:21.593750,-103.18
15:25:21.609375,-85.69
15:25:21.625000,-66.77
15:25:21.640625,-47.62
15:25:21.656250,-28.96
15:25:21.671875,-11.15
15:25:21.687500,5.51
15:25:21.703125,20.56
15:25:21.718750,33.26
15:25:21.734375,42.71
15:25:21.750000,48.07
15:25:21.765625,49.03
15:25:21.781250,45.91
15:25:21.796875,39.75
15:25:21.812500,32.11
15:25:21.828125,24.68
15:25:21.843750,18.93
15:25:21.859375,15.88
15:25:21.875000,15.93
15:25:21.890625,18.93
15:25:21.906250,24.19
15:25:21.921875,30.71
15:25:21.937500,37.30
15:25:21.953125,42.83
15:25:21.968750,46.48
15:25:21.984375,47.87
15:25:22,47.07
15:25:22.015625,44.44
15:25:22.031250,40.39
15:25:22.046875,35.33
15:25:22.062500,29.40
15:25:22.078125,22.72
15:25:22.093750,15.30
15:25:22.109375,7.37
15:25:22.125000,-0.75
15:25:22.140625,-8.61
15:25:22.156250,-15.82
15:25:22.171875,-22.10
15:25:22.187500,-27.36
15:25:22.203125,-31.77
15:25:22.218750,-35.65
15:25:22.234375,-39.53
15:25:22.250000,-44.15
15:25:22.265625,-50.29
15:25:22.281250,-58.53
15:25:22.296875,-68.89
15:25:22.312500,-80.60
15:25:22.328125,-91.99
15:25:22.343750,-100.89
15:25:22.359375,-105.20
15:25:22.375000,-103.51
15:25:22.390625,-95.52
15:25:22.406250,-82.03
15:25:22.421875,-64.58
15:25:22.437500,-44.97
15:25:22.453125,-24.79
15:25:22.468750,-5.35
15:25:22.484375,12.47
15:25:22.500000,28.07
15:25:22.515625,41.04
15:25:22.531250,51.17
15:25:22.546875,58.37
15:25:22.562500,62.70
15:25:22.578125,64.39
15:25:22.593750,63.75
15:25:22.609375,61.21
15:25:22.625000,57.28
15:25:22.640625,52.52
15:25:22.656250,47.56
15:25:22.671875,43.01
15:25:22.687500,39.43
15:25:22.703125,37.19
15:25:22.718750,36.43
15:25:22.734375,36.92
15:25:22.750000,38.11
15:25:22.765625,39.21
15:25:22.781250,39.42
15:25:22.796875,38.17
15:25:22.812500,35.27
15:25:22.828125,30.91
15:25:22.843750,25.58
15:25:22.859375,19.73
15:25:22.875000,13.62
15:25:22.890625,7.22
15:25:22.906250,0.31
15:25:22.921875,-7.34
15:25:22.937500,-15.70
15:25:22.953125,-24.41
15:25:22.968750,-32.90
15:25:22.984375,-40.69
15:25:23,-47.54
15:25:23.015625,-53.63
15:25:23.031250,-59.48
15:25:23.046875,-65.78
15:25:23.062500,-73.16
15:25:23.078125,-82.09
15:25:23.093750,-92.59
15:25:23.109375,-104.16
15:25:23.125000,-115.66
15:25:23.140625,-125.39
15:25:23.156250,-131.36
15:25:23.171875,-131.81
15:25:23.187500,-125.70
15:25:23.203125,-112.96
15:25:23.218750,-94.57
15:25:23.234375,-72.08
15:25:23.250000,-47.34
15:25:23.265625,-22.08
15:25:23.281250,2.25
15:25:23.296875,24.51
15:25:23.312500,43.81
15:25:23.328125,59.59
15:25:23.343750,71.62
15:25:23.359375,79.99
15:25:23.375000,85.05
15:25:23.390625,87.26
15:25:23.406250,87.09
15:25:23.421875,85.05
15:25:23.437500,81.64
15:25:23.453125,77.48
15:25:23.468750,73.18
15:25:23.484375,69.33
15:25:23.500000,66.33
15:25:23.515625,64.33
15:25:23.531250,63.22
15:25:23.546875,62.69
15:25:23.562500,62.27
15:25:23.578125,61.45
15:25:23.593750,59.76
15:25:23.609375,56.93
15:25:23.625000,52.90
15:25:23.640625,47.89
15:25:23.656250,42.29
15:25:23.671875,36.54
15:25:23.687500,30.89
15:25:23.703125,25.29
15:25:23.718750,19.43
15:25:23.734375,12.95
15:25:23.750000,5.57
15:25:23.765625,-2.71
15:25:23.781250,-11.58
15:25:23.796875,-20.62
15:25:23.812500,-29.43
15:25:23.828125,-37.84
15:25:23.843750,-45.92
15:25:23.859375,-54.01
15:25:23.875000,-62.64
15:25:23.890625,-72.43
15:25:23.906250,-83.89
15:25:23.921875,-97.07
15:25:23.937500,-111.32
15:25:23.953125,-125.12
15:25:23.968750,-136.24
15:25:23.984375,-142.32
15:25:24,-141.55
15:25:24.015625,-133.21
15:25:24.031250,-117.78
15:25:24.046875,-96.76
15:25:24.062500,-72.06
15:25:24.078125,-45.56
15:25:24.093750,-18.84
15:25:24.109375,6.89
15:25:24.125000,30.65
15:25:24.140625,51.64
15:25:24.156250,69.15
15:25:24.171875,82.75
15:25:24.187500,92.24
15:25:24.203125,97.84
15:25:24.218750,100.11
15:25:24.234375,99.77
15:25:24.250000,97.64
15:25:24.265625,94.37
15:25:24.281250,90.44
15:25:24.296875,86.15
15:25:24.312500,81.77
15:25:24.328125,77.54
15:25:24.343750,73.85
15:25:24.359375,71.01
15:25:24.375000,69.12
15:25:24.390625,67.93
15:25:24.406250,66.83
15:25:24.421875,65.03
15:25:24.437500,61.87
15:25:24.453125,57.12
15:25:24.468750,50.93
15:25:24.484375,43.84
15:25:24.500000,36.47
15:25:24.515625,29.28
15:25:24.531250,22.39
15:25:24.546875,15.65
15:25:24.562500,8.72
15:25:24.578125,1.25
15:25:24.593750,-6.90
15:25:24.609375,-15.63
15:25:24.625000,-24.62
15:25:24.640625,-33.50
15:25:24.656250,-41.97
15:25:24.671875,-49.96
15:25:24.687500,-57.70
15:25:24.703125,-65.71
15:25:24.718750,-74.65
15:25:24.734375,-85.11
15:25:24.750000,-97.41
15:25:24.765625,-111.31
15:25:24.781250,-125.89
15:25:24.796875,-139.53
15:25:24.812500,-150.18
15:25:24.828125,-155.76
15:25:24.843750,-154.64
15:25:24.859375,-146.11
15:25:24.875000,-130.55
15:25:24.890625,-109.26
15:25:24.906250,-84.06
15:25:24.921875,-56.83
15:25:24.937500,-29.17
15:25:24.953125,-2.34
15:25:24.968750,22.56
15:25:24.984375,44.45
15:25:25,62.31
15:25:25.015625,75.28
15:25:25.031250,83.06
15:25:25.046875,85.95
15:25:25.062500,84.88
15:25:25.078125,81.05
15:25:25.093750,75.57
15:25:25.109375,69.12
15:25:25.125000,61.97
15:25:25.140625,54.10
15:25:25.156250,45.47
15:25:25.171875,36.36
15:25:25.187500,27.42
15:25:25.203125,19.60
15:25:25.218750,13.85
15:25:25.234375,10.73
15:25:25.250000,10.20
15:25:25.265625,11.61
15:25:25.281250,13.93
15:25:25.296875,16.12
15:25:25.312500,17.47
15:25:25.328125,17.71
15:25:25.343750,16.86
15:25:25.359375,15.03
15:25:25.375000,12.19
15:25:25.390625,8.15
15:25:25.406250,2.80
15:25:25.421875,-3.73
15:25:25.437500,-10.96
15:25:25.453125,-18.11
15:25:25.468750,-24.40
15:25:25.484375,-29.38
15:25:25.500000,-33.16
15:25:25.515625,-36.44
15:25:25.531250,-40.44
15:25:25.546875,-46.60
15:25:25.562500,-56.29
15:25:25.578125,-70.34
15:25:25.593750,-88.75
15:25:25.609375,-110.44
15:25:25.625000,-133.04
15:25:25.640625,-153.19
15:25:25.656250,-167.15
15:25:25.671875,-171.64
15:25:25.687500,-164.88
15:25:25.703125,-147.24
15:25:25.718750,-121.22
15:25:25.734375,-90.84
15:25:25.750000,-60.39
15:25:25.765625,-33.20
15:25:25.781250,-10.85
15:25:25.796875,6.98
15:25:25.812500,21.92
15:25:25.828125,36.02
15:25:25.843750,50.88
15:25:25.859375,67.08
15:25:25.875000,84.16
15:25:25.890625,100.74
15:25:25.906250,114.97
15:25:25.921875,125.00
15:25:25.937500,129.34
15:25:25.953125,127.33
15:25:25.968750,119.39
15:25:25.984375,107.13
15:25:26,93.12
15:25:26.015625,80.32
15:25:26.031250,71.45
15:25:26.046875,68.24
15:25:26.062500,71.00
15:25:26.078125,78.56
15:25:26.093750,88.56
15:25:26.109375,97.92
15:25:26.125000,103.66
15:25:26.140625,103.49
15:25:26.156250,96.34
15:25:26.171875,82.67
15:25:26.187500,64.35
15:25:26.203125,44.19
15:25:26.218750,25.27
15:25:26.234375,10.22
15:25:26.250000,0.69
15:25:26.265625,-2.92
15:25:26.281250,-1.36
15:25:26.296875,3.70
15:25:26.312500,10.02
15:25:26.328125,15.04
15:25:26.343750,16.28
15:25:26.359375,11.69
15:25:26.375000,0.09
15:25:26.390625,-18.46
15:25:26.406250,-42.55
15:25:26.421875,-69.56
15:25:26.437500,-96.12
15:25:26.453125,-118.69
15:25:26.468750,-134.15
15:25:26.484375,-140.38
15:25:26.500000,-136.56
15:25:26.515625,-123.42
15:25:26.531250,-103.14
15:25:26.546875,-78.94
15:25:26.562500,-54.38
15:25:26.578125,-32.50
15:25:26.593750,-15.02
15:25:26.609375,-2.03
15:25:26.625000,7.84
15:25:26.640625,16.72
15:25:26.656250,26.67
15:25:26.671875,38.99
15:25:26.687500,53.91
15:25:26.703125,70.78
15:25:26.718750,88.39
15:25:26.734375,105.31
15:25:26.750000,120.17
15:25:26.765625,131.64
15:25:26.781250,138.53
15:25:26.796875,139.80
15:25:26.812500,134.91
15:25:26.828125,124.08
15:25:26.843750,108.53
15:25:26.859375,90.41
15:25:26.875000,72.40
15:25:26.890625,57.17
15:25:26.906250,46.72
15:25:26.921875,42.05
15:25:26.937500,42.97
15:25:26.953125,48.33
15:25:26.968750,56.34
15:25:26.984375,64.95
15:25:27,72.08
15:25:27.015625,75.87
15:25:27.031250,74.83
15:25:27.046875,68.06
15:25:27.062500,55.39
15:25:27.078125,37.63
15:25:27.093750,16.44
15:25:27.109375,-5.83
15:25:27.125000,-26.55
15:25:27.140625,-43.32
15:25:27.156250,-54.35
15:25:27.171875,-58.86
15:25:27.187500,-57.17
15:25:27.203125,-50.76
15:25:27.218750,-42.12
15:25:27.234375,-34.40
15:25:27.250000,-30.90
15:25:27.265625,-34.28
15:25:27.281250,-45.80
15:25:27.296875,-64.70
15:25:27.312500,-88.06
15:25:27.328125,-111.43
15:25:27.343750,-129.81
15:25:27.359375,-138.99
15:25:27.375000,-136.50
15:25:27.390625,-121.99
15:25:27.406250,-97.01
15:25:27.421875,-64.39
15:25:27.437500,-27.48
15:25:27.453125,10.38
15:25:27.468750,46.22
15:25:27.484375,77.53
15:25:27.500000,102.40
15:25:27.515625,119.62
15:25:27.531250,128.88
15:25:27.546875,130.76
15:25:27.562500,126.70
15:25:27.578125,118.74
15:25:27.593750,109.21
15:25:27.609375,100.34
15:25:27.625000,93.96
15:25:27.640625,91.28
15:25:27.656250,92.71
15:25:27.671875,97.75
15:25:27.687500,105.19
15:25:27.703125,113.19
15:25:27.718750,119.71
15:25:27.734375,122.91
15:25:27.750000,121.61
15:25:27.765625,115.64
15:25:27.781250,105.90
15:25:27.796875,94.10
15:25:27.812500,82.25
15:25:27.828125,72.04
15:25:27.843750,64.41
15:25:27.859375,59.39
15:25:27.875000,56.30
15:25:27.890625,54.07
15:25:27.906250,51.61
15:25:27.921875,48.10
15:25:27.937500,43.06
15:25:27.953125,36.36
15:25:27.968750,28.19
15:25:27.984375,18.92
15:25:28,9.05
15:25:28.015625,-0.92
15:25:28.031250,-10.68
15:25:28.046875,-20.15
15:25:28.062500,-29.62
15:25:28.078125,-39.62
15:25:28.093750,-50.82
15:25:28.109375,-63.59
15:25:28.125000,-77.69
15:25:28.140625,-92.01
15:25:28.156250,-104.63
15:25:28.171875,-113.38
15:25:28.187500,-116.42
15:25:28.203125,-112.91
15:25:28.218750,-103.28
15:25:28.234375,-89.01
15:25:28.250000,-72.15
15:25:28.265625,-54.61
15:25:28.281250,-37.78
15:25:28.296875,-22.35
15:25:28.312500,-8.52
15:25:28.328125,3.68
15:25:28.343750,14.14
15:25:28.359375,22.58
15:25:28.375000,28.67
15:25:28.390625,32.24
15:25:28.406250,33.40
15:25:28.421875,32.62
15:25:28.437500,30.58
15:25:28.453125,28.00
15:25:28.468750,25.41
15:25:28.484375,23.12
15:25:28.500000,21.23
15:25:28.515625,19.71
15:25:28.531250,18.46
15:25:28.546875,17.35
15:25:28.562500,16.16
15:25:28.578125,14.73
15:25:28.593750,13.02
15:25:28.609375,11.23
15:25:28.625000,9.84
15:25:28.640625,9.48
15:25:28.656250,10.64
15:25:28.671875,13.52
15:25:28.687500,17.87
15:25:28.703125,23.07
15:25:28.718750,28.33
15:25:28.734375,32.89
15:25:28.750000,36.19
15:25:28.765625,37.95
15:25:28.781250,38.19
15:25:28.796875,37.15
15:25:28.812500,35.17
15:25:28.828125,32.63
15:25:28.843750,29.74
15:25:28.859375,26.41
15:25:28.875000,22.23
15:25:28.890625,16.55
15:25:28.906250,8.76
15:25:28.921875,-1.38
15:25:28.937500,-13.41
15:25:28.953125,-26.07
15:25:28.968750,-37.52
15:25:28.984375,-45.81
15:25:29,-49.52
15:25:29.015625,-48.14
15:25:29.031250,-42.21
15:25:29.046875,-33.02
15:25:29.062500,-22.16
15:25:29.078125,-11.05
15:25:29.093750,-0.68
15:25:29.109375,8.38
15:25:29.125000,15.75
15:25:29.140625,21.14
15:25:29.156250,24.24
15:25:29.171875,24.88
15:25:29.187500,23.10
15:25:29.203125,19.28
15:25:29.218750,13.97
15:25:29.234375,7.73
15:25:29.250000,0.99
15:25:29.265625,-5.95
15:25:29.281250,-12.71
15:25:29.296875,-18.77
15:25:29.312500,-23.37
15:25:29.328125,-25.76
15:25:29.343750,-25.58
15:25:29.359375,-23.07
15:25:29.375000,-19.19
15:25:29.390625,-15.33
15:25:29.406250,-12.98
15:25:29.421875,-13.18
15:25:29.437500,-16.34
15:25:29.453125,-22.18
15:25:29.468750,-29.93
15:25:29.484375,-38.59
15:25:29.500000,-47.16
15:25:29.515625,-54.94
15:25:29.531250,-61.54
15:25:29.546875,-66.91
15:25:29.562500,-71.20
15:25:29.578125,-74.59
15:25:29.593750,-77.14
15:25:29.609375,-78.78
15:25:29.625000,-79.43
15:25:29.640625,-79.15
15:25:29.656250,-78.34
15:25:29.671875,-77.68
15:25:29.687500,-78.03
15:25:29.703125,-80.14
15:25:29.718750,-84.39
15:25:29.734375,-90.54
15:25:29.750000,-97.72
15:25:29.765625,-104.45
15:25:29.781250,-109.01
15:25:29.796875,-109.80
15:25:29.812500,-105.75
15:25:29.828125,-96.65
15:25:29.843750,-83.19
15:25:29.859375,-66.72
15:25:29.875000,-48.84
15:25:29.890625,-30.90
15:25:29.906250,-13.77
15:25:29.921875,2.19
15:25:29.937500,16.86
15:25:29.953125,30.05
15:25:29.968750,41.35
15:25:29.984375,50.25
15:25:30,56.35
15:25:30.015625,59.58
15:25:30.031250,60.34
15:25:30.046875,59.32
15:25:30.062500,57.22
15:25:30.078125,54.63
15:25:30.093750,51.89
15:25:30.109375,49.21
15:25:30.125000,46.74
15:25:30.140625,44.74
15:25:30.156250,43.36
15:25:30.171875,42.65
15:25:30.187500,42.38
15:25:30.203125,42.02
15:25:30.218750,41.01
15:25:30.234375,38.91
15:25:30.250000,35.60
15:25:30.265625,31.34
15:25:30.281250,26.64
15:25:30.296875,22.02
15:25:30.312500,17.79
15:25:30.328125,13.95
15:25:30.343750,10.24
15:25:30.359375,6.29
15:25:30.375000,1.85
15:25:30.390625,-3.15
15:25:30.406250,-8.55
15:25:30.421875,-14.08
15:25:30.437500,-19.53
15:25:30.453125,-24.79
15:25:30.468750,-29.94
15:25:30.484375,-35.14
15:25:30.500000,-40.71
15:25:30.515625,-47.11
15:25:30.531250,-54.83
15:25:30.546875,-64.27
15:25:30.562500,-75.44
15:25:30.578125,-87.65
15:25:30.593750,-99.38
15:25:30.609375,-108.58
15:25:30.625000,-113.16
15:25:30.640625,-111.66
15:25:30.656250,-103.75
15:25:30.671875,-90.23
15:25:30.687500,-72.72
15:25:30.703125,-53.09
15:25:30.718750,-32.91
15:25:30.734375,-13.23
15:25:30.750000,5.27
15:25:30.765625,22.13
15:25:30.781250,36.84
15:25:30.796875,48.79
15:25:30.812500,57.43
15:25:30.828125,62.56
15:25:30.843750,64.37
15:25:30.859375,63.52
15:25:30.875000,60.93
15:25:30.890625,57.55
15:25:30.906250,54.13
15:25:30.921875,51.08
15:25:30.937500,48.60
15:25:30.953125,46.74
15:25:30.968750,45.59
15:25:30.984375,45.34
15:25:31,46.15
15:25:31.015625,48.05
15:25:31.031250,50.71
15:25:31.046875,53.58
15:25:31.062500,55.99
15:25:31.078125,57.38
15:25:31.093750,57.47
15:25:31.109375,56.30
15:25:31.125000,54.09
15:25:31.140625,51.14
15:25:31.156250,47.69
15:25:31.171875,43.89
15:25:31.187500,39.85
15:25:31.203125,35.67
15:25:31.218750,31.52
15:25:31.234375,27.52
15:25:31.250000,23.78
15:25:31.265625,20.35
15:25:31.281250,17.21
15:25:31.296875,14.28
15:25:31.312500,11.45
15:25:31.328125,8.66
15:25:31.343750,5.84
15:25:31.359375,2.96
15:25:31.375000,0.07
15:25:31.390625,-2.79
15:25:31.406250,-5.59
15:25:31.421875,-8.41
15:25:31.437500,-11.35
15:25:31.453125,-14.47
15:25:31.468750,-17.58
15:25:31.484375,-20.31
15:25:31.500000,-22.22
15:25:31.515625,-22.94
15:25:31.531250,-22.49
15:25:31.546875,-21.21
15:25:31.562500,-19.76
15:25:31.578125,-18.79
15:25:31.593750,-18.71
15:25:31.609375,-19.64
15:25:31.625000,-21.29
15:25:31.640625,-23.17
15:25:31.656250,-24.70
15:25:31.671875,-25.33
15:25:31.687500,-24.72
15:25:31.703125,-22.81
15:25:31.718750,-19.88
15:25:31.734375,-16.58
15:25:31.750000,-13.77
15:25:31.765625,-12.22
15:25:31.781250,-12.39
15:25:31.796875,-14.27
15:25:31.812500,-17.44
15:25:31.828125,-21.27
15:25:31.843750,-25.39
15:25:31.859375,-29.76
15:25:31.875000,-34.70
15:25:31.890625,-40.64
15:25:31.906250,-47.75
15:25:31.921875,-55.89
15:25:31.937500,-64.57
15:25:31.953125,-73.21
15:25:31.968750,-81.37
15:25:31.984375,-88.85
15:25:32,-95.68
15:25:32.015625,-102.05
15:25:32.031250,-108.27
15:25:32.046875,-114.80
15:25:32.062500,-122.19
15:25:32.078125,-130.80
15:25:32.093750,-140.44
15:25:32.109375,-150.02
15:25:32.125000,-157.54
15:25:32.140625,-160.60
15:25:32.156250,-157.20
15:25:32.171875,-146.42
15:25:32.187500,-128.76
15:25:32.203125,-105.91
15:25:32.218750,-80.06
15:25:32.234375,-53.24
