16:26:16,-0.00
16:26:16.015625,-0.00
16:26:16.031250,-0.00
16:26:16.046875,-0.00
16:26:16.062500,-0.00
16:26:16.078125,-0.00
16:26:16.093750,-0.00
16:26:16.109375,-0.00
16:26:16.125000,-0.00
16:26:16.140625,-0.01
16:26:16.156250,-0.00
16:26:16.171875,0.00
16:26:16.187500,0.01
16:26:16.203125,0.01
16:26:16.218750,-0.00
16:26:16.234375,-0.03
16:26:16.250000,-0.05
16:26:16.265625,-0.05
16:26:16.281250,-0.00
16:26:16.296875,0.13
16:26:16.312500,0.36
16:26:16.328125,0.66
16:26:16.343750,1.01
16:26:16.359375,1.37
16:26:16.375000,1.72
16:26:16.390625,2.06
16:26:16.406250,2.40
16:26:16.421875,2.77
16:26:16.437500,3.24
16:26:16.453125,3.80
16:26:16.468750,4.42
16:26:16.484375,5.06
16:26:16.500000,5.66
16:26:16.515625,6.20
16:26:16.531250,6.68
16:26:16.546875,7.15
16:26:16.562500,7.64
16:26:16.578125,8.31
16:26:16.593750,9.14
16:26:16.609375,10.09
16:26:16.625000,11.04
16:26:16.640625,11.88
16:26:16.656250,12.56
16:26:16.671875,13.14
16:26:16.687500,13.76
16:26:16.703125,14.58
16:26:16.718750,15.96
16:26:16.734375,17.91
16:26:16.750000,20.32
16:26:16.765625,22.90
16:26:16.781250,25.38
16:26:16.796875,27.58
16:26:16.812500,29.57
16:26:16.828125,31.68
16:26:16.843750,34.20
16:26:16.859375,37.81
16:26:16.875000,42.54
16:26:16.890625,48.15
16:26:16.906250,54.10
16:26:16.921875,59.83
16:26:16.937500,64.97
16:26:16.953125,69.58
16:26:16.968750,74.14
16:26:16.984375,79.19
16:26:17,85.71
16:26:17.015625,93.76
16:26:17.031250,103.00
16:26:17.046875,112.62
16:26:17.062500,121.73
16:26:17.078125,129.77
16:26:17.093750,136.75
16:26:17.109375,144.29
16:26:17.125000,150.58
16:26:17.140625,157.77
16:26:17.156250,166.64
16:26:17.171875,177.95
16:26:17.187500,191.79
16:26:17.203125,206.97
16:26:17.218750,220.57
16:26:17.234375,228.25
16:26:17.250000,225.36
16:26:17.265625,208.37
16:26:17.281250,176.87
16:26:17.296875,132.76
16:26:17.312500,80.05
16:26:17.328125,23.07
16:26:17.343750,-34.94
16:26:17.359375,-92.44
16:26:17.375000,-149.16
16:26:17.390625,-205.23
16:26:17.406250,-260.49
16:26:17.421875,-313.74
16:26:17.437500,-363.87
16:26:17.453125,-409.83
16:26:17.468750,-450.91
16:26:17.484375,-486.50
16:26:17.500000,-515.74
16:26:17.515625,-537.23
16:26:17.531250,-549.22
16:26:17.546875,-550.04
16:26:17.562500,-538.37
16:26:17.578125,-514.20
16:26:17.593750,-478.67
16:26:17.609375,-433.88
16:26:17.625000,-382.45
16:26:17.640625,-327.02
16:26:17.656250,-269.84
16:26:17.671875,-212.63
16:26:17.687500,-156.70
16:26:17.703125,-102.95
16:26:17.718750,-52.37
16:26:17.734375,-5.90
16:26:17.750000,35.58
16:26:17.765625,71.43
16:26:17.781250,101.35
16:26:17.796875,125.50
16:26:17.812500,144.38
16:26:17.828125,158.68
16:26:17.843750,169.15
16:26:17.859375,176.37
16:26:17.875000,180.75
16:26:17.890625,182.57
16:26:17.906250,182.07
16:26:17.921875,179.51
16:26:17.937500,175.23
16:26:17.953125,169.65
16:26:17.968750,163.18
16:26:17.984375,156.15
16:26:18,148.81
16:26:18.015625,141.30
16:26:18.031250,133.69
16:26:18.046875,126.02
16:26:18.062500,118.33
16:26:18.078125,110.69
16:26:18.093750,103.16
16:26:18.109375,95.80
16:26:18.125000,88.68
16:26:18.140625,81.83
16:26:18.156250,75.25
16:26:18.171875,68.95
16:26:18.187500,62.95
16:26:18.203125,57.25
16:26:18.218750,51.86
16:26:18.234375,46.78
16:26:18.250000,42.03
16:26:18.265625,37.59
16:26:18.281250,33.45
16:26:18.296875,29.61
16:26:18.312500,26.07
16:26:18.328125,22.81
16:26:18.343750,19.82
16:26:18.359375,17.11
16:26:18.375000,14.67
16:26:18.390625,12.48
16:26:18.406250,10.54
16:26:18.421875,8.83
16:26:18.437500,7.35
16:26:18.453125,6.07
16:26:18.468750,4.97
16:26:18.484375,4.05
16:26:18.500000,3.27
16:26:18.515625,2.62
16:26:18.531250,2.09
16:26:18.546875,1.65
16:26:18.562500,1.30
16:26:18.578125,1.01
16:26:18.593750,0.79
16:26:18.609375,0.61
16:26:18.625000,0.47
16:26:18.640625,0.37
16:26:18.656250,0.28
16:26:18.671875,0.22
16:26:18.687500,0.18
16:26:18.703125,0.14
16:26:18.718750,0.12
16:26:18.734375,0.11
16:26:18.750000,0.11
16:26:18.765625,0.11
16:26:18.781250,0.12
16:26:18.796875,0.14
16:26:18.812500,0.16
16:26:18.828125,0.19
16:26:18.843750,0.22
16:26:18.859375,0.26
16:26:18.875000,0.29
16:26:18.890625,0.34
16:26:18.906250,0.38
16:26:18.921875,0.42
16:26:18.937500,0.47
16:26:18.953125,0.52
16:26:18.968750,0.57
16:26:18.984375,0.62
16:26:19,0.69
16:26:19.015625,0.75
16:26:19.031250,0.82
16:26:19.046875,0.90
16:26:19.062500,0.98
16:26:19.078125,1.08
16:26:19.093750,1.18
16:26:19.109375,1.29
16:26:19.125000,1.41
16:26:19.140625,1.54
16:26:19.156250,1.69
16:26:19.171875,1.86
16:26:19.187500,2.05
16:26:19.203125,2.25
16:26:19.218750,2.47
16:26:19.234375,2.73
16:26:19.250000,3.00
16:26:19.265625,3.31
16:26:19.281250,3.64
16:26:19.296875,4.01
16:26:19.312500,4.41
16:26:19.328125,4.85
16:26:19.343750,5.32
16:26:19.359375,5.83
16:26:19.375000,6.39
16:26:19.390625,7.00
16:26:19.406250,7.66
16:26:19.421875,8.38
16:26:19.437500,9.12
16:26:19.453125,9.89
16:26:19.468750,10.66
16:26:19.484375,11.43
16:26:19.500000,12.23
16:26:19.515625,13.08
16:26:19.531250,14.03
16:26:19.546875,15.11
16:26:19.562500,16.29
16:26:19.578125,17.56
16:26:19.593750,18.87
16:26:19.609375,20.17
16:26:19.625000,21.42
16:26:19.640625,22.57
16:26:19.656250,23.60
16:26:19.671875,24.43
16:26:19.687500,24.96
16:26:19.703125,25.05
16:26:19.718750,24.55
16:26:19.734375,23.29
16:26:19.750000,21.19
16:26:19.765625,18.28
16:26:19.781250,14.68
16:26:19.796875,10.57
16:26:19.812500,6.22
16:26:19.828125,1.87
16:26:19.843750,-2.33
16:26:19.859375,-6.37
16:26:19.875000,-10.24
16:26:19.890625,-14.00
16:26:19.906250,-17.58
16:26:19.921875,-20.84
16:26:19.937500,-23.57
16:26:19.953125,-25.61
16:26:19.968750,-26.94
16:26:19.984375,-27.78
16:26:20,-28.48
16:26:20.015625,-29.46
16:26:20.031250,-31.01
16:26:20.046875,-33.10
16:26:20.062500,-35.37
16:26:20.078125,-37.29
16:26:20.093750,-38.35
16:26:20.109375,-38.31
16:26:20.125000,-37.40
16:26:20.140625,-36.18
16:26:20.156250,-35.34
16:26:20.171875,-35.41
16:26:20.187500,-36.47
16:26:20.203125,-38.09
16:26:20.218750,-39.61
16:26:20.234375,-40.42
16:26:20.250000,-40.28
16:26:20.265625,-39.46
16:26:20.281250,-38.60
16:26:20.296875,-38.41
16:26:20.312500,-39.48
16:26:20.328125,-42.18
16:26:20.343750,-46.72
16:26:20.359375,-52.93
16:26:20.375000,-60.02
16:26:20.390625,-66.31
16:26:20.406250,-69.43
16:26:20.421875,-67.05
16:26:20.437500,-58.04
16:26:20.453125,-43.35
16:26:20.468750,-25.97
16:26:20.484375,-10.03
16:26:20.500000,0.83
16:26:20.515625,4.78
16:26:20.531250,2.21
16:26:20.546875,-4.87
16:26:20.562500,-14.04
16:26:20.578125,-23.46
16:26:20.593750,-32.30
16:26:20.609375,-40.32
16:26:20.625000,-47.32
16:26:20.640625,-52.91
16:26:20.656250,-56.68
16:26:20.671875,-58.71
16:26:20.687500,-59.82
16:26:20.703125,-61.30
16:26:20.718750,-64.31
16:26:20.734375,-69.14
16:26:20.750000,-74.77
16:26:20.765625,-78.95
16:26:20.781250,-78.77
16:26:20.796875,-71.43
16:26:20.812500,-55.52
16:26:20.828125,-31.43
16:26:20.843750,-1.38
16:26:20.859375,31.31
16:26:20.875000,63.05
16:26:20.890625,90.90
16:26:20.906250,113.12
16:26:20.921875,129.09
16:26:20.937500,139.07
16:26:20.953125,143.63
16:26:20.968750,143.41
16:26:20.984375,138.96
16:26:21,130.90
16:26:21.015625,120.10
16:26:21.031250,107.77
16:26:21.046875,95.37
16:26:21.062500,84.36
16:26:21.078125,75.91
16:26:21.093750,70.68
16:26:21.109375,68.74
16:26:21.125000,69.72
16:26:21.140625,72.90
16:26:21.156250,77.40
16:26:21.171875,82.21
16:26:21.187500,86.22
16:26:21.203125,88.18
16:26:21.218750,86.89
16:26:21.234375,81.33
16:26:21.250000,71.10
16:26:21.265625,56.60
16:26:21.281250,39.11
16:26:21.296875,20.51
16:26:21.312500,2.74
16:26:21.328125,-12.60
16:26:21.343750,-24.66
16:26:21.359375,-33.50
16:26:21.375000,-39.87
16:26:21.390625,-44.95
16:26:21.406250,-49.82
16:26:21.421875,-55.12
16:26:21.437500,-60.55
16:26:21.453125,-64.78
16:26:21.468750,-65.65
16:26:21.484375,-60.72
16:26:21.500000,-48.04
16:26:21.515625,-26.91
16:26:21.531250,1.83
16:26:21.546875,35.91
16:26:21.562500,72.09
16:26:21.578125,107.00
16:26:21.593750,137.69
16:26:21.609375,162.08
16:26:21.625000,178.99
16:26:21.640625,188.10
16:26:21.656250,189.70
16:26:21.671875,184.60
16:26:21.687500,173.97
16:26:21.703125,159.27
16:26:21.718750,142.11
16:26:21.734375,124.03
16:26:21.750000,106.34
16:26:21.765625,89.96
16:26:21.781250,75.34
16:26:21.796875,62.53
16:26:21.812500,51.30
16:26:21.828125,41.26
16:26:21.843750,31.98
16:26:21.859375,23.04
16:26:21.875000,14.04
16:26:21.890625,4.63
16:26:21.906250,-5.46
16:26:21.921875,-16.36
16:26:21.937500,-28.01
16:26:21.953125,-40.20
16:26:21.968750,-52.64
16:26:21.984375,-65.04
16:26:22,-77.20
16:26:22.015625,-89.14
16:26:22.031250,-101.16
16:26:22.046875,-113.84
16:26:22.062500,-127.88
16:26:22.078125,-143.78
16:26:22.093750,-161.34
16:26:22.109375,-179.26
16:26:22.125000,-195.03
16:26:22.140625,-205.37
16:26:22.156250,-207.07
16:26:22.171875,-198.02
16:26:22.187500,-177.93
16:26:22.203125,-148.44
16:26:22.218750,-112.69
16:26:22.234375,-74.39
16:26:22.250000,-36.98
16:26:22.265625,-3.11
16:26:22.281250,25.45
16:26:22.296875,47.73
16:26:22.312500,63.32
16:26:22.328125,72.32
16:26:22.343750,75.30
16:26:22.359375,73.27
16:26:22.375000,67.62
16:26:22.390625,59.84
16:26:22.406250,51.46
16:26:22.421875,43.72
16:26:22.437500,37.62
16:26:22.453125,33.67
16:26:22.468750,31.95
16:26:22.484375,32.02
16:26:22.500000,33.07
16:26:22.515625,34.07
16:26:22.531250,34.04
16:26:22.546875,32.23
16:26:22.562500,28.26
16:26:22.578125,22.13
16:26:22.593750,14.09
16:26:22.609375,4.51
16:26:22.625000,-6.19
16:26:22.640625,-17.58
16:26:22.656250,-29.34
16:26:22.671875,-41.32
16:26:22.687500,-53.60
16:26:22.703125,-66.48
16:26:22.718750,-80.30
16:26:22.734375,-95.06
16:26:22.750000,-109.96
16:26:22.765625,-123.20
16:26:22.781250,-132.11
16:26:22.796875,-133.78
16:26:22.812500,-125.94
16:26:22.828125,-107.72
16:26:22.843750,-80.11
16:26:22.859375,-45.68
16:26:22.875000,-7.92
16:26:22.890625,29.56
16:26:22.906250,63.67
16:26:22.921875,92.18
16:26:22.937500,113.70
16:26:22.953125,127.60
16:26:22.968750,133.87
16:26:22.984375,133.16
16:26:23,126.70
16:26:23.015625,116.22
16:26:23.031250,103.59
16:26:23.046875,90.57
16:26:23.062500,78.38
16:26:23.078125,67.72
16:26:23.093750,58.77
16:26:23.109375,51.44
16:26:23.125000,45.54
16:26:23.140625,40.83
16:26:23.156250,36.97
16:26:23.171875,33.48
16:26:23.187500,29.68
16:26:23.203125,24.83
16:26:23.218750,18.28
16:26:23.234375,9.64
16:26:23.250000,-1.10
16:26:23.265625,-13.59
16:26:23.281250,-27.22
16:26:23.296875,-41.36
16:26:23.312500,-55.50
16:26:23.328125,-69.44
16:26:23.343750,-83.33
16:26:23.359375,-97.62
16:26:23.375000,-112.81
16:26:23.390625,-129.07
16:26:23.406250,-145.76
16:26:23.421875,-161.28
16:26:23.437500,-173.00
16:26:23.453125,-177.91
16:26:23.468750,-173.39
16:26:23.484375,-158.11
16:26:23.500000,-132.67
16:26:23.515625,-99.45
16:26:23.531250,-62.03
16:26:23.546875,-24.24
16:26:23.562500,10.67
16:26:23.578125,40.49
16:26:23.593750,64.01
16:26:23.609375,80.70
16:26:23.625000,90.51
16:26:23.640625,93.80
16:26:23.656250,91.46
16:26:23.671875,84.96
16:26:23.687500,76.20
16:26:23.703125,67.16
16:26:23.718750,59.35
16:26:23.734375,53.59
16:26:23.750000,49.94
16:26:23.765625,47.98
16:26:23.781250,47.16
16:26:23.796875,47.04
16:26:23.812500,47.24
16:26:23.828125,47.38
16:26:23.843750,46.93
16:26:23.859375,45.16
16:26:23.875000,41.32
16:26:23.890625,34.93
16:26:23.906250,25.97
16:26:23.921875,14.93
16:26:23.937500,2.67
16:26:23.953125,-9.91
16:26:23.968750,-22.11
16:26:23.984375,-33.65
16:26:24,-44.67
16:26:24.015625,-55.69
16:26:24.031250,-67.42
16:26:24.046875,-80.50
16:26:24.062500,-95.18
16:26:24.078125,-110.85
16:26:24.093750,-125.84
16:26:24.109375,-137.45
16:26:24.125000,-142.54
16:26:24.140625,-138.43
16:26:24.156250,-123.85
16:26:24.171875,-99.48
16:26:24.187500,-67.84
16:26:24.203125,-32.54
16:26:24.218750,2.75
16:26:24.234375,35.09
16:26:24.250000,62.59
16:26:24.265625,84.22
16:26:24.281250,99.49
16:26:24.296875,108.23
16:26:24.312500,110.53
16:26:24.328125,107.06
16:26:24.343750,99.16
16:26:24.359375,88.75
16:26:24.375000,77.98
16:26:24.390625,68.67
16:26:24.406250,61.83
16:26:24.421875,57.62
16:26:24.437500,55.42
16:26:24.453125,54.31
16:26:24.468750,53.44
16:26:24.484375,52.34
16:26:24.500000,50.90
16:26:24.515625,49.16
16:26:24.531250,47.06
16:26:24.546875,44.23
16:26:24.562500,40.06
16:26:24.578125,33.91
16:26:24.593750,25.44
16:26:24.609375,14.75
16:26:24.625000,2.52
16:26:24.640625,-10.27
16:26:24.656250,-22.62
16:26:24.671875,-33.81
16:26:24.687500,-43.65
16:26:24.703125,-52.43
16:26:24.718750,-60.88
16:26:24.734375,-69.94
16:26:24.750000,-80.55
16:26:24.765625,-93.35
16:26:24.781250,-108.39
16:26:24.796875,-124.75
16:26:24.812500,-140.38
16:26:24.828125,-152.31
16:26:24.843750,-157.20
16:26:24.859375,-152.36
16:26:24.875000,-136.54
16:26:24.890625,-110.53
16:26:24.906250,-76.92
16:26:24.921875,-39.46
16:26:24.937500,-2.06
16:26:24.953125,32.10
16:26:24.968750,60.94
16:26:24.984375,83.46
16:26:25,99.36
16:26:25.015625,108.81
16:26:25.031250,112.25
16:26:25.046875,110.44
16:26:25.062500,104.53
16:26:25.078125,96.06
16:26:25.093750,86.69
16:26:25.109375,77.98
16:26:25.125000,70.96
16:26:25.140625,66.10
16:26:25.156250,63.29
16:26:25.171875,62.08
16:26:25.187500,61.94
16:26:25.203125,62.44
16:26:25.218750,63.23
16:26:25.234375,63.92
16:26:25.250000,63.99
16:26:25.265625,62.76
16:26:25.281250,59.54
16:26:25.296875,53.93
16:26:25.312500,46.03
16:26:25.328125,36.48
16:26:25.343750,26.22
16:26:25.359375,16.09
16:26:25.375000,6.56
16:26:25.390625,-2.43
16:26:25.406250,-11.30
16:26:25.421875,-20.54
16:26:25.437500,-30.37
16:26:25.453125,-40.63
16:26:25.468750,-50.85
16:26:25.484375,-60.51
16:26:25.500000,-69.28
16:26:25.515625,-77.21
16:26:25.531250,-84.74
16:26:25.546875,-92.65
16:26:25.562500,-101.84
16:26:25.578125,-113.00
16:26:25.593750,-126.18
16:26:25.609375,-140.38
16:26:25.625000,-153.44
16:26:25.640625,-162.25
16:26:25.656250,-163.56
16:26:25.671875,-154.91
16:26:25.687500,-135.47
16:26:25.703125,-106.43
16:26:25.718750,-70.66
16:26:25.734375,-31.99
16:26:25.750000,5.84
16:26:25.765625,39.85
16:26:25.781250,68.18
16:26:25.796875,89.96
16:26:25.812500,105.05
16:26:25.828125,113.69
16:26:25.843750,116.45
16:26:25.859375,114.23
16:26:25.875000,108.32
16:26:25.890625,100.33
16:26:25.906250,91.96
16:26:25.921875,84.65
16:26:25.937500,79.30
16:26:25.953125,76.22
16:26:25.968750,75.13
16:26:25.984375,75.45
16:26:26,76.51
16:26:26.015625,77.70
16:26:26.031250,78.57
16:26:26.046875,78.78
16:26:26.062500,78.09
16:26:26.078125,76.27
16:26:26.093750,73.16
16:26:26.109375,68.65
16:26:26.125000,62.74
16:26:26.140625,55.55
16:26:26.156250,47.33
16:26:26.171875,38.38
16:26:26.187500,29.12
16:26:26.203125,19.93
16:26:26.218750,11.12
16:26:26.234375,2.85
16:26:26.250000,-4.94
16:26:26.265625,-12.42
16:26:26.281250,-19.90
16:26:26.296875,-27.64
16:26:26.312500,-35.83
16:26:26.328125,-44.44
16:26:26.343750,-53.24
16:26:26.359375,-61.89
16:26:26.375000,-70.05
16:26:26.390625,-77.50
16:26:26.406250,-84.24
16:26:26.421875,-90.47
16:26:26.437500,-96.64
16:26:26.453125,-103.38
16:26:26.468750,-111.54
16:26:26.484375,-121.87
16:26:26.500000,-134.73
16:26:26.515625,-149.61
16:26:26.531250,-164.70
16:26:26.546875,-176.95
16:26:26.562500,-182.66
16:26:26.578125,-178.52
16:26:26.593750,-162.78
16:26:26.609375,-135.94
16:26:26.625000,-100.64
16:26:26.640625,-60.92
16:26:26.656250,-21.00
16:26:26.671875,15.71
16:26:26.687500,47.11
16:26:26.703125,72.26
16:26:26.718750,90.96
16:26:26.734375,103.37
16:26:26.750000,109.75
16:26:26.765625,110.73
16:26:26.781250,107.29
16:26:26.796875,100.94
16:26:26.812500,93.35
16:26:26.828125,86.04
16:26:26.843750,80.08
16:26:26.859375,75.95
16:26:26.875000,73.55
16:26:26.890625,72.53
16:26:26.906250,72.46
16:26:26.921875,72.98
16:26:26.937500,73.81
16:26:26.953125,74.75
16:26:26.968750,75.54
16:26:26.984375,75.80
16:26:27,75.09
16:26:27.015625,72.96
16:26:27.031250,69.03
16:26:27.046875,63.18
16:26:27.062500,55.52
16:26:27.078125,46.56
16:26:27.093750,36.99
16:26:27.109375,27.53
16:26:27.125000,18.67
16:26:27.140625,10.52
16:26:27.156250,2.78
16:26:27.171875,-5.07
16:26:27.187500,-13.43
16:26:27.203125,-22.41
16:26:27.218750,-31.73
16:26:27.234375,-40.85
16:26:27.250000,-49.36
16:26:27.265625,-57.08
16:26:27.281250,-64.27
16:26:27.296875,-71.44
16:26:27.312500,-79.21
16:26:27.328125,-88.17
16:26:27.343750,-98.77
16:26:27.359375,-111.19
16:26:27.375000,-125.21
16:26:27.390625,-139.85
16:26:27.406250,-153.26
16:26:27.421875,-162.78
16:26:27.437500,-165.53
16:26:27.453125,-159.20
16:26:27.468750,-142.86
16:26:27.484375,-117.41
16:26:27.500000,-85.36
16:26:27.515625,-50.18
16:26:27.531250,-15.36
16:26:27.546875,16.24
16:26:27.562500,42.78
16:26:27.578125,63.33
16:26:27.593750,77.64
16:26:27.609375,85.84
16:26:27.625000,88.41
16:26:27.640625,86.14
16:26:27.656250,80.17
16:26:27.671875,71.88
16:26:27.687500,62.73
16:26:27.703125,53.99
16:26:27.718750,46.58
16:26:27.734375,41.03
16:26:27.750000,37.53
16:26:27.765625,35.98
16:26:27.781250,36.08
16:26:27.796875,37.34
16:26:27.812500,39.05
16:26:27.828125,40.40
16:26:27.843750,40.57
16:26:27.859375,38.97
16:26:27.875000,35.31
16:26:27.890625,29.76
16:26:27.906250,22.81
16:26:27.921875,15.11
16:26:27.937500,7.23
16:26:27.953125,-0.56
16:26:27.968750,-8.30
16:26:27.984375,-16.24
16:26:28,-24.63
16:26:28.015625,-33.49
16:26:28.031250,-42.56
16:26:28.046875,-51.32
16:26:28.062500,-59.27
16:26:28.078125,-66.16
16:26:28.093750,-72.18
16:26:28.109375,-78.01
16:26:28.125000,-84.66
16:26:28.140625,-93.29
16:26:28.156250,-104.81
16:26:28.171875,-119.48
16:26:28.187500,-136.42
16:26:28.203125,-153.49
16:26:28.218750,-167.48
16:26:28.234375,-174.83
16:26:28.250000,-172.66
16:26:28.265625,-159.74
16:26:28.281250,-136.99
16:26:28.296875,-107.17
16:26:28.312500,-74.14
16:26:28.328125,-41.69
16:26:28.343750,-12.75
16:26:28.359375,11.03
16:26:28.375000,29.08
16:26:28.390625,41.55
16:26:28.406250,48.86
16:26:28.421875,51.58
16:26:28.437500,50.42
16:26:28.453125,46.42
16:26:28.468750,40.93
16:26:28.484375,35.48
16:26:28.500000,31.58
16:26:28.515625,30.32
16:26:28.531250,32.10
16:26:28.546875,36.52
16:26:28.562500,42.52
16:26:28.578125,48.73
16:26:28.593750,53.87
16:26:28.609375,57.16
16:26:28.625000,58.35
16:26:28.640625,57.57
16:26:28.656250,54.96
16:26:28.671875,50.40
16:26:28.687500,43.38
16:26:28.703125,33.17
16:26:28.718750,19.23
16:26:28.734375,1.55
16:26:28.750000,-19.10
16:26:28.765625,-41.22
16:26:28.781250,-62.86
16:26:28.796875,-82.08
16:26:28.812500,-97.44
16:26:28.828125,-108.38
16:26:28.843750,-115.39
16:26:28.859375,-119.79
16:26:28.875000,-123.49
16:26:28.890625,-128.44
16:26:28.906250,-136.26
16:26:28.921875,-147.94
16:26:28.937500,-163.63
16:26:28.953125,-182.39
16:26:28.968750,-202.14
16:26:28.984375,-219.79
16:26:29,-231.77
16:26:29.015625,-234.78
16:26:29.031250,-226.69
16:26:29.046875,-206.94
16:26:29.062500,-176.47
16:26:29.078125,-137.23
16:26:29.093750,-91.66
16:26:29.109375,-42.55
16:26:29.125000,6.82
16:26:29.140625,52.44
16:26:29.156250,89.80
16:26:29.171875,114.75
16:26:29.187500,124.71
16:26:29.203125,119.81
16:26:29.218750,103.27
16:26:29.234375,80.74
16:26:29.250000,58.82
16:26:29.265625,43.36
16:26:29.281250,38.03
16:26:29.296875,43.64
16:26:29.312500,58.41
16:26:29.328125,78.66
16:26:29.343750,100.07
16:26:29.359375,118.66
16:26:29.375000,131.60
16:26:29.390625,137.60
16:26:29.406250,136.86
16:26:29.421875,130.75
16:26:29.437500,121.37
16:26:29.453125,111.00
16:26:29.468750,101.66
16:26:29.484375,94.66
16:26:29.500000,90.26
16:26:29.515625,87.64
16:26:29.531250,85.11
16:26:29.546875,80.59
16:26:29.562500,72.32
16:26:29.578125,59.39
16:26:29.593750,42.06
16:26:29.609375,21.73
16:26:29.625000,0.49
16:26:29.640625,-19.24
16:26:29.656250,-35.14
16:26:29.671875,-45.38
16:26:29.687500,-48.71
16:26:29.703125,-44.75
16:26:29.718750,-33.88
16:26:29.734375,-17.05
16:26:29.750000,4.57
16:26:29.765625,30.02
16:26:29.781250,58.82
16:26:29.796875,90.80
16:26:29.812500,125.64
16:26:29.828125,162.33
16:26:29.843750,198.78
16:26:29.859375,232.00
16:26:29.875000,258.75
16:26:29.890625,276.33
16:26:29.906250,283.30
16:26:29.921875,279.77
16:26:29.937500,267.14
16:26:29.953125,247.61
16:26:29.968750,223.68
16:26:29.984375,197.70
16:26:30,171.73
16:26:30.015625,147.47
16:26:30.031250,126.32
16:26:30.046875,109.20
16:26:30.062500,96.45
16:26:30.078125,87.61
16:26:30.093750,81.43
16:26:30.109375,76.06
16:26:30.125000,69.53
16:26:30.140625,60.28
16:26:30.156250,47.54
16:26:30.171875,31.60
16:26:30.187500,13.56
16:26:30.203125,-4.97
16:26:30.218750,-22.52
16:26:30.234375,-38.12
16:26:30.250000,-51.51
16:26:30.265625,-63.11
16:26:30.281250,-73.70
16:26:30.296875,-83.97
16:26:30.312500,-94.23
16:26:30.328125,-104.14
16:26:30.343750,-112.96
16:26:30.359375,-119.75
16:26:30.375000,-123.94
16:26:30.390625,-125.59
16:26:30.406250,-125.59
16:26:30.421875,-125.50
16:26:30.437500,-127.25
16:26:30.453125,-132.58
16:26:30.468750,-142.45
16:26:30.484375,-156.57
16:26:30.500000,-173.07
16:26:30.515625,-188.65
16:26:30.531250,-199.26
16:26:30.546875,-200.98
16:26:30.562500,-191.20
16:26:30.578125,-169.26
16:26:30.593750,-136.66
16:26:30.609375,-96.61
16:26:30.625000,-53.12
16:26:30.640625,-10.17
16:26:30.656250,29.03
16:26:30.671875,62.18
16:26:30.687500,87.91
16:26:30.703125,105.60
16:26:30.718750,115.21
16:26:30.734375,117.32
16:26:30.750000,113.08
16:26:30.765625,104.23
16:26:30.781250,93.02
16:26:30.796875,81.86
16:26:30.812500,73.03
16:26:30.828125,68.15
16:26:30.843750,67.93
16:26:30.859375,71.94
16:26:30.875000,78.78
16:26:30.890625,86.51
16:26:30.906250,93.23
16:26:30.921875,97.59
16:26:30.937500,98.99
16:26:30.953125,97.46
16:26:30.968750,93.35
16:26:30.984375,87.00
16:26:31,78.52
16:26:31.015625,67.93
16:26:31.031250,55.34
16:26:31.046875,41.18
16:26:31.062500,26.20
16:26:31.078125,11.22
16:26:31.093750,-3.15
16:26:31.109375,-16.78
16:26:31.125000,-29.96
16:26:31.140625,-43.28
16:26:31.156250,-57.32
16:26:31.171875,-72.45
16:26:31.187500,-88.83
16:26:31.203125,-106.36
16:26:31.218750,-124.77
16:26:31.234375,-143.37
16:26:31.250000,-160.92
16:26:31.265625,-175.49
16:26:31.281250,-184.69
16:26:31.296875,-186.17
16:26:31.312500,-178.49
16:26:31.328125,-161.66
16:26:31.343750,-137.34
16:26:31.359375,-108.20
16:26:31.375000,-77.01
16:26:31.390625,-45.75
16:26:31.406250,-15.25
16:26:31.421875,14.53
16:26:31.437500,43.76
16:26:31.453125,71.97
16:26:31.468750,97.86
16:26:31.484375,119.54
16:26:31.500000,135.23
16:26:31.515625,143.88
16:26:31.531250,145.40
16:26:31.546875,140.56
16:26:31.562500,130.53
16:26:31.578125,116.54
16:26:31.593750,99.79
16:26:31.609375,81.58
16:26:31.625000,63.53
16:26:31.640625,47.64
16:26:31.656250,35.89
16:26:31.671875,29.88
16:26:31.687500,30.23
16:26:31.703125,36.24
16:26:31.718750,45.98
16:26:31.734375,56.64
16:26:31.750000,65.15
16:26:31.765625,68.79
16:26:31.781250,65.71
16:26:31.796875,55.12
16:26:31.812500,37.28
16:26:31.828125,13.25
16:26:31.843750,-15.39
16:26:31.859375,-46.76
16:26:31.875000,-78.88
16:26:31.890625,-109.67
16:26:31.906250,-137.05
16:26:31.921875,-158.98
16:26:31.937500,-173.67
16:26:31.953125,-179.85
16:26:31.968750,-176.96
16:26:31.984375,-165.30
16:26:32,-145.89
16:26:32.015625,-120.23
16:26:32.031250,-89.98
16:26:32.046875,-56.58
16:26:32.062500,-21.20
16:26:32.078125,15.28
16:26:32.093750,52.04
16:26:32.109375,88.10
16:26:32.125000,122.16
16:26:32.140625,152.61
16:26:32.156250,177.67
16:26:32.171875,195.70
16:26:32.187500,205.50
16:26:32.203125,206.58
16:26:32.218750,199.27
16:26:32.234375,184.78
16:26:32.250000,165.28
16:26:32.265625,143.65
16:26:32.281250,123.25
16:26:32.296875,107.34
16:26:32.312500,98.41
16:26:32.328125,97.54
16:26:32.343750,104.08
16:26:32.359375,115.84
16:26:32.375000,129.63
16:26:32.390625,142.07
16:26:32.406250,150.35
16:26:32.421875,152.62
16:26:32.437500,148.07
16:26:32.453125,136.66
16:26:32.468750,118.82
16:26:32.484375,95.24
16:26:32.500000,67.04
16:26:32.515625,36.01
16:26:32.531250,4.74
16:26:32.546875,-23.59
16:26:32.562500,-45.89
16:26:32.578125,-59.95
16:26:32.593750,-65.33
16:26:32.609375,-63.47
16:26:32.625000,-57.39
16:26:32.640625,-50.75
16:26:32.656250,-46.82
16:26:32.671875,-47.82
16:26:32.687500,-54.50
16:26:32.703125,-66.18
16:26:32.718750,-80.78
16:26:32.734375,-95.11
16:26:32.750000,-105.10
16:26:32.765625,-106.60
16:26:32.781250,-96.35
16:26:32.796875,-72.98
16:26:32.812500,-37.73
16:26:32.828125,5.74
16:26:32.843750,52.25
16:26:32.859375,96.60
16:26:32.875000,134.86
16:26:32.890625,165.09
16:26:32.906250,187.09
16:26:32.921875,201.60
16:26:32.937500,209.28
16:26:32.953125,210.27
16:26:32.968750,204.30
16:26:32.984375,191.41
16:26:33,172.57
16:26:33.015625,149.93
16:26:33.031250,126.36
16:26:33.046875,104.58
16:26:33.062500,86.29
16:26:33.078125,71.78
16:26:33.093750,60.14
16:26:33.109375,49.99
16:26:33.125000,40.10
16:26:33.140625,29.80
16:26:33.156250,18.83
16:26:33.171875,7.02
16:26:33.187500,-5.98
16:26:33.203125,-20.75
16:26:33.218750,-37.82
16:26:33.234375,-57.28
16:26:33.250000,-78.59
16:26:33.265625,-100.63
16:26:33.281250,-121.93
16:26:33.296875,-141.09
16:26:33.312500,-157.08
16:26:33.328125,-169.36
16:26:33.343750,-177.83
16:26:33.359375,-182.73
16:26:33.375000,-184.48
16:26:33.390625,-183.59
16:26:33.406250,-180.67
16:26:33.421875,-176.32
16:26:33.437500,-171.21
16:26:33.453125,-166.02
16:26:33.468750,-161.41
16:26:33.484375,-158.04
16:26:33.500000,-156.53
16:26:33.515625,-157.42
16:26:33.531250,-161.03
16:26:33.546875,-167.35
16:26:33.562500,-175.78
16:26:33.578125,-185.00
16:26:33.593750,-193.03
16:26:33.609375,-197.53
16:26:33.625000,-196.34
16:26:33.640625,-188.10
16:26:33.656250,-172.70
16:26:33.671875,-151.31
16:26:33.687500,-126.12
16:26:33.703125,-99.72
16:26:33.718750,-74.55
16:26:33.734375,-52.52
16:26:33.750000,-34.94
16:26:33.765625,-22.59
16:26:33.781250,-15.94
16:26:33.796875,-15.12
16:26:33.812500,-19.91
16:26:33.828125,-29.53
16:26:33.843750,-42.56
16:26:33.859375,-57.07
16:26:33.875000,-70.91
16:26:33.890625,-82.16
16:26:33.906250,-89.51
16:26:33.921875,-92.42
16:26:33.937500,-90.94
16:26:33.953125,-85.49
16:26:33.968750,-76.53
16:26:33.984375,-64.43
16:26:34,-49.58
16:26:34.015625,-32.63
16:26:34.031250,-14.59
16:26:34.046875,3.08
16:26:34.062500,18.84
16:26:34.078125,31.38
16:26:34.093750,40.00
16:26:34.109375,44.76
16:26:34.125000,46.23
16:26:34.140625,45.25
16:26:34.156250,42.45
16:26:34.171875,38.11
16:26:34.187500,32.03
16:26:34.203125,23.69
16:26:34.218750,12.50
16:26:34.234375,-1.95
16:26:34.250000,-19.52
16:26:34.265625,-39.24
16:26:34.281250,-59.11
16:26:34.296875,-76.17
16:26:34.312500,-86.96
16:26:34.328125,-88.41
16:26:34.343750,-78.80
16:26:34.359375,-58.52
16:26:34.375000,-30.10
16:26:34.390625,2.36
16:26:34.406250,34.35
16:26:34.421875,62.13
16:26:34.437500,83.48
16:26:34.453125,97.80
16:26:34.468750,105.78
16:26:34.484375,108.78
16:26:34.500000,108.43
16:26:34.515625,106.37
16:26:34.531250,104.20
16:26:34.546875,103.38
16:26:34.562500,104.96
16:26:34.578125,109.26
16:26:34.593750,115.64
16:26:34.609375,122.50
16:26:34.625000,127.72
16:26:34.640625,129.34
16:26:34.656250,126.20
16:26:34.671875,118.34
16:26:34.687500,107.05
16:26:34.703125,94.48
16:26:34.718750,82.99
16:26:34.734375,74.49
16:26:34.750000,69.95
16:26:34.765625,69.15
16:26:34.781250,70.80
16:26:34.796875,73.00
16:26:34.812500,73.80
16:26:34.828125,71.67
16:26:34.843750,65.90
16:26:34.859375,56.51
16:26:34.875000,44.05
16:26:34.890625,29.29
16:26:34.906250,12.86
16:26:34.921875,-4.88
16:26:34.937500,-23.79
16:26:34.953125,-43.86
16:26:34.968750,-65.02
16:26:34.984375,-86.90
16:26:35,-108.57
16:26:35.015625,-128.39
16:26:35.031250,-144.09
16:26:35.046875,-153.13
16:26:35.062500,-153.35
16:26:35.078125,-143.64
16:26:35.093750,-124.43
16:26:35.109375,-97.67
16:26:35.125000,-66.41
16:26:35.140625,-34.06
16:26:35.156250,-3.60
16:26:35.171875,22.85
16:26:35.187500,44.16
16:26:35.203125,59.98
16:26:35.218750,70.37
16:26:35.234375,75.59
16:26:35.250000,76.07
16:26:35.265625,72.46
16:26:35.281250,65.76
16:26:35.296875,57.32
16:26:35.312500,48.63
16:26:35.328125,41.04
16:26:35.343750,35.44
16:26:35.359375,32.06
16:26:35.375000,30.52
16:26:35.390625,30.02
16:26:35.406250,29.71
16:26:35.421875,28.95
16:26:35.437500,27.46
16:26:35.453125,25.32
16:26:35.468750,22.75
16:26:35.484375,19.82
16:26:35.500000,16.35
16:26:35.515625,11.88
16:26:35.531250,5.92
16:26:35.546875,-1.82
16:26:35.562500,-11.15
16:26:35.578125,-21.43
16:26:35.593750,-31.80
16:26:35.609375,-41.50
16:26:35.625000,-50.21
16:26:35.640625,-58.13
16:26:35.656250,-65.88
16:26:35.671875,-74.26
16:26:35.687500,-84.05
16:26:35.703125,-95.75
16:26:35.718750,-109.53
16:26:35.734375,-124.98
16:26:35.750000,-140.93
16:26:35.765625,-155.38
16:26:35.781250,-165.62
16:26:35.796875,-168.81
16:26:35.812500,-162.81
16:26:35.828125,-146.84
16:26:35.843750,-121.93
16:26:35.859375,-90.59
16:26:35.875000,-56.13
16:26:35.890625,-21.76
16:26:35.906250,9.97
16:26:35.921875,37.44
16:26:35.937500,59.73
16:26:35.953125,76.35
16:26:35.968750,87.05
16:26:35.984375,91.87
16:26:36,91.26
16:26:36.015625,86.19
16:26:36.031250,78.12
16:26:36.046875,68.65
16:26:36.062500,59.24
16:26:36.078125,50.94
16:26:36.093750,44.27
16:26:36.109375,39.37
16:26:36.125000,36.14
16:26:36.140625,34.44
16:26:36.156250,34.11
16:26:36.171875,34.94
16:26:36.187500,36.53
16:26:36.203125,38.14
16:26:36.218750,38.74
16:26:36.234375,37.23
16:26:36.250000,32.69
16:26:36.265625,24.77
16:26:36.281250,13.81
16:26:36.296875,0.78
16:26:36.312500,-13.07
16:26:36.328125,-26.56
16:26:36.343750,-39.00
16:26:36.359375,-50.35
16:26:36.375000,-61.26
16:26:36.390625,-72.79
16:26:36.406250,-86.14
16:26:36.421875,-102.12
16:26:36.437500,-120.67
16:26:36.453125,-140.45
16:26:36.468750,-158.79
16:26:36.484375,-172.12
16:26:36.500000,-176.76
16:26:36.515625,-170.02
16:26:36.531250,-151.07
16:26:36.546875,-121.22
16:26:36.562500,-83.59
16:26:36.578125,-42.14
16:26:36.593750,-0.69
16:26:36.609375,37.83
16:26:36.625000,71.52
16:26:36.640625,99.32
16:26:36.656250,120.58
16:26:36.671875,134.88
16:26:36.687500,142.10
16:26:36.703125,142.63
16:26:36.718750,137.63
16:26:36.734375,128.92
16:26:36.750000,118.64
16:26:36.765625,108.77
16:26:36.781250,100.58
16:26:36.796875,94.49
16:26:36.812500,90.09
16:26:36.828125,86.58
16:26:36.843750,83.13
16:26:36.859375,79.27
16:26:36.875000,74.98
16:26:36.890625,70.53
16:26:36.906250,66.23
16:26:36.921875,62.05
16:26:36.937500,57.47
16:26:36.953125,51.63
16:26:36.968750,43.58
16:26:36.984375,32.78
16:26:37,19.32
16:26:37.015625,4.02
16:26:37.031250,-11.90
16:26:37.046875,-27.25
16:26:37.062500,-41.30
16:26:37.078125,-53.98
16:26:37.093750,-65.91
16:26:37.109375,-78.08
16:26:37.125000,-91.65
16:26:37.140625,-107.48
16:26:37.156250,-125.89
16:26:37.171875,-146.15
16:26:37.187500,-166.22
16:26:37.203125,-182.80
16:26:37.218750,-191.85
16:26:37.234375,-189.66
16:26:37.250000,-174.07
16:26:37.265625,-145.34
16:26:37.281250,-106.26
16:26:37.296875,-61.41
16:26:37.312500,-15.84
16:26:37.328125,26.17
16:26:37.343750,61.89
16:26:37.359375,90.11
16:26:37.375000,110.71
16:26:37.390625,123.92
16:26:37.406250,130.12
16:26:37.421875,129.80
16:26:37.437500,123.91
16:26:37.453125,113.97
16:26:37.468750,101.98
16:26:37.484375,89.98
16:26:37.500000,79.51
16:26:37.515625,71.29
16:26:37.531250,65.15
16:26:37.546875,60.39
16:26:37.562500,56.24
16:26:37.578125,52.21
16:26:37.593750,48.26
16:26:37.609375,44.68
16:26:37.625000,41.71
16:26:37.640625,39.36
16:26:37.656250,37.13
16:26:37.671875,34.15
16:26:37.687500,29.42
16:26:37.703125,22.16
16:26:37.718750,12.06
16:26:37.734375,-0.55
16:26:37.750000,-14.84
16:26:37.765625,-29.79
16:26:37.781250,-44.54
16:26:37.796875,-58.62
16:26:37.812500,-72.13
16:26:37.828125,-85.62
16:26:37.843750,-99.95
16:26:37.859375,-116.07
16:26:37.875000,-134.74
16:26:37.890625,-156.12
16:26:37.906250,-179.36
16:26:37.921875,-202.18
16:26:37.937500,-220.99
16:26:37.953125,-231.36
16:26:37.968750,-229.18
16:26:37.984375,-211.94
16:26:38,-179.70
16:26:38.015625,-135.35
16:26:38.031250,-83.93
16:26:38.046875,-31.31
16:26:38.062500,17.27
16:26:38.078125,58.28
16:26:38.093750,90.22
16:26:38.109375,113.34
16:26:38.125000,128.94
16:26:38.140625,138.66
16:26:38.156250,144.07
16:26:38.171875,146.45
16:26:38.187500,146.75
16:26:38.203125,145.66
16:26:38.218750,143.50
16:26:38.234375,140.24
16:26:38.250000,135.55
16:26:38.265625,128.98
16:26:38.281250,120.34
16:26:38.296875,110.00
16:26:38.312500,99.11
16:26:38.328125,89.32
16:26:38.343750,82.42
16:26:38.359375,79.67
16:26:38.375000,81.29
16:26:38.390625,86.23
16:26:38.406250,92.36
16:26:38.421875,97.05
16:26:38.437500,97.85
16:26:38.453125,93.09
16:26:38.468750,82.12
16:26:38.484375,65.29
16:26:38.500000,43.52
16:26:38.515625,18.03
16:26:38.531250,-9.84
16:26:38.546875,-38.64
16:26:38.562500,-66.74
16:26:38.578125,-92.28
16:26:38.593750,-113.50
16:26:38.609375,-129.07
16:26:38.625000,-138.38
16:26:38.640625,-141.59
16:26:38.656250,-139.34
16:26:38.671875,-132.28
16:26:38.687500,-120.83
16:26:38.703125,-105.16
16:26:38.718750,-85.55
16:26:38.734375,-62.70
16:26:38.750000,-37.84
16:26:38.765625,-12.43
16:26:38.781250,12.32
16:26:38.796875,35.78
16:26:38.812500,57.91
16:26:38.828125,78.89
16:26:38.843750,98.62
16:26:38.859375,116.38
16:26:38.875000,130.93
16:26:38.890625,140.91
16:26:38.906250,145.38
16:26:38.921875,144.12
16:26:38.937500,137.78
16:26:38.953125,127.62
16:26:38.968750,115.12
16:26:38.984375,101.63
16:26:39,88.09
16:26:39.015625,75.02
16:26:39.031250,62.60
16:26:39.046875,51.05
16:26:39.062500,40.78
16:26:39.078125,32.57
16:26:39.093750,27.32
16:26:39.109375,25.70
16:26:39.125000,27.69
16:26:39.140625,32.33
16:26:39.156250,37.95
16:26:39.171875,42.60
16:26:39.187500,44.69
16:26:39.203125,43.44
16:26:39.218750,38.90
16:26:39.234375,31.65
16:26:39.250000,22.35
16:26:39.265625,11.33
16:26:39.281250,-1.47
16:26:39.296875,-16.39
16:26:39.312500,-33.84
16:26:39.328125,-54.09
16:26:39.343750,-77.12
16:26:39.359375,-102.32
16:26:39.375000,-128.28
16:26:39.390625,-152.53
16:26:39.406250,-171.60
16:26:39.421875,-181.63
16:26:39.437500,-179.37
16:26:39.453125,-163.28
16:26:39.468750,-134.27
16:26:39.484375,-95.58
16:26:39.500000,-51.87
16:26:39.515625,-7.99
16:26:39.531250,32.09
16:26:39.546875,65.81
16:26:39.562500,91.84
16:26:39.578125,109.68
16:26:39.593750,119.27
16:26:39.609375,120.90
16:26:39.625000,115.39
16:26:39.640625,104.23
16:26:39.656250,89.39
16:26:39.671875,73.01
16:26:39.687500,56.85
16:26:39.703125,42.04
16:26:39.718750,28.96
16:26:39.734375,17.54
16:26:39.750000,7.57
16:26:39.765625,-1.04
16:26:39.781250,-8.17
16:26:39.796875,-13.69
16:26:39.812500,-17.74
16:26:39.828125,-20.91
16:26:39.843750,-24.22
16:26:39.859375,-28.86
16:26:39.875000,-35.77
16:26:39.890625,-45.28
16:26:39.906250,-56.99
16:26:39.921875,-69.88
16:26:39.937500,-82.80
16:26:39.953125,-94.88
16:26:39.968750,-105.93
16:26:39.984375,-116.55
16:26:40,-127.98
16:26:40.015625,-141.67
16:26:40.031250,-158.68
16:26:40.046875,-178.94
16:26:40.062500,-200.73
16:26:40.078125,-220.59
16:26:40.093750,-233.84
16:26:40.109375,-235.71
16:26:40.125000,-222.65
16:26:40.140625,-193.53
16:26:40.156250,-150.06
16:26:40.171875,-96.38
16:26:40.187500,-37.97
16:26:40.203125,19.62
16:26:40.218750,71.75
16:26:40.234375,115.26
16:26:40.250000,148.41
16:26:40.265625,170.67
16:26:40.281250,182.52
16:26:40.296875,185.35
16:26:40.312500,181.42
16:26:40.328125,173.64
16:26:40.343750,165.12
16:26:40.359375,158.45
16:26:40.375000,155.11
16:26:40.390625,155.03
16:26:40.406250,156.69
16:26:40.421875,157.70
16:26:40.437500,155.61
16:26:40.453125,148.74
16:26:40.468750,136.68
16:26:40.484375,120.31
16:26:40.500000,101.47
16:26:40.515625,82.35
16:26:40.531250,64.91
16:26:40.546875,50.49
16:26:40.562500,39.66
16:26:40.578125,32.31
16:26:40.593750,27.83
16:26:40.609375,25.25
16:26:40.625000,23.45
16:26:40.640625,21.22
16:26:40.656250,17.32
16:26:40.671875,10.57
16:26:40.687500,-0.08
16:26:40.703125,-15.50
16:26:40.718750,-36.29
16:26:40.734375,-62.55
16:26:40.750000,-93.54
16:26:40.765625,-127.33
16:26:40.781250,-160.50
16:26:40.796875,-188.36
16:26:40.812500,-205.76
16:26:40.828125,-208.39
16:26:40.843750,-194.17
16:26:40.859375,-164.06
16:26:40.875000,-121.91
16:26:40.890625,-73.42
16:26:40.906250,-24.52
16:26:40.921875,20.04
16:26:40.937500,57.35
16:26:40.953125,86.30
16:26:40.968750,106.86
16:26:40.984375,119.45
16:26:41,124.61
16:26:41.015625,123.04
16:26:41.031250,115.86
16:26:41.046875,104.65
16:26:41.062500,91.32
16:26:41.078125,77.66
16:26:41.093750,64.90
16:26:41.109375,53.59
16:26:41.125000,43.69
16:26:41.140625,34.90
16:26:41.156250,27.12
16:26:41.171875,20.70
16:26:41.187500,16.46
16:26:41.203125,15.38
16:26:41.218750,18.19
16:26:41.234375,24.88
16:26:41.250000,34.46
16:26:41.265625,45.08
16:26:41.281250,54.38
16:26:41.296875,60.19
16:26:41.312500,61.02
16:26:41.328125,56.34
16:26:41.343750,46.40
16:26:41.359375,31.84
16:26:41.375000,13.22
16:26:41.390625,-9.11
16:26:41.406250,-34.84
16:26:41.421875,-63.27
16:26:41.437500,-93.02
16:26:41.453125,-121.98
16:26:41.468750,-147.74
16:26:41.484375,-168.14
16:26:41.500000,-181.67
16:26:41.515625,-187.62
16:26:41.531250,-185.86
16:26:41.546875,-176.55
16:26:41.562500,-159.98
16:26:41.578125,-136.68
16:26:41.593750,-107.59
16:26:41.609375,-74.18
16:26:41.625000,-38.28
16:26:41.640625,-1.74
16:26:41.656250,33.91
16:26:41.671875,67.60
16:26:41.687500,98.59
16:26:41.703125,126.13
16:26:41.718750,149.19
16:26:41.734375,166.54
16:26:41.750000,176.93
16:26:41.765625,179.58
16:26:41.781250,174.50
16:26:41.796875,162.63
16:26:41.812500,145.77
16:26:41.828125,126.28
16:26:41.843750,106.74
16:26:41.859375,89.57
16:26:41.875000,76.67
16:26:41.890625,69.13
16:26:41.906250,67.10
16:26:41.921875,69.81
16:26:41.937500,75.81
16:26:41.953125,83.31
16:26:41.968750,90.50
16:26:41.984375,95.74
16:26:42,97.70
16:26:42.015625,95.32
16:26:42.031250,87.89
16:26:42.046875,75.20
16:26:42.062500,57.59
16:26:42.078125,36.08
16:26:42.093750,12.15
16:26:42.109375,-12.56
16:26:42.125000,-36.56
16:26:42.140625,-58.81
16:26:42.156250,-78.79
16:26:42.171875,-96.40
16:26:42.187500,-111.84
16:26:42.203125,-125.43
16:26:42.218750,-137.57
16:26:42.234375,-148.49
16:26:42.250000,-158.09
16:26:42.265625,-165.65
16:26:42.281250,-169.81
16:26:42.296875,-168.74
16:26:42.312500,-160.79
16:26:42.328125,-145.13
16:26:42.343750,-122.24
16:26:42.359375,-93.98
16:26:42.375000,-63.10
16:26:42.390625,-32.58
16:26:42.406250,-4.90
16:26:42.421875,18.34
16:26:42.437500,36.34
16:26:42.453125,48.87
16:26:42.468750,55.98
16:26:42.484375,57.82
16:26:42.500000,54.84
16:26:42.515625,47.96
16:26:42.531250,38.68
16:26:42.546875,29.00
16:26:42.562500,20.93
16:26:42.578125,16.06
16:26:42.593750,15.05
16:26:42.609375,17.48
16:26:42.625000,22.07
16:26:42.640625,27.01
16:26:42.656250,30.55
16:26:42.671875,31.28
16:26:42.687500,28.36
16:26:42.703125,21.39
16:26:42.718750,10.44
16:26:42.734375,-4.10
16:26:42.750000,-21.51
16:26:42.765625,-40.78
16:26:42.781250,-60.62
16:26:42.796875,-79.65
16:26:42.812500,-96.69
16:26:42.828125,-110.92
16:26:42.843750,-122.08
16:26:42.859375,-130.45
16:26:42.875000,-136.65
16:26:42.890625,-141.33
16:26:42.906250,-144.86
16:26:42.921875,-147.09
16:26:42.937500,-147.41
16:26:42.953125,-144.93
16:26:42.968750,-138.90
16:26:42.984375,-129.03
16:26:43,-115.69
16:26:43.015625,-99.74
16:26:43.031250,-82.30
16:26:43.046875,-64.20
16:26:43.062500,-45.83
16:26:43.078125,-26.98
16:26:43.093750,-7.20
16:26:43.109375,13.93
16:26:43.125000,36.45
16:26:43.140625,59.94
16:26:43.156250,83.67
16:26:43.171875,106.75
16:26:43.187500,128.29
16:26:43.203125,147.41
16:26:43.218750,163.17
16:26:43.234375,174.57
16:26:43.250000,180.68
16:26:43.265625,180.84
16:26:43.281250,174.91
16:26:43.296875,163.42
16:26:43.312500,147.47
16:26:43.328125,128.61
16:26:43.343750,108.51
16:26:43.359375,88.71
16:26:43.375000,70.39
16:26:43.390625,54.23
16:26:43.406250,40.54
16:26:43.421875,29.31
16:26:43.437500,20.47
16:26:43.453125,14.06
16:26:43.468750,10.20
16:26:43.484375,9.00
16:26:43.500000,10.41
16:26:43.515625,14.06
16:26:43.531250,19.09
16:26:43.546875,24.33
16:26:43.562500,28.42
16:26:43.578125,30.09
16:26:43.593750,28.42
16:26:43.609375,22.99
16:26:43.625000,13.99
16:26:43.640625,2.21
16:26:43.656250,-11.04
16:26:43.671875,-24.18
16:26:43.687500,-35.64
16:26:43.703125,-44.18
16:26:43.718750,-49.24
16:26:43.734375,-51.15
16:26:43.750000,-50.99
16:26:43.765625,-50.27
16:26:43.781250,-50.33
16:26:43.796875,-51.75
16:26:43.812500,-53.98
16:26:43.828125,-55.46
16:26:43.843750,-54.15
16:26:43.859375,-48.33
16:26:43.875000,-37.23
16:26:43.890625,-21.34
16:26:43.906250,-2.12
16:26:43.921875,18.44
16:26:43.937500,38.53
16:26:43.953125,56.76
16:26:43.968750,72.26
16:26:43.984375,84.46
16:26:44,92.85
16:26:44.015625,97.04
16:26:44.031250,96.84
16:26:44.046875,92.53
16:26:44.062500,84.90
16:26:44.078125,75.21
16:26:44.093750,64.80
16:26:44.109375,54.73
16:26:44.125000,45.64
16:26:44.140625,37.58
16:26:44.156250,30.33
16:26:44.171875,23.60
16:26:44.187500,17.31
16:26:44.203125,11.59
16:26:44.218750,6.73
16:26:44.234375,2.84
16:26:44.250000,-0.34
16:26:44.265625,-3.52
16:26:44.281250,-7.72
16:26:44.296875,-13.91
16:26:44.312500,-22.63
16:26:44.328125,-33.74
16:26:44.343750,-46.42
16:26:44.359375,-59.45
16:26:44.375000,-71.61
16:26:44.390625,-82.08
16:26:44.406250,-90.66
16:26:44.421875,-97.73
16:26:44.437500,-104.12
16:26:44.453125,-110.88
16:26:44.468750,-119.00
16:26:44.484375,-129.11
16:26:44.500000,-141.15
16:26:44.515625,-154.02
16:26:44.531250,-165.46
16:26:44.546875,-172.36
16:26:44.562500,-171.48
16:26:44.578125,-160.47
16:26:44.593750,-138.73
16:26:44.609375,-107.72
16:26:44.625000,-70.70
16:26:44.640625,-31.71
16:26:44.656250,5.43
16:26:44.671875,37.88
16:26:44.687500,64.05
16:26:44.703125,83.33
16:26:44.718750,95.69
16:26:44.734375,101.34
16:26:44.750000,100.82
16:26:44.765625,95.07
16:26:44.781250,85.64
16:26:44.796875,74.53
16:26:44.812500,63.74
16:26:44.828125,54.87
16:26:44.843750,48.61
16:26:44.859375,44.79
16:26:44.875000,42.61
16:26:44.890625,41.15
16:26:44.906250,39.76
16:26:44.921875,38.23
16:26:44.937500,36.66
16:26:44.953125,35.09
16:26:44.968750,33.33
16:26:44.984375,30.77
16:26:45,26.62
16:26:45.015625,20.20
16:26:45.031250,11.32
16:26:45.046875,0.38
16:26:45.062500,-11.69
16:26:45.078125,-23.82
16:26:45.093750,-35.17
16:26:45.109375,-45.51
16:26:45.125000,-55.30
16:26:45.140625,-65.52
16:26:45.156250,-77.39
16:26:45.171875,-91.91
16:26:45.187500,-109.42
16:26:45.203125,-129.27
16:26:45.218750,-149.57
16:26:45.234375,-167.38
16:26:45.250000,-179.12
16:26:45.265625,-181.50
16:26:45.281250,-172.35
16:26:45.296875,-151.38
16:26:45.312500,-120.36
16:26:45.328125,-82.63
16:26:45.343750,-42.21
16:26:45.359375,-2.89
16:26:45.375000,32.45
16:26:45.390625,62.02
16:26:45.406250,84.87
16:26:45.421875,100.63
16:26:45.437500,109.31
16:26:45.453125,111.25
16:26:45.468750,107.33
16:26:45.484375,98.89
16:26:45.500000,87.68
16:26:45.515625,75.47
16:26:45.531250,63.75
16:26:45.546875,53.49
16:26:45.562500,45.04
16:26:45.578125,38.35
16:26:45.593750,33.16
16:26:45.609375,29.23
16:26:45.625000,26.45
16:26:45.640625,24.81
16:26:45.656250,24.20
16:26:45.671875,24.28
16:26:45.687500,24.31
16:26:45.703125,23.30
16:26:45.718750,20.18
16:26:45.734375,14.25
16:26:45.750000,5.37
16:26:45.765625,-5.91
16:26:45.781250,-18.59
16:26:45.796875,-31.55
16:26:45.812500,-44.03
16:26:45.828125,-55.85
16:26:45.843750,-67.48
16:26:45.859375,-79.78
16:26:45.875000,-93.73
16:26:45.890625,-110.09
16:26:45.906250,-129.07
16:26:45.921875,-150.07
16:26:45.937500,-171.34
16:26:45.953125,-190.01
16:26:45.968750,-202.49
16:26:45.984375,-205.22
16:26:46,-195.77
16:26:46.015625,-173.72
16:26:46.031250,-140.93
16:26:46.046875,-101.06
16:26:46.062500,-58.50
16:26:46.078125,-17.29
16:26:46.093750,19.65
16:26:46.109375,50.65
16:26:46.125000,74.93
16:26:46.140625,92.12
16:26:46.156250,101.96
16:26:46.171875,104.43
16:26:46.187500,100.05
16:26:46.203125,90.19
16:26:46.218750,77.02
16:26:46.234375,63.20
16:26:46.250000,51.31
16:26:46.265625,43.22
16:26:46.281250,39.78
16:26:46.296875,40.77
16:26:46.312500,45.13
16:26:46.328125,51.45
16:26:46.343750,58.30
16:26:46.359375,64.50
16:26:46.375000,69.26
16:26:46.390625,72.15
16:26:46.406250,72.96
16:26:46.421875,71.71
16:26:46.437500,68.57
16:26:46.453125,63.76
16:26:46.468750,57.50
16:26:46.484375,49.93
16:26:46.500000,41.14
16:26:46.515625,31.07
16:26:46.531250,19.61
16:26:46.546875,6.59
16:26:46.562500,-8.14
16:26:46.578125,-24.61
16:26:46.593750,-42.68
16:26:46.609375,-61.91
16:26:46.625000,-81.62
16:26:46.640625,-101.02
16:26:46.656250,-119.40
16:26:46.671875,-136.29
16:26:46.687500,-151.28
16:26:46.703125,-163.70
16:26:46.718750,-172.33
16:26:46.734375,-175.26
16:26:46.750000,-170.32
16:26:46.765625,-155.82
16:26:46.781250,-131.39
16:26:46.796875,-98.33
16:26:46.812500,-59.49
16:26:46.828125,-18.45
16:26:46.843750,21.44
16:26:46.859375,57.87
16:26:46.875000,89.70
16:26:46.890625,116.69
16:26:46.906250,138.85
16:26:46.921875,156.05
16:26:46.937500,167.86
16:26:46.953125,173.81
16:26:46.968750,173.80
16:26:46.984375,168.34
16:26:47,158.57
16:26:47.015625,146.10
16:26:47.031250,132.58
16:26:47.046875,119.46
16:26:47.062500,107.75
16:26:47.078125,97.92
16:26:47.093750,89.97
16:26:47.109375,83.49
16:26:47.125000,77.88
16:26:47.140625,72.57
16:26:47.156250,67.26
16:26:47.171875,62.04
16:26:47.187500,57.39
16:26:47.203125,53.98
16:26:47.218750,52.35
16:26:47.234375,52.55
16:26:47.250000,54.01
16:26:47.265625,55.62
16:26:47.281250,56.03
16:26:47.296875,54.08
16:26:47.312500,49.13
16:26:47.328125,41.12
16:26:47.343750,30.41
16:26:47.359375,17.41
16:26:47.375000,2.30
16:26:47.390625,-15.18
16:26:47.406250,-35.60
16:26:47.421875,-59.59
16:26:47.437500,-87.37
16:26:47.453125,-118.29
16:26:47.468750,-150.37
16:26:47.484375,-180.12
16:26:47.500000,-202.84
16:26:47.515625,-213.55
16:26:47.531250,-208.26
16:26:47.546875,-185.36
16:26:47.562500,-146.43
16:26:47.578125,-96.04
16:26:47.593750,-40.65
16:26:47.609375,13.17
16:26:47.625000,60.26
16:26:47.640625,97.72
16:26:47.656250,124.86
16:26:47.671875,142.48
16:26:47.687500,151.97
16:26:47.703125,154.66
16:26:47.718750,151.68
16:26:47.734375,144.09
16:26:47.750000,133.09
16:26:47.765625,120.08
16:26:47.781250,106.45
16:26:47.796875,93.40
16:26:47.812500,81.69
16:26:47.828125,71.67
16:26:47.843750,63.42
16:26:47.859375,56.86
16:26:47.875000,51.91
16:26:47.890625,48.43
16:26:47.906250,46.19
16:26:47.921875,44.75
16:26:47.937500,43.49
16:26:47.953125,41.64
16:26:47.968750,38.39
16:26:47.984375,32.99
16:26:48,24.92
16:26:48.015625,13.97
16:26:48.031250,0.36
16:26:48.046875,-15.17
16:26:48.062500,-31.44
16:26:48.078125,-47.01
16:26:48.093750,-60.52
16:26:48.109375,-71.05
16:26:48.125000,-78.38
16:26:48.140625,-83.08
16:26:48.156250,-86.40
16:26:48.171875,-89.99
16:26:48.187500,-95.53
16:26:48.203125,-104.27
16:26:48.218750,-116.59
16:26:48.234375,-131.58
16:26:48.250000,-146.86
16:26:48.265625,-158.77
16:26:48.281250,-163.13
16:26:48.296875,-156.31
16:26:48.312500,-136.45
16:26:48.328125,-104.15
16:26:48.343750,-62.45
16:26:48.359375,-16.00
16:26:48.375000,30.24
16:26:48.390625,72.14
16:26:48.406250,107.10
16:26:48.421875,133.94
16:26:48.437500,152.51
16:26:48.453125,163.05
16:26:48.468750,166.00
16:26:48.484375,161.97
16:26:48.500000,152.07
16:26:48.515625,137.97
16:26:48.531250,121.85
16:26:48.546875,105.92
16:26:48.562500,91.94
16:26:48.578125,80.85
16:26:48.593750,72.71
16:26:48.609375,66.93
16:26:48.625000,62.69
16:26:48.640625,59.26
16:26:48.656250,56.18
16:26:48.671875,53.21
16:26:48.687500,50.15
16:26:48.703125,46.62
16:26:48.718750,42.01
16:26:48.734375,35.53
16:26:48.750000,26.48
16:26:48.765625,14.55
16:26:48.781250,0.04
16:26:48.796875,-16.07
16:26:48.812500,-32.37
16:26:48.828125,-47.35
16:26:48.843750,-60.00
16:26:48.859375,-70.11
16:26:48.875000,-78.40
16:26:48.890625,-86.22
16:26:48.906250,-95.24
16:26:48.921875,-106.87
16:26:48.937500,-121.87
16:26:48.953125,-140.00
16:26:48.968750,-159.77
16:26:48.984375,-178.38
16:26:49,-192.01
16:26:49.015625,-196.54
16:26:49.031250,-188.58
16:26:49.046875,-166.61
16:26:49.062500,-131.63
16:26:49.078125,-87.04
16:26:49.093750,-37.74
16:26:49.109375,11.20
16:26:49.125000,55.68
16:26:49.140625,93.11
16:26:49.156250,122.26
16:26:49.171875,142.71
16:26:49.187500,154.37
16:26:49.203125,157.48
16:26:49.218750,152.81
16:26:49.234375,141.91
16:26:49.250000,127.17
16:26:49.265625,111.31
16:26:49.281250,96.74
16:26:49.296875,84.89
16:26:49.312500,76.12
16:26:49.328125,69.85
16:26:49.343750,65.16
16:26:49.359375,61.27
16:26:49.375000,57.81
16:26:49.390625,54.76
16:26:49.406250,52.13
16:26:49.421875,49.69
16:26:49.437500,46.79
16:26:49.453125,42.52
16:26:49.468750,35.99
16:26:49.484375,26.68
16:26:49.500000,14.71
16:26:49.515625,0.84
16:26:49.531250,-13.79
16:26:49.546875,-28.09
16:26:49.562500,-41.37
16:26:49.578125,-53.65
16:26:49.593750,-65.66
16:26:49.609375,-78.57
16:26:49.625000,-93.64
16:26:49.640625,-111.71
16:26:49.656250,-132.70
16:26:49.671875,-155.19
16:26:49.687500,-176.35
16:26:49.703125,-192.23
16:26:49.718750,-198.65
16:26:49.734375,-192.32
16:26:49.750000,-171.94
16:26:49.765625,-138.70
16:26:49.781250,-96.07
16:26:49.796875,-48.77
16:26:49.812500,-1.51
16:26:49.828125,42.02
16:26:49.843750,79.52
16:26:49.859375,109.85
16:26:49.875000,132.46
16:26:49.890625,147.01
16:26:49.906250,153.32
16:26:49.921875,151.78
16:26:49.937500,143.58
16:26:49.953125,130.81
16:26:49.968750,116.01
16:26:49.984375,101.53
16:26:50,88.93
16:26:50.015625,78.72
16:26:50.031250,70.53
16:26:50.046875,63.60
16:26:50.062500,57.33
16:26:50.078125,51.53
16:26:50.093750,46.41
16:26:50.109375,42.24
16:26:50.125000,38.97
16:26:50.140625,35.99
16:26:50.156250,32.19
16:26:50.171875,26.30
16:26:50.187500,17.41
16:26:50.203125,5.34
16:26:50.218750,-9.24
16:26:50.234375,-25.05
16:26:50.250000,-40.73
16:26:50.265625,-55.37
16:26:50.281250,-68.75
16:26:50.296875,-81.44
16:26:50.312500,-94.51
16:26:50.328125,-109.20
16:26:50.343750,-126.59
16:26:50.359375,-147.13
16:26:50.375000,-170.18
16:26:50.390625,-193.74
16:26:50.406250,-214.39
16:26:50.421875,-227.76
16:26:50.437500,-229.67
16:26:50.453125,-217.40
16:26:50.468750,-190.72
16:26:50.484375,-152.14
16:26:50.500000,-106.29
16:26:50.515625,-58.47
16:26:50.531250,-13.32
16:26:50.546875,26.06
16:26:50.562500,58.24
16:26:50.578125,82.82
16:26:50.593750,99.75
16:26:50.609375,108.94
16:26:50.625000,110.27
16:26:50.640625,104.18
16:26:50.656250,92.07
16:26:50.671875,76.36
16:26:50.687500,60.07
16:26:50.703125,45.97
16:26:50.718750,35.83
16:26:50.734375,30.13
16:26:50.750000,28.47
16:26:50.765625,30.13
16:26:50.781250,34.60
16:26:50.796875,41.59
16:26:50.812500,50.65
16:26:50.828125,60.80
16:26:50.843750,70.57
16:26:50.859375,78.52
16:26:50.875000,83.72
16:26:50.890625,85.91
16:26:50.906250,84.98
16:26:50.921875,80.21
16:26:50.937500,69.97
16:26:50.953125,52.27
16:26:50.968750,25.99
16:26:50.984375,-7.97
16:26:51,-46.45
16:26:51.015625,-85.08
16:26:51.031250,-120.01
16:26:51.046875,-149.29
16:26:51.062500,-173.25
16:26:51.078125,-193.62
16:26:51.093750,-212.16
16:26:51.109375,-229.43
16:26:51.125000,-244.42
16:26:51.140625,-254.94
16:26:51.156250,-258.39
16:26:51.171875,-252.57
16:26:51.187500,-236.14
16:26:51.203125,-208.69
16:26:51.218750,-170.66
16:26:51.234375,-123.33
16:26:51.250000,-68.77
16:26:51.265625,-9.96
16:26:51.281250,49.26
16:26:51.296875,104.55
16:26:51.312500,151.65
16:26:51.328125,187.37
16:26:51.343750,210.34
16:26:51.359375,221.45
16:26:51.375000,223.45
16:26:51.390625,219.92
16:26:51.406250,214.04
16:26:51.421875,207.62
16:26:51.437500,200.96
16:26:51.453125,193.49
16:26:51.468750,184.61
16:26:51.484375,174.26
16:26:51.500000,163.14
16:26:51.515625,152.26
16:26:51.531250,142.49
16:26:51.546875,134.26
16:26:51.562500,127.52
16:26:51.578125,122.06
16:26:51.593750,117.70
16:26:51.609375,114.34
16:26:51.625000,111.75
16:26:51.640625,109.41
16:26:51.656250,106.39
16:26:51.671875,101.52
16:26:51.687500,93.69
16:26:51.703125,82.18
16:26:51.718750,66.82
16:26:51.734375,47.96
16:26:51.750000,26.37
16:26:51.765625,3.03
16:26:51.781250,-21.16
16:26:51.796875,-45.45
16:26:51.812500,-69.43
16:26:51.828125,-93.14
16:26:51.843750,-117.06
16:26:51.859375,-142.00
16:26:51.875000,-168.62
16:26:51.890625,-196.92
16:26:51.906250,-225.58
16:26:51.921875,-251.80
16:26:51.937500,-271.58
16:26:51.953125,-280.74
16:26:51.968750,-276.17
16:26:51.984375,-256.93
16:26:52,-224.62
16:26:52.015625,-182.86
16:26:52.031250,-136.25
16:26:52.046875,-89.04
16:26:52.062500,-44.35
16:26:52.078125,-4.01
16:26:52.093750,31.10
16:26:52.109375,60.41
16:26:52.125000,83.38
16:26:52.140625,99.49
16:26:52.156250,108.60
16:26:52.171875,111.25
16:26:52.187500,108.83
16:26:52.203125,103.33
16:26:52.218750,96.89
16:26:52.234375,91.29
16:26:52.250000,87.64
16:26:52.265625,86.24
16:26:52.281250,86.82
16:26:52.296875,88.87
16:26:52.312500,91.90
16:26:52.328125,95.52
16:26:52.343750,99.45
16:26:52.359375,103.24
16:26:52.375000,106.22
16:26:52.390625,107.51
16:26:52.406250,106.38
16:26:52.421875,102.55
16:26:52.437500,96.39
16:26:52.453125,88.90
16:26:52.468750,81.32
16:26:52.484375,74.65
16:26:52.500000,69.22
16:26:52.515625,64.60
16:26:52.531250,59.83
16:26:52.546875,53.87
16:26:52.562500,46.09
16:26:52.578125,36.53
16:26:52.593750,25.81
16:26:52.609375,14.88
16:26:52.625000,4.59
16:26:52.640625,-4.64
16:26:52.656250,-12.89
16:26:52.671875,-20.72
16:26:52.687500,-28.78
16:26:52.703125,-37.64
16:26:52.718750,-47.50
16:26:52.734375,-58.23
16:26:52.750000,-69.51
16:26:52.765625,-81.05
16:26:52.781250,-92.86
16:26:52.796875,-105.24
16:26:52.812500,-118.81
16:26:52.828125,-134.34
16:26:52.843750,-152.55
16:26:52.859375,-173.72
16:26:52.875000,-197.21
16:26:52.890625,-221.10
16:26:52.906250,-242.09
16:26:52.921875,-256.01
16:26:52.937500,-258.82
16:26:52.953125,-247.88
16:26:52.968750,-222.90
16:26:52.984375,-186.18
16:26:53,-141.83
16:26:53.015625,-94.63
16:26:53.031250,-48.76
16:26:53.046875,-7.11
16:26:53.062500,28.70
16:26:53.078125,57.95
16:26:53.093750,80.34
16:26:53.109375,95.79
16:26:53.125000,104.54
16:26:53.140625,107.38
16:26:53.156250,105.65
16:26:53.171875,101.09
16:26:53.187500,95.41
16:26:53.203125,90.05
16:26:53.218750,85.87
16:26:53.234375,83.18
16:26:53.250000,81.94
16:26:53.265625,81.82
16:26:53.281250,82.44
16:26:53.296875,83.44
16:26:53.312500,84.49
16:26:53.328125,85.35
16:26:53.343750,85.82
16:26:53.359375,85.74
16:26:53.375000,84.90
16:26:53.390625,83.12
16:26:53.406250,80.21
16:26:53.421875,76.04
16:26:53.437500,70.63
16:26:53.453125,64.09
16:26:53.468750,56.61
16:26:53.484375,48.33
16:26:53.500000,39.28
16:26:53.515625,29.49
16:26:53.531250,18.99
16:26:53.546875,7.97
16:26:53.562500,-3.27
16:26:53.578125,-14.37
16:26:53.593750,-25.02
16:26:53.609375,-35.09
16:26:53.625000,-44.57
16:26:53.640625,-53.53
16:26:53.656250,-62.01
16:26:53.671875,-70.01
16:26:53.687500,-77.54
16:26:53.703125,-84.80
16:26:53.718750,-92.26
16:26:53.734375,-100.71
16:26:53.750000,-111.11
16:26:53.765625,-124.23
16:26:53.781250,-140.15
16:26:53.796875,-157.84
16:26:53.812500,-174.96
16:26:53.828125,-188.08
16:26:53.843750,-193.48
16:26:53.859375,-188.11
16:26:53.875000,-170.74
16:26:53.890625,-142.40
16:26:53.906250,-106.24
16:26:53.921875,-66.62
16:26:53.937500,-27.90
16:26:53.953125,6.56
16:26:53.968750,34.86
16:26:53.984375,56.46
16:26:54,71.70
16:26:54.015625,81.25
16:26:54.031250,85.95
16:26:54.046875,86.83
16:26:54.062500,85.21
16:26:54.078125,82.65
16:26:54.093750,80.73
16:26:54.109375,80.63
16:26:54.125000,82.91
16:26:54.140625,87.49
16:26:54.156250,93.86
16:26:54.171875,101.37
16:26:54.187500,109.47
16:26:54.203125,117.68
16:26:54.218750,125.49
16:26:54.234375,132.36
16:26:54.250000,137.71
16:26:54.265625,141.08
16:26:54.281250,142.26
16:26:54.296875,141.21
16:26:54.312500,137.98
16:26:54.328125,132.56
16:26:54.343750,124.91
16:26:54.359375,115.09
16:26:54.375000,103.35
16:26:54.390625,90.21
16:26:54.406250,76.32
16:26:54.421875,62.18
16:26:54.437500,48.03
16:26:54.453125,33.87
16:26:54.468750,19.63
16:26:54.484375,5.48
16:26:54.500000,-8.08
16:26:54.515625,-20.37
16:26:54.531250,-30.82
16:26:54.546875,-39.35
16:26:54.562500,-46.54
16:26:54.578125,-53.56
16:26:54.593750,-61.78
16:26:54.609375,-72.18
16:26:54.625000,-84.90
16:26:54.640625,-98.70
16:26:54.656250,-111.13
16:26:54.671875,-118.90
16:26:54.687500,-118.88
16:26:54.703125,-109.09
16:26:54.718750,-89.50
16:26:54.734375,-62.17
16:26:54.750000,-30.62
16:26:54.765625,1.09
16:26:54.781250,29.43
16:26:54.796875,51.89
16:26:54.812500,67.12
16:26:54.828125,74.59
16:26:54.843750,74.46
16:26:54.859375,67.46
16:26:54.875000,55.03
16:26:54.890625,39.31
16:26:54.906250,22.91
16:26:54.921875,8.31
16:26:54.937500,-2.74
16:26:54.953125,-9.52
16:26:54.968750,-12.34
16:26:54.984375,-12.18
16:26:55,-10.13
16:26:55.015625,-7.14
16:26:55.031250,-3.78
16:26:55.046875,-0.36
16:26:55.062500,3.09
16:26:55.078125,6.62
16:26:55.093750,10.30
16:26:55.109375,14.13
16:26:55.125000,17.96
16:26:55.140625,21.46
16:26:55.156250,24.23
16:26:55.171875,25.89
16:26:55.187500,26.26
16:26:55.203125,25.45
16:26:55.218750,23.89
16:26:55.234375,22.20
16:26:55.250000,20.89
16:26:55.265625,20.16
16:26:55.281250,19.58
16:26:55.296875,18.22
16:26:55.312500,14.88
16:26:55.328125,8.65
16:26:55.343750,-0.63
16:26:55.359375,-12.18
16:26:55.375000,-24.47
16:26:55.390625,-35.71
16:26:55.406250,-44.53
16:26:55.421875,-50.41
16:26:55.437500,-53.81
16:26:55.453125,-55.96
16:26:55.468750,-58.47
16:26:55.484375,-62.87
16:26:55.500000,-70.24
16:26:55.515625,-80.73
16:26:55.531250,-93.32
16:26:55.546875,-105.78
16:26:55.562500,-115.03
16:26:55.578125,-117.83
16:26:55.593750,-111.80
16:26:55.609375,-96.18
16:26:55.625000,-72.14
16:26:55.640625,-42.42
16:26:55.656250,-10.54
16:26:55.671875,20.16
16:26:55.687500,47.16
16:26:55.703125,68.92
16:26:55.718750,84.71
16:26:55.734375,94.31
16:26:55.750000,97.78
16:26:55.765625,95.58
16:26:55.781250,88.69
16:26:55.796875,78.73
16:26:55.812500,67.69
16:26:55.828125,57.59
16:26:55.843750,49.87
16:26:55.859375,45.12
16:26:55.875000,43.11
16:26:55.890625,43.05
16:26:55.906250,44.11
16:26:55.921875,45.69
16:26:55.937500,47.53
16:26:55.953125,49.59
16:26:55.968750,51.80
16:26:55.984375,53.87
16:26:56,55.26
16:26:56.015625,55.38
16:26:56.031250,53.70
16:26:56.046875,49.99
16:26:56.062500,44.34
16:26:56.078125,37.18
16:26:56.093750,29.17
16:26:56.109375,20.99
16:26:56.125000,13.10
16:26:56.140625,5.65
16:26:56.156250,-1.70
16:26:56.171875,-9.55
16:26:56.187500,-18.59
16:26:56.203125,-29.21
16:26:56.218750,-41.35
16:26:56.234375,-54.45
16:26:56.250000,-67.59
16:26:56.265625,-79.83
16:26:56.281250,-90.44
16:26:56.296875,-99.06
16:26:56.312500,-105.75
16:26:56.328125,-110.95
16:26:56.343750,-115.51
16:26:56.359375,-120.55
16:26:56.375000,-127.31
16:26:56.390625,-136.65
16:26:56.406250,-148.53
16:26:56.421875,-161.53
16:26:56.437500,-172.92
16:26:56.453125,-179.27
16:26:56.468750,-177.44
16:26:56.484375,-165.64
16:26:56.500000,-144.01
16:26:56.515625,-114.56
16:26:56.531250,-80.51
16:26:56.546875,-45.40
16:26:56.562500,-12.33
16:26:56.578125,16.43
16:26:56.593750,39.45
16:26:56.609375,55.93
16:26:56.625000,65.52
16:26:56.640625,68.26
16:26:56.656250,64.64
16:26:56.671875,55.72
16:26:56.687500,43.06
16:26:56.703125,28.66
16:26:56.718750,14.58
16:26:56.734375,2.58
16:26:56.750000,-6.14
16:26:56.765625,-11.14
16:26:56.781250,-12.53
16:26:56.796875,-10.80
16:26:56.812500,-6.45
16:26:56.828125,0.09
16:26:56.843750,8.45
16:26:56.859375,18.16
16:26:56.875000,28.63
16:26:56.890625,39.11
16:26:56.906250,49.00
16:26:56.921875,57.94
16:26:56.937500,65.94
16:26:56.953125,73.19
16:26:56.968750,79.86
16:26:56.984375,85.82
16:26:57,90.57
16:26:57.015625,93.36
16:26:57.031250,93.53
16:26:57.046875,90.77
16:26:57.062500,85.26
16:26:57.078125,77.56
16:26:57.093750,68.39
16:26:57.109375,58.32
16:26:57.125000,47.68
16:26:57.140625,36.52
16:26:57.156250,24.87
16:26:57.171875,12.99
16:26:57.187500,1.44
16:26:57.203125,-8.97
16:26:57.218750,-17.63
16:26:57.234375,-24.52
16:26:57.250000,-30.61
16:26:57.265625,-37.47
16:26:57.281250,-46.54
16:26:57.296875,-58.22
16:26:57.312500,-71.13
16:26:57.328125,-82.30
16:26:57.343750,-87.89
16:26:57.359375,-84.26
16:26:57.375000,-68.71
16:26:57.390625,-39.84
16:26:57.406250,2.12
16:26:57.421875,55.00
16:26:57.437500,114.24
16:26:57.453125,172.99
16:26:57.468750,223.13
16:26:57.484375,257.26
16:26:57.500000,270.96
16:26:57.515625,264.19
16:26:57.531250,240.99
16:26:57.546875,207.73
16:26:57.562500,170.61
16:26:57.578125,134.03
16:26:57.593750,100.21
16:26:57.609375,70.05
16:26:57.625000,44.30
16:26:57.640625,24.03
16:26:57.656250,10.22
16:26:57.671875,3.00
16:26:57.687500,1.21
16:26:57.703125,2.80
16:26:57.718750,5.87
16:26:57.734375,9.66
16:26:57.750000,14.89
16:26:57.765625,23.43
16:26:57.781250,37.24
16:26:57.796875,57.40
16:26:57.812500,83.41
16:26:57.828125,113.12
16:26:57.843750,143.05
16:26:57.859375,169.25
16:26:57.875000,188.12
16:26:57.890625,197.29
16:26:57.906250,196.19
16:26:57.921875,186.08
16:26:57.937500,169.50
16:26:57.953125,149.32
16:26:57.968750,127.81
16:26:57.984375,106.05
16:26:58,84.09
16:26:58.015625,61.55
16:26:58.031250,38.33
16:26:58.046875,14.98
16:26:58.062500,-7.53
16:26:58.078125,-28.39
16:26:58.093750,-47.54
16:26:58.109375,-65.82
16:26:58.125000,-84.82
16:26:58.140625,-106.33
16:26:58.156250,-131.78
16:26:58.171875,-161.69
16:26:58.187500,-195.19
16:26:58.203125,-229.79
16:26:58.218750,-261.54
16:26:58.234375,-285.73
16:26:58.250000,-298.05
16:26:58.265625,-295.83
16:26:58.281250,-278.93
16:26:58.296875,-249.80
16:26:58.312500,-212.82
16:26:58.328125,-173.08
16:26:58.343750,-135.17
16:26:58.359375,-102.37
16:26:58.375000,-76.47
16:26:58.390625,-58.08
16:26:58.406250,-47.02
16:26:58.421875,-42.72
16:26:58.437500,-44.36
16:26:58.453125,-50.90
16:26:58.468750,-61.07
16:26:58.484375,-73.34
16:26:58.500000,-85.99
16:26:58.515625,-97.33
16:26:58.531250,-105.88
16:26:58.546875,-110.66
16:26:58.562500,-111.31
16:26:58.578125,-108.06
16:26:58.593750,-101.61
16:26:58.609375,-92.86
16:26:58.625000,-82.70
16:26:58.640625,-71.95
16:26:58.656250,-61.34
16:26:58.671875,-51.61
16:26:58.687500,-43.50
16:26:58.703125,-37.66
16:26:58.718750,-34.50
16:26:58.734375,-34.01
16:26:58.750000,-35.78
16:26:58.765625,-39.08
16:26:58.781250,-43.18
16:26:58.796875,-47.58
16:26:58.812500,-52.15
16:26:58.828125,-57.09
16:26:58.843750,-62.68
16:26:58.859375,-69.07
16:26:58.875000,-76.03
16:26:58.890625,-83.08
16:26:58.906250,-89.55
16:26:58.921875,-94.92
16:26:58.937500,-99.05
16:26:58.953125,-102.24
16:26:58.968750,-105.22
16:26:58.984375,-108.95
16:26:59,-114.44
16:26:59.015625,-122.43
16:26:59.031250,-133.15
16:26:59.046875,-145.96
16:26:59.062500,-159.11
16:26:59.078125,-169.80
16:26:59.093750,-174.69
16:26:59.109375,-170.73
16:26:59.125000,-156.14
16:26:59.140625,-130.99
16:26:59.156250,-97.27
16:26:59.171875,-58.30
16:26:59.187500,-17.78
16:26:59.203125,21.02
16:26:59.218750,55.73
16:26:59.234375,84.88
16:26:59.250000,107.62
16:26:59.265625,123.51
16:26:59.281250,132.49
16:26:59.296875,135.06
16:26:59.312500,132.35
16:26:59.328125,126.18
16:26:59.343750,118.59
16:26:59.359375,111.40
16:26:59.375000,105.79
16:26:59.390625,102.10
16:26:59.406250,99.96
16:26:59.421875,98.70
16:26:59.437500,97.70
16:26:59.453125,96.64
16:26:59.468750,95.47
16:26:59.484375,94.17
16:26:59.500000,92.51
16:26:59.515625,90.04
16:26:59.531250,86.18
16:26:59.546875,80.63
16:26:59.562500,73.50
16:26:59.578125,65.44
16:26:59.593750,57.36
16:26:59.609375,50.07
16:26:59.625000,43.90
16:26:59.640625,38.59
16:26:59.656250,33.40
16:26:59.671875,27.39
16:26:59.687500,19.83
16:26:59.703125,10.42
16:26:59.718750,-0.62
16:26:59.734375,-12.73
16:26:59.750000,-25.20
16:26:59.765625,-37.35
16:26:59.781250,-48.73
16:26:59.796875,-59.14
16:26:59.812500,-68.74
16:26:59.828125,-77.96
16:26:59.843750,-87.51
16:26:59.859375,-98.22
16:26:59.875000,-110.65
16:26:59.890625,-124.60
16:26:59.906250,-138.81
16:26:59.921875,-150.90
16:26:59.937500,-157.87
16:26:59.953125,-156.91
16:26:59.968750,-146.34
16:26:59.984375,-126.15
16:27:00,-97.98
16:27:00.015625,-64.56
16:27:00.031250,-28.95
16:27:00.046875,6.11
16:27:00.062500,38.51
16:27:00.078125,66.77
16:27:00.093750,89.84
16:27:00.109375,107.00
16:27:00.125000,117.91
16:27:00.140625,122.78
16:27:00.156250,122.44
16:27:00.171875,118.25
16:27:00.187500,111.92
16:27:00.203125,105.13
16:27:00.218750,99.14
16:27:00.234375,94.62
16:27:00.250000,91.59
16:27:00.265625,89.65
16:27:00.281250,88.29
16:27:00.296875,87.14
16:27:00.312500,86.07
16:27:00.328125,85.14
16:27:00.343750,84.30
16:27:00.359375,83.20
16:27:00.375000,81.18
16:27:00.390625,77.48
16:27:00.406250,71.61
16:27:00.421875,63.58
16:27:00.437500,54.05
16:27:00.453125,43.97
16:27:00.468750,34.29
16:27:00.484375,25.53
16:27:00.500000,17.63
16:27:00.515625,10.06
16:27:00.531250,2.10
16:27:00.546875,-6.77
16:27:00.562500,-16.74
16:27:00.578125,-27.51
16:27:00.593750,-38.57
16:27:00.609375,-49.37
16:27:00.625000,-59.63
16:27:00.640625,-69.43
16:27:00.656250,-79.26
16:27:00.671875,-89.84
16:27:00.687500,-101.93
16:27:00.703125,-116.01
16:27:00.718750,-131.99
16:27:00.734375,-148.92
16:27:00.750000,-164.83
16:27:00.765625,-176.95
16:27:00.781250,-182.19
16:27:00.796875,-178.02
16:27:00.812500,-163.19
16:27:00.828125,-138.23
16:27:00.843750,-105.35
16:27:00.859375,-67.79
16:27:00.875000,-28.93
16:27:00.890625,8.42
16:27:00.906250,42.35
16:27:00.921875,71.84
16:27:00.937500,96.34
16:27:00.953125,115.56
16:27:00.968750,129.36
16:27:00.984375,137.90
16:27:01,141.74
16:27:01.015625,141.83
16:27:01.031250,139.33
16:27:01.046875,135.27
16:27:01.062500,130.44
16:27:01.078125,125.29
16:27:01.093750,120.15
16:27:01.109375,115.29
16:27:01.125000,111.06
16:27:01.140625,107.72
16:27:01.156250,105.36
16:27:01.171875,103.76
16:27:01.187500,102.41
16:27:01.203125,100.75
16:27:01.218750,98.20
16:27:01.234375,94.38
16:27:01.250000,89.06
16:27:01.265625,82.12
16:27:01.281250,73.54
16:27:01.296875,63.32
16:27:01.312500,51.59
16:27:01.328125,38.57
16:27:01.343750,24.69
16:27:01.359375,10.46
16:27:01.375000,-3.51
16:27:01.390625,-16.66
16:27:01.406250,-28.57
16:27:01.421875,-39.04
16:27:01.437500,-48.23
16:27:01.453125,-56.66
16:27:01.468750,-65.26
16:27:01.484375,-75.13
16:27:01.500000,-87.33
16:27:01.515625,-102.34
16:27:01.531250,-119.64
16:27:01.546875,-137.35
16:27:01.562500,-152.39
16:27:01.578125,-161.15
16:27:01.593750,-160.48
16:27:01.609375,-148.69
16:27:01.625000,-126.09
16:27:01.640625,-94.85
16:27:01.656250,-58.22
16:27:01.671875,-19.64
16:27:01.687500,17.94
16:27:01.703125,52.40
16:27:01.718750,82.20
16:27:01.734375,106.23
16:27:01.750000,123.70
16:27:01.765625,134.28
16:27:01.781250,138.32
16:27:01.796875,136.96
16:27:01.812500,131.92
16:27:01.828125,125.15
16:27:01.843750,118.30
16:27:01.859375,112.46
16:27:01.875000,108.09
16:27:01.890625,105.14
16:27:01.906250,103.27
16:27:01.921875,102.05
16:27:01.937500,100.99
16:27:01.953125,99.63
16:27:01.968750,97.43
16:27:01.984375,93.91
16:27:02,88.74
16:27:02.015625,81.87
16:27:02.031250,73.59
16:27:02.046875,64.51
16:27:02.062500,55.32
16:27:02.078125,46.62
16:27:02.093750,38.59
16:27:02.109375,31.04
16:27:02.125000,23.38
16:27:02.140625,14.99
16:27:02.156250,5.36
16:27:02.171875,-5.63
16:27:02.187500,-17.75
16:27:02.203125,-30.50
16:27:02.218750,-43.36
16:27:02.234375,-55.98
16:27:02.250000,-68.34
16:27:02.265625,-80.75
16:27:02.281250,-93.78
16:27:02.296875,-107.92
16:27:02.312500,-123.35
16:27:02.328125,-139.43
16:27:02.343750,-154.52
16:27:02.359375,-166.09
16:27:02.375000,-171.33
16:27:02.390625,-167.91
16:27:02.406250,-154.84
16:27:02.421875,-132.82
16:27:02.437500,-103.99
16:27:02.453125,-71.23
16:27:02.468750,-37.34
16:27:02.484375,-4.44
16:27:02.500000,26.16
16:27:02.515625,53.65
16:27:02.531250,77.41
16:27:02.546875,96.72
16:27:02.562500,110.88
16:27:02.578125,119.51
16:27:02.593750,122.82
16:27:02.609375,121.66
16:27:02.625000,117.39
16:27:02.640625,111.49
16:27:02.656250,105.15
16:27:02.671875,99.14
16:27:02.687500,93.77
16:27:02.703125,89.11
16:27:02.718750,85.23
16:27:02.734375,82.28
16:27:02.750000,80.48
16:27:02.765625,79.88
16:27:02.781250,80.14
16:27:02.796875,80.49
16:27:02.812500,79.87
16:27:02.828125,77.28
16:27:02.843750,72.13
16:27:02.859375,64.45
16:27:02.875000,54.81
16:27:02.890625,44.08
16:27:02.906250,32.99
16:27:02.921875,21.96
16:27:02.937500,11.04
16:27:02.953125,0.10
16:27:02.968750,-10.89
16:27:02.984375,-21.70
16:27:03,-31.87
16:27:03.015625,-40.94
16:27:03.031250,-48.76
16:27:03.046875,-55.67
16:27:03.062500,-62.47
16:27:03.078125,-70.16
16:27:03.093750,-79.74
16:27:03.109375,-91.86
16:27:03.125000,-106.74
16:27:03.140625,-123.92
16:27:03.156250,-142.15
16:27:03.171875,-159.32
16:27:03.187500,-172.56
16:27:03.203125,-178.82
16:27:03.218750,-175.59
16:27:03.234375,-161.78
16:27:03.250000,-138.12
16:27:03.265625,-107.04
16:27:03.281250,-71.94
16:27:03.296875,-36.26
16:27:03.312500,-2.69
16:27:03.328125,27.05
16:27:03.343750,52.03
16:27:03.359375,71.75
16:27:03.375000,85.92
16:27:03.390625,94.46
16:27:03.406250,97.79
16:27:03.421875,96.94
16:27:03.437500,93.46
16:27:03.453125,89.04
16:27:03.468750,85.07
16:27:03.484375,82.35
16:27:03.500000,80.95
16:27:03.515625,80.45
16:27:03.531250,80.19
16:27:03.546875,79.55
16:27:03.562500,78.14
16:27:03.578125,75.79
16:27:03.593750,72.46
16:27:03.609375,68.17
16:27:03.625000,62.95
16:27:03.640625,56.84
16:27:03.656250,49.95
16:27:03.671875,42.56
16:27:03.687500,34.98
16:27:03.703125,27.52
16:27:03.718750,20.23
16:27:03.734375,12.85
16:27:03.750000,4.88
16:27:03.765625,-4.16
16:27:03.781250,-14.58
16:27:03.796875,-26.21
16:27:03.812500,-38.53
16:27:03.828125,-50.75
16:27:03.843750,-62.13
16:27:03.859375,-72.17
16:27:03.875000,-80.79
16:27:03.890625,-88.37
16:27:03.906250,-95.76
16:27:03.921875,-104.06
16:27:03.937500,-114.20
16:27:03.953125,-126.44
16:27:03.968750,-139.90
16:27:03.984375,-152.45
16:27:04,-161.07
16:27:04.015625,-162.67
16:27:04.031250,-155.13
16:27:04.046875,-137.95
16:27:04.062500,-112.50
16:27:04.078125,-81.38
16:27:04.093750,-47.71
16:27:04.109375,-14.19
16:27:04.125000,17.29
16:27:04.140625,45.60
16:27:04.156250,70.11
16:27:04.171875,90.27
16:27:04.187500,105.55
16:27:04.203125,115.56
16:27:04.218750,120.27
16:27:04.234375,120.31
16:27:04.250000,116.82
16:27:04.265625,111.30
16:27:04.281250,105.15
16:27:04.296875,99.41
16:27:04.312500,94.63
16:27:04.328125,90.99
16:27:04.343750,88.49
16:27:04.359375,87.10
16:27:04.375000,86.74
16:27:04.390625,87.16
16:27:04.406250,87.81
16:27:04.421875,87.83
16:27:04.437500,86.26
16:27:04.453125,82.41
16:27:04.468750,76.09
16:27:04.484375,67.79
16:27:04.500000,58.46
16:27:04.515625,49.12
16:27:04.531250,40.48
16:27:04.546875,32.69
16:27:04.562500,25.39
16:27:04.578125,18.00
16:27:04.593750,10.07
16:27:04.609375,1.38
16:27:04.625000,-7.94
16:27:04.640625,-17.64
16:27:04.656250,-27.52
16:27:04.671875,-37.55
16:27:04.687500,-47.90
16:27:04.703125,-58.88
16:27:04.718750,-70.83
16:27:04.734375,-83.97
16:27:04.750000,-98.20
16:27:04.765625,-112.83
16:27:04.781250,-126.43
16:27:04.796875,-136.91
16:27:04.812500,-141.91
16:27:04.828125,-139.54
16:27:04.843750,-128.97
16:27:04.859375,-110.83
16:27:04.875000,-87.00
16:27:04.890625,-60.03
16:27:04.906250,-32.35
16:27:04.921875,-5.76
16:27:04.937500,18.76
16:27:04.953125,40.83
16:27:04.968750,60.22
16:27:04.984375,76.62
16:27:05,89.57
16:27:05.015625,98.66
16:27:05.031250,103.81
16:27:05.046875,105.43
16:27:05.062500,104.33
16:27:05.078125,101.50
16:27:05.093750,97.78
16:27:05.109375,93.69
16:27:05.125000,89.42
16:27:05.140625,84.94
16:27:05.156250,80.20
16:27:05.171875,75.29
16:27:05.187500,70.47
16:27:05.203125,66.08
16:27:05.218750,62.40
16:27:05.234375,59.49
16:27:05.250000,57.07
16:27:05.265625,54.59
16:27:05.281250,51.39
16:27:05.296875,46.85
16:27:05.312500,40.70
16:27:05.328125,32.99
16:27:05.343750,24.19
16:27:05.359375,14.84
16:27:05.375000,5.45
16:27:05.390625,-3.76
16:27:05.406250,-12.81
16:27:05.421875,-21.81
16:27:05.437500,-30.74
16:27:05.453125,-39.40
16:27:05.468750,-47.40
16:27:05.484375,-54.38
16:27:05.500000,-60.21
16:27:05.515625,-65.00
16:27:05.531250,-69.18
16:27:05.546875,-73.26
16:27:05.562500,-77.85
16:27:05.578125,-83.52
16:27:05.593750,-90.84
16:27:05.609375,-100.18
16:27:05.625000,-111.48
16:27:05.640625,-123.88
16:27:05.656250,-135.46
16:27:05.671875,-143.49
16:27:05.687500,-145.05
16:27:05.703125,-137.97
16:27:05.718750,-121.71
16:27:05.734375,-97.70
16:27:05.750000,-69.00
16:27:05.765625,-39.44
16:27:05.781250,-12.54
16:27:05.796875,9.21
16:27:05.812500,24.64
16:27:05.828125,33.78
16:27:05.843750,37.49
16:27:05.859375,37.15
16:27:05.875000,34.49
16:27:05.890625,31.49
16:27:05.906250,30.16
16:27:05.921875,32.22
16:27:05.937500,38.56
16:27:05.953125,49.02
16:27:05.968750,62.32
16:27:05.984375,76.46
16:27:06,89.28
16:27:06.015625,99.09
16:27:06.031250,105.10
16:27:06.046875,107.58
16:27:06.062500,107.55
16:27:06.078125,106.46
16:27:06.093750,105.64
16:27:06.109375,105.93
16:27:06.125000,107.41
16:27:06.140625,109.41
16:27:06.156250,110.76
16:27:06.171875,110.23
16:27:06.187500,106.94
16:27:06.203125,100.63
16:27:06.218750,91.73
16:27:06.234375,81.08
16:27:06.250000,69.69
16:27:06.265625,58.36
16:27:06.281250,47.64
16:27:06.296875,37.80
16:27:06.312500,29.03
16:27:06.328125,21.53
16:27:06.343750,15.52
16:27:06.359375,11.18
16:27:06.375000,8.54
16:27:06.390625,7.41
16:27:06.406250,7.41
16:27:06.421875,7.96
16:27:06.437500,8.26
16:27:06.453125,7.17
16:27:06.468750,3.23
16:27:06.484375,-5.06
16:27:06.500000,-18.59
16:27:06.515625,-36.97
16:27:06.531250,-58.05
16:27:06.546875,-78.15
16:27:06.562500,-93.04
16:27:06.578125,-99.21
16:27:06.593750,-95.07
16:27:06.609375,-81.28
16:27:06.625000,-60.26
16:27:06.640625,-35.09
16:27:06.656250,-8.51
16:27:06.671875,17.52
16:27:06.687500,41.74
16:27:06.703125,62.95
16:27:06.718750,79.70
16:27:06.734375,90.25
16:27:06.750000,93.06
16:27:06.765625,87.42
16:27:06.781250,73.78
16:27:06.796875,53.59
16:27:06.812500,28.92
16:27:06.828125,1.69
16:27:06.843750,-26.73
16:27:06.859375,-55.67
16:27:06.875000,-84.85
16:27:06.890625,-113.98
16:27:06.906250,-142.45
16:27:06.921875,-169.26
16:27:06.937500,-193.29
16:27:06.953125,-213.73
16:27:06.968750,-230.34
16:27:06.984375,-243.61
16:27:07,-254.53
16:27:07.015625,-264.22
16:27:07.031250,-273.51
16:27:07.046875,-282.69
16:27:07.062500,-291.40
16:27:07.078125,-298.83
16:27:07.093750,-304.02
16:27:07.109375,-306.31
16:27:07.125000,-305.51
16:27:07.140625,-302.03
16:27:07.156250,-296.62
16:27:07.171875,-290.12
16:27:07.187500,-283.05
16:27:07.203125,-275.49
16:27:07.218750,-267.10
16:27:07.234375,-257.29
16:27:07.250000,-245.41
16:27:07.265625,-230.94
16:27:07.281250,-213.56
16:27:07.296875,-193.25
16:27:07.312500,-170.27
16:27:07.328125,-145.16
16:27:07.343750,-118.51
16:27:07.359375,-90.81
16:27:07.375000,-62.40
16:27:07.390625,-33.55
16:27:07.406250,-4.64
16:27:07.421875,23.61
16:27:07.437500,50.25
16:27:07.453125,74.37
16:27:07.468750,95.52
16:27:07.484375,113.96
16:27:07.500000,130.58
16:27:07.515625,146.54
16:27:07.531250,162.92
16:27:07.546875,180.48
16:27:07.562500,199.70
16:27:07.578125,220.98
16:27:07.593750,244.61
16:27:07.609375,270.56
16:27:07.625000,298.10
16:27:07.640625,325.60
16:27:07.656250,350.52
16:27:07.671875,369.92
16:27:07.687500,381.07
16:27:07.703125,382.23
16:27:07.718750,373.15
16:27:07.734375,355.19
16:27:07.750000,331.01
16:27:07.765625,303.80
16:27:07.781250,276.39
16:27:07.796875,250.45
16:27:07.812500,226.24
16:27:07.828125,202.85
16:27:07.843750,178.96
16:27:07.859375,153.58
16:27:07.875000,126.51
16:27:07.890625,98.26
16:27:07.906250,69.70
16:27:07.921875,41.61
16:27:07.937500,14.69
16:27:07.953125,-10.19
16:27:07.968750,-31.76
16:27:07.984375,-48.35
16:27:08,-58.41
16:27:08.015625,-61.24
16:27:08.031250,-57.55
16:27:08.046875,-49.42
16:27:08.062500,-39.81
16:27:08.078125,-31.57
16:27:08.093750,-26.59
16:27:08.109375,-25.47
16:27:08.125000,-27.70
16:27:08.140625,-32.22
16:27:08.156250,-38.04
16:27:08.171875,-44.61
16:27:08.187500,-51.68
16:27:08.203125,-59.03
16:27:08.218750,-66.13
16:27:08.234375,-72.09
16:27:08.250000,-75.94
16:27:08.265625,-77.07
16:27:08.281250,-75.65
16:27:08.296875,-72.82
16:27:08.312500,-70.41
16:27:08.328125,-70.45
16:27:08.343750,-74.54
16:27:08.359375,-83.45
16:27:08.375000,-97.00
16:27:08.390625,-114.26
16:27:08.406250,-134.02
16:27:08.421875,-155.15
16:27:08.437500,-176.72
16:27:08.453125,-197.95
16:27:08.468750,-217.85
16:27:08.484375,-235.06
16:27:08.500000,-247.75
16:27:08.515625,-253.86
16:27:08.531250,-251.61
16:27:08.546875,-239.81
16:27:08.562500,-218.25
16:27:08.578125,-187.73
16:27:08.593750,-149.88
16:27:08.609375,-106.80
16:27:08.625000,-60.85
16:27:08.640625,-14.38
16:27:08.656250,30.37
16:27:08.671875,71.35
16:27:08.687500,106.83
16:27:08.703125,135.76
16:27:08.718750,157.99
16:27:08.734375,174.39
16:27:08.750000,186.66
16:27:08.765625,196.67
16:27:08.781250,205.74
16:27:08.796875,214.12
16:27:08.812500,221.10
16:27:08.828125,225.61
16:27:08.843750,227.13
16:27:08.859375,226.04
16:27:08.875000,223.47
16:27:08.890625,220.48
16:27:08.906250,217.26
16:27:08.921875,212.85
16:27:08.937500,205.82
16:27:08.953125,195.22
16:27:08.968750,181.46
16:27:08.984375,166.46
16:27:09,152.79
16:27:09.015625,142.52
16:27:09.031250,136.20
16:27:09.046875,132.75
16:27:09.062500,130.19
16:27:09.078125,126.76
16:27:09.093750,121.75
16:27:09.109375,115.54
16:27:09.125000,109.03
16:27:09.140625,102.79
16:27:09.156250,96.55
16:27:09.171875,89.42
16:27:09.187500,80.55
16:27:09.203125,69.80
16:27:09.218750,58.04
16:27:09.234375,46.79
16:27:09.250000,37.53
16:27:09.265625,31.03
16:27:09.281250,27.07
16:27:09.296875,24.72
16:27:09.312500,22.86
16:27:09.328125,20.64
16:27:09.343750,17.69
16:27:09.359375,13.97
16:27:09.375000,9.55
16:27:09.390625,4.50
16:27:09.406250,-1.12
16:27:09.421875,-7.15
16:27:09.437500,-13.23
16:27:09.453125,-18.80
16:27:09.468750,-23.21
16:27:09.484375,-25.93
16:27:09.500000,-26.73
16:27:09.515625,-25.74
16:27:09.531250,-23.55
16:27:09.546875,-21.03
16:27:09.562500,-19.17
16:27:09.578125,-18.86
16:27:09.593750,-20.54
16:27:09.609375,-24.23
16:27:09.625000,-29.45
16:27:09.640625,-35.50
16:27:09.656250,-41.66
16:27:09.671875,-47.45
16:27:09.687500,-52.60
16:27:09.703125,-56.96
16:27:09.718750,-60.37
16:27:09.734375,-62.56
16:27:09.750000,-63.15
16:27:09.765625,-61.81
16:27:09.781250,-58.37
16:27:09.796875,-52.92
16:27:09.812500,-45.93
16:27:09.828125,-38.13
16:27:09.843750,-30.37
16:27:09.859375,-23.47
16:27:09.875000,-18.01
16:27:09.890625,-14.33
16:27:09.906250,-12.51
16:27:09.921875,-12.43
16:27:09.937500,-13.91
16:27:09.953125,-16.69
16:27:09.968750,-20.42
16:27:09.984375,-24.63
16:27:10,-28.81
16:27:10.015625,-32.51
16:27:10.031250,-35.53
16:27:10.046875,-37.96
16:27:10.062500,-40.11
16:27:10.078125,-42.27
16:27:10.093750,-44.48
16:27:10.109375,-46.48
16:27:10.125000,-47.85
16:27:10.140625,-48.30
16:27:10.156250,-47.94
16:27:10.171875,-47.32
16:27:10.187500,-47.20
16:27:10.203125,-48.18
16:27:10.218750,-50.46
16:27:10.234375,-53.74
16:27:10.250000,-57.43
16:27:10.265625,-60.84
16:27:10.281250,-63.41
16:27:10.296875,-64.79
16:27:10.312500,-64.86
16:27:10.328125,-63.73
16:27:10.343750,-61.73
16:27:10.359375,-59.44
16:27:10.375000,-57.51
16:27:10.390625,-56.53
16:27:10.406250,-56.75
16:27:10.421875,-57.91
16:27:10.437500,-59.37
16:27:10.453125,-60.22
16:27:10.468750,-59.57
16:27:10.484375,-56.80
16:27:10.500000,-51.73
16:27:10.515625,-44.56
16:27:10.531250,-35.92
16:27:10.546875,-26.67
16:27:10.562500,-17.72
16:27:10.578125,-9.81
16:27:10.593750,-3.35
16:27:10.609375,1.61
16:27:10.625000,5.28
16:27:10.640625,7.95
16:27:10.656250,9.83
16:27:10.671875,10.94
16:27:10.687500,11.18
16:27:10.703125,10.47
16:27:10.718750,8.85
16:27:10.734375,6.64
16:27:10.750000,4.25
16:27:10.765625,2.10
16:27:10.781250,0.45
16:27:10.796875,-0.62
16:27:10.812500,-1.23
16:27:10.828125,-1.52
16:27:10.843750,-1.56
16:27:10.859375,-1.39
16:27:10.875000,-0.99
16:27:10.890625,-0.45
16:27:10.906250,-0.03
16:27:10.921875,-0.08
16:27:10.937500,-0.93
16:27:10.953125,-2.71
16:27:10.968750,-5.37
16:27:10.984375,-8.65
16:27:11,-12.31
16:27:11.015625,-16.25
16:27:11.031250,-20.55
16:27:11.046875,-25.38
16:27:11.062500,-30.83
16:27:11.078125,-36.65
16:27:11.093750,-42.23
16:27:11.109375,-46.61
16:27:11.125000,-48.72
16:27:11.140625,-47.67
16:27:11.156250,-43.05
16:27:11.171875,-35.07
16:27:11.187500,-24.59
16:27:11.203125,-12.90
16:27:11.218750,-1.41
16:27:11.234375,8.66
16:27:11.250000,16.56
16:27:11.265625,22.04
16:27:11.281250,25.31
16:27:11.296875,26.81
16:27:11.312500,27.00
16:27:11.328125,26.13
16:27:11.343750,24.20
16:27:11.359375,21.05
16:27:11.375000,16.57
16:27:11.390625,10.82
16:27:11.406250,4.13
16:27:11.421875,-3.04
16:27:11.437500,-10.29
16:27:11.453125,-17.46
16:27:11.468750,-24.61
16:27:11.484375,-31.88
16:27:11.500000,-39.15
16:27:11.515625,-46.03
16:27:11.531250,-51.85
16:27:11.546875,-56.08
16:27:11.562500,-58.57
16:27:11.578125,-59.69
16:27:11.593750,-60.22
16:27:11.609375,-61.02
16:27:11.625000,-62.76
16:27:11.640625,-65.73
16:27:11.656250,-69.96
16:27:11.671875,-75.38
16:27:11.687500,-81.98
16:27:11.703125,-89.83
16:27:11.718750,-98.99
16:27:11.734375,-109.42
16:27:11.750000,-120.81
16:27:11.765625,-132.67
16:27:11.781250,-144.31
16:27:11.796875,-155.01
16:27:11.812500,-164.09
16:27:11.828125,-171.10
16:27:11.843750,-175.91
16:27:11.859375,-178.70
16:27:11.875000,-179.87
16:27:11.890625,-179.87
16:27:11.906250,-178.98
16:27:11.921875,-177.31
16:27:11.937500,-174.81
16:27:11.953125,-171.37
16:27:11.968750,-167.02
16:27:11.984375,-161.88
16:27:12,-156.16
16:27:12.015625,-150.00
16:27:12.031250,-143.38
16:27:12.046875,-136.21
16:27:12.062500,-128.38
16:27:12.078125,-119.84
16:27:12.093750,-110.50
16:27:12.109375,-100.15
16:27:12.125000,-88.38
16:27:12.140625,-74.71
16:27:12.156250,-58.86
16:27:12.171875,-41.06
16:27:12.187500,-22.17
16:27:12.203125,-3.50
16:27:12.218750,13.48
16:27:12.234375,27.62
16:27:12.250000,38.32
16:27:12.265625,45.50
16:27:12.281250,49.50
16:27:12.296875,50.93
16:27:12.312500,50.47
16:27:12.328125,48.93
16:27:12.343750,47.00
16:27:12.359375,45.17
16:27:12.375000,43.62
16:27:12.390625,42.21
16:27:12.406250,40.72
16:27:12.421875,39.05
16:27:12.437500,37.44
16:27:12.453125,36.47
16:27:12.468750,36.91
16:27:12.484375,39.42
16:27:12.500000,44.31
16:27:12.515625,51.21
16:27:12.531250,58.99
16:27:12.546875,65.84
16:27:12.562500,69.64
16:27:12.578125,68.54
16:27:12.593750,61.53
16:27:12.609375,48.72
16:27:12.625000,31.20
16:27:12.640625,10.52
16:27:12.656250,-11.75
16:27:12.671875,-34.23
16:27:12.687500,-55.58
16:27:12.703125,-74.22
16:27:12.718750,-88.37
16:27:12.734375,-96.43
16:27:12.750000,-97.52
16:27:12.765625,-91.81
16:27:12.781250,-80.36
16:27:12.796875,-64.62
16:27:12.812500,-45.87
16:27:12.828125,-25.04
16:27:12.843750,-2.93
16:27:12.859375,19.36
16:27:12.875000,40.29
16:27:12.890625,58.02
16:27:12.906250,70.85
16:27:12.921875,77.70
16:27:12.937500,78.36
16:27:12.953125,73.31
16:27:12.968750,63.52
16:27:12.984375,50.29
16:27:13,35.16
16:27:13.015625,20.03
16:27:13.031250,7.14
16:27:13.046875,-1.07
16:27:13.062500,-2.38
16:27:13.078125,4.72
16:27:13.093750,20.53
16:27:13.109375,43.96
16:27:13.125000,72.63
16:27:13.140625,103.48
16:27:13.156250,133.51
16:27:13.171875,160.61
16:27:13.187500,183.90
16:27:13.203125,203.64
16:27:13.218750,220.68
16:27:13.234375,235.64
16:27:13.250000,248.46
16:27:13.265625,258.32
16:27:13.281250,264.06
16:27:13.296875,264.79
16:27:13.312500,260.32
16:27:13.328125,251.24
16:27:13.343750,238.69
16:27:13.359375,223.85
16:27:13.375000,207.61
16:27:13.390625,190.49
16:27:13.406250,172.70
16:27:13.421875,154.42
16:27:13.437500,135.98
16:27:13.453125,117.89
16:27:13.468750,100.69
16:27:13.484375,84.82
16:27:13.500000,70.46
16:27:13.515625,57.62
16:27:13.531250,46.24
16:27:13.546875,36.24
16:27:13.562500,27.50
16:27:13.578125,19.71
16:27:13.593750,12.13
16:27:13.609375,3.65
16:27:13.625000,-6.93
16:27:13.640625,-20.40
16:27:13.656250,-36.65
16:27:13.671875,-54.37
16:27:13.687500,-71.30
16:27:13.703125,-84.75
16:27:13.718750,-92.39
16:27:13.734375,-92.89
16:27:13.750000,-86.15
16:27:13.765625,-73.14
16:27:13.781250,-55.45
16:27:13.796875,-34.88
16:27:13.812500,-13.09
16:27:13.828125,8.36
16:27:13.843750,27.86
16:27:13.859375,43.72
16:27:13.875000,54.22
16:27:13.890625,58.07
16:27:13.906250,54.80
16:27:13.921875,45.02
16:27:13.937500,30.34
16:27:13.953125,12.83
16:27:13.968750,-5.61
16:27:13.984375,-23.68
16:27:14,-40.70
16:27:14.015625,-56.37
16:27:14.031250,-70.47
16:27:14.046875,-82.66
16:27:14.062500,-92.68
16:27:14.078125,-100.42
16:27:14.093750,-105.94
16:27:14.109375,-109.26
16:27:14.125000,-110.14
16:27:14.140625,-108.03
16:27:14.156250,-102.31
16:27:14.171875,-92.77
16:27:14.187500,-79.82
16:27:14.203125,-64.62
16:27:14.218750,-48.71
16:27:14.234375,-33.55
16:27:14.250000,-20.17
16:27:14.265625,-8.99
16:27:14.281250,0.15
16:27:14.296875,7.94
16:27:14.312500,15.46
16:27:14.328125,24.01
16:27:14.343750,34.81
16:27:14.359375,48.63
16:27:14.375000,65.45
16:27:14.390625,84.36
16:27:14.406250,103.62
16:27:14.421875,121.18
16:27:14.437500,135.09
16:27:14.453125,143.93
16:27:14.468750,147.03
16:27:14.484375,144.48
16:27:14.500000,136.93
16:27:14.515625,125.48
16:27:14.531250,111.44
16:27:14.546875,96.18
16:27:14.562500,81.07
16:27:14.578125,67.25
16:27:14.593750,55.72
16:27:14.609375,47.24
16:27:14.625000,42.29
16:27:14.640625,41.04
16:27:14.656250,43.16
16:27:14.671875,47.78
16:27:14.687500,53.51
16:27:14.703125,58.61
16:27:14.718750,61.47
16:27:14.734375,61.13
16:27:14.750000,57.56
16:27:14.765625,51.62
16:27:14.781250,44.62
16:27:14.796875,37.63
16:27:14.812500,31.06
16:27:14.828125,24.60
16:27:14.843750,17.58
16:27:14.859375,9.58
16:27:14.875000,0.86
16:27:14.890625,-7.62
16:27:14.906250,-14.47
16:27:14.921875,-18.32
16:27:14.937500,-18.08
16:27:14.953125,-12.99
16:27:14.968750,-2.49
16:27:14.984375,13.80
16:27:15,35.82
16:27:15.015625,62.55
16:27:15.031250,91.72
16:27:15.046875,119.90
16:27:15.062500,143.22
16:27:15.078125,158.32
16:27:15.093750,163.19
16:27:15.109375,157.56
16:27:15.125000,142.63
16:27:15.140625,120.38
16:27:15.156250,93.00
16:27:15.171875,62.47
16:27:15.187500,30.60
16:27:15.203125,-0.77
16:27:15.218750,-29.77
16:27:15.234375,-54.64
16:27:15.250000,-74.06
16:27:15.265625,-87.48
16:27:15.281250,-95.10
16:27:15.296875,-97.73
16:27:15.312500,-96.39
16:27:15.328125,-91.94
16:27:15.343750,-84.99
16:27:15.359375,-75.93
16:27:15.375000,-65.20
16:27:15.390625,-53.47
16:27:15.406250,-41.72
16:27:15.421875,-31.03
16:27:15.437500,-22.31
16:27:15.453125,-15.96
16:27:15.468750,-11.95
16:27:15.484375,-9.97
16:27:15.500000,-9.87
16:27:15.515625,-11.98
16:27:15.531250,-17.09
16:27:15.546875,-26.23
16:27:15.562500,-40.12
16:27:15.578125,-58.71
16:27:15.593750,-81.06
16:27:15.609375,-105.58
16:27:15.625000,-130.55
16:27:15.640625,-154.63
16:27:15.656250,-177.07
16:27:15.671875,-197.45
16:27:15.687500,-215.32
16:27:15.703125,-229.69
16:27:15.718750,-239.09
16:27:15.734375,-241.90
16:27:15.750000,-237.09
16:27:15.765625,-224.77
16:27:15.781250,-206.29
16:27:15.796875,-183.98
16:27:15.812500,-160.37
16:27:15.828125,-137.59
16:27:15.843750,-116.92
16:27:15.859375,-98.89
16:27:15.875000,-83.49
16:27:15.890625,-70.55
16:27:15.906250,-59.98
16:27:15.921875,-51.72
16:27:15.937500,-45.78
16:27:15.953125,-41.99
16:27:15.968750,-39.92
16:27:15.984375,-38.81
16:27:16,-37.74
16:27:16.015625,-35.76
16:27:16.031250,-32.13
16:27:16.046875,-26.57
16:27:16.062500,-19.31
16:27:16.078125,-11.01
16:27:16.093750,-2.56
16:27:16.109375,5.13
16:27:16.125000,11.38
16:27:16.140625,15.83
16:27:16.156250,18.36
16:27:16.171875,19.02
16:27:16.187500,17.95
16:27:16.203125,15.34
16:27:16.218750,11.47
16:27:16.234375,6.73
16:27:16.250000,1.50
16:27:16.265625,-3.88
16:27:16.281250,-9.21
16:27:16.296875,-14.54
16:27:16.312500,-20.07
16:27:16.328125,-26.12
16:27:16.343750,-32.97
16:27:16.359375,-40.86
16:27:16.375000,-49.87
16:27:16.390625,-59.91
16:27:16.406250,-70.63
16:27:16.421875,-81.30
16:27:16.437500,-90.86
16:27:16.453125,-98.04
16:27:16.468750,-101.68
16:27:16.484375,-101.01
16:27:16.500000,-95.90
16:27:16.515625,-86.83
16:27:16.531250,-74.58
16:27:16.546875,-60.04
16:27:16.562500,-43.97
16:27:16.578125,-27.00
16:27:16.593750,-9.72
16:27:16.609375,7.13
16:27:16.625000,22.69
16:27:16.640625,36.03
16:27:16.656250,46.52
16:27:16.671875,54.02
16:27:16.687500,59.11
16:27:16.703125,62.98
16:27:16.718750,67.10
16:27:16.734375,72.74
16:27:16.750000,80.48
16:27:16.765625,89.97
16:27:16.781250,99.98
16:27:16.796875,108.82
16:27:16.812500,114.82
16:27:16.828125,116.89
16:27:16.843750,114.66
16:27:16.859375,108.48
16:27:16.875000,99.22
16:27:16.890625,87.89
16:27:16.906250,75.46
16:27:16.921875,62.64
16:27:16.937500,49.85
16:27:16.953125,37.29
16:27:16.968750,25.12
16:27:16.984375,13.67
16:27:17,3.49
16:27:17.015625,-4.60
16:27:17.031250,-9.83
16:27:17.046875,-11.74
16:27:17.062500,-10.45
16:27:17.078125,-6.75
16:27:17.093750,-1.95
16:27:17.109375,2.35
16:27:17.125000,4.55
16:27:17.140625,3.24
16:27:17.156250,-2.45
16:27:17.171875,-12.57
16:27:17.187500,-26.04
16:27:17.203125,-40.45
16:27:17.218750,-52.47
16:27:17.234375,-58.63
16:27:17.250000,-56.46
16:27:17.265625,-45.35
16:27:17.281250,-26.76
16:27:17.296875,-3.66
16:27:17.312500,20.51
16:27:17.328125,42.96
16:27:17.343750,62.06
16:27:17.359375,77.37
16:27:17.375000,89.13
16:27:17.390625,97.77
16:27:17.406250,103.77
16:27:17.421875,107.65
16:27:17.437500,110.20
16:27:17.453125,112.41
16:27:17.468750,115.16
16:27:17.484375,118.85
16:27:17.500000,123.12
16:27:17.515625,126.92
16:27:17.531250,128.86
16:27:17.546875,127.79
16:27:17.562500,123.11
16:27:17.578125,114.97
16:27:17.593750,104.12
16:27:17.609375,91.53
16:27:17.625000,78.20
16:27:17.640625,64.98
16:27:17.656250,52.58
16:27:17.671875,41.67
16:27:17.687500,32.88
16:27:17.703125,26.76
16:27:17.718750,23.65
16:27:17.734375,23.49
16:27:17.750000,25.77
16:27:17.765625,29.52
16:27:17.781250,33.48
16:27:17.796875,36.32
16:27:17.812500,36.90
16:27:17.828125,34.49
16:27:17.843750,28.88
16:27:17.859375,20.37
16:27:17.875000,9.61
16:27:17.890625,-2.60
16:27:17.906250,-15.45
16:27:17.921875,-28.32
16:27:17.937500,-40.71
16:27:17.953125,-52.22
16:27:17.968750,-62.31
16:27:17.984375,-70.20
16:27:18,-74.96
16:27:18.015625,-75.62
16:27:18.031250,-71.50
16:27:18.046875,-62.55
16:27:18.062500,-49.36
16:27:18.078125,-33.16
16:27:18.093750,-15.49
16:27:18.109375,2.10
16:27:18.125000,18.32
16:27:18.140625,32.25
16:27:18.156250,43.32
16:27:18.171875,51.18
16:27:18.187500,55.76
16:27:18.203125,57.23
16:27:18.218750,56.03
16:27:18.234375,52.83
16:27:18.250000,48.41
16:27:18.265625,43.53
16:27:18.281250,38.84
16:27:18.296875,34.84
16:27:18.312500,31.80
16:27:18.328125,29.86
16:27:18.343750,28.95
16:27:18.359375,28.88
16:27:18.375000,29.30
16:27:18.390625,29.81
16:27:18.406250,30.04
16:27:18.421875,29.69
16:27:18.437500,28.62
16:27:18.453125,26.75
16:27:18.468750,24.07
16:27:18.484375,20.54
16:27:18.500000,16.13
16:27:18.515625,10.84
16:27:18.531250,4.82
16:27:18.546875,-1.68
16:27:18.562500,-8.24
16:27:18.578125,-14.43
16:27:18.593750,-19.91
16:27:18.609375,-24.56
16:27:18.625000,-28.44
16:27:18.640625,-31.80
16:27:18.656250,-34.94
16:27:18.671875,-38.16
16:27:18.687500,-41.69
16:27:18.703125,-45.65
16:27:18.718750,-50.05
16:27:18.734375,-54.63
16:27:18.750000,-58.88
16:27:18.765625,-62.00
16:27:18.781250,-63.01
16:27:18.796875,-61.03
16:27:18.812500,-55.60
16:27:18.828125,-46.76
16:27:18.843750,-35.18
16:27:18.859375,-21.89
16:27:18.875000,-8.11
16:27:18.890625,5.03
16:27:18.906250,16.60
16:27:18.921875,25.86
16:27:18.937500,32.35
16:27:18.953125,35.92
16:27:18.968750,36.73
16:27:18.984375,35.33
16:27:19,32.52
16:27:19.015625,29.21
16:27:19.031250,26.17
16:27:19.046875,23.84
16:27:19.062500,22.29
16:27:19.078125,21.27
16:27:19.093750,20.42
16:27:19.109375,19.42
16:27:19.125000,18.10
16:27:19.140625,16.43
16:27:19.156250,14.49
16:27:19.171875,12.31
16:27:19.187500,9.89
16:27:19.203125,7.21
16:27:19.218750,4.21
16:27:19.234375,0.94
16:27:19.250000,-2.55
16:27:19.265625,-6.14
16:27:19.281250,-9.80
16:27:19.296875,-13.50
16:27:19.312500,-17.32
16:27:19.328125,-21.34
16:27:19.343750,-25.64
16:27:19.359375,-30.27
16:27:19.375000,-35.24
16:27:19.390625,-40.61
16:27:19.406250,-46.37
16:27:19.421875,-52.43
16:27:19.437500,-58.50
16:27:19.453125,-64.02
16:27:19.468750,-68.17
16:27:19.484375,-70.03
16:27:19.500000,-68.82
16:27:19.515625,-64.15
16:27:19.531250,-56.20
16:27:19.546875,-45.67
16:27:19.562500,-33.69
16:27:19.578125,-21.50
16:27:19.593750,-10.19
16:27:19.609375,-0.58
16:27:19.625000,6.85
16:27:19.640625,11.91
16:27:19.656250,14.68
16:27:19.671875,15.39
16:27:19.687500,14.52
16:27:19.703125,12.63
16:27:19.718750,10.35
16:27:19.734375,8.19
16:27:19.750000,6.42
16:27:19.765625,5.01
16:27:19.781250,3.71
16:27:19.796875,2.23
16:27:19.812500,0.40
16:27:19.828125,-1.74
16:27:19.843750,-3.96
16:27:19.859375,-6.00
16:27:19.875000,-7.65
16:27:19.890625,-8.82
16:27:19.906250,-9.58
16:27:19.921875,-10.05
16:27:19.937500,-10.34
16:27:19.953125,-10.56
16:27:19.968750,-10.81
16:27:19.984375,-11.23
16:27:20,-12.05
16:27:20.015625,-13.57
16:27:20.031250,-16.12
16:27:20.046875,-19.99
16:27:20.062500,-25.35
16:27:20.078125,-32.13
16:27:20.093750,-39.96
16:27:20.109375,-48.12
16:27:20.125000,-55.56
16:27:20.140625,-61.02
16:27:20.156250,-63.28
16:27:20.171875,-61.38
16:27:20.187500,-54.86
16:27:20.203125,-43.95
16:27:20.218750,-29.55
16:27:20.234375,-13.09
16:27:20.250000,3.75
16:27:20.265625,19.38
16:27:20.281250,32.48
16:27:20.296875,42.21
16:27:20.312500,48.17
16:27:20.328125,50.40
16:27:20.343750,49.32
16:27:20.359375,45.69
16:27:20.375000,40.47
16:27:20.390625,34.68
16:27:20.406250,29.19
16:27:20.421875,24.59
16:27:20.437500,21.09
16:27:20.453125,18.60
16:27:20.468750,16.87
16:27:20.484375,15.65
16:27:20.500000,14.73
16:27:20.515625,13.89
16:27:20.531250,12.91
16:27:20.546875,11.46
16:27:20.562500,9.20
16:27:20.578125,5.88
16:27:20.593750,1.45
16:27:20.609375,-3.92
16:27:20.625000,-9.82
16:27:20.640625,-15.83
16:27:20.656250,-21.58
16:27:20.671875,-26.94
16:27:20.687500,-32.00
16:27:20.703125,-37.00
16:27:20.718750,-42.23
16:27:20.734375,-47.90
16:27:20.750000,-54.07
16:27:20.765625,-60.49
16:27:20.781250,-66.58
16:27:20.796875,-71.39
16:27:20.812500,-73.78
16:27:20.828125,-72.68
16:27:20.843750,-67.35
16:27:20.859375,-57.74
16:27:20.875000,-44.53
16:27:20.890625,-29.01
16:27:20.906250,-12.73
16:27:20.921875,2.85
16:27:20.937500,16.63
16:27:20.953125,27.96
16:27:20.968750,36.63
16:27:20.984375,42.77
16:27:21,46.75
16:27:21.015625,49.09
16:27:21.031250,50.35
16:27:21.046875,51.03
16:27:21.062500,51.41
16:27:21.078125,51.65
16:27:21.093750,51.76
16:27:21.109375,51.68
16:27:21.125000,51.42
16:27:21.140625,50.94
16:27:21.156250,50.21
16:27:21.171875,49.10
16:27:21.187500,47.42
16:27:21.203125,44.97
16:27:21.218750,41.63
16:27:21.234375,37.44
16:27:21.250000,32.50
16:27:21.265625,27.02
16:27:21.281250,21.21
16:27:21.296875,15.26
16:27:21.312500,9.32
16:27:21.328125,3.44
16:27:21.343750,-2.47
16:27:21.359375,-8.66
16:27:21.375000,-15.50
16:27:21.390625,-23.27
16:27:21.406250,-31.96
16:27:21.421875,-41.09
16:27:21.437500,-49.63
16:27:21.453125,-56.22
16:27:21.468750,-59.43
16:27:21.484375,-58.26
16:27:21.500000,-52.37
16:27:21.515625,-42.29
16:27:21.531250,-29.26
16:27:21.546875,-14.92
16:27:21.562500,-0.84
16:27:21.578125,11.77
16:27:21.593750,22.30
16:27:21.609375,30.60
16:27:21.625000,36.81
16:27:21.640625,41.05
16:27:21.656250,43.35
16:27:21.671875,43.69
16:27:21.687500,42.17
16:27:21.703125,39.14
16:27:21.718750,35.19
16:27:21.734375,31.01
16:27:21.750000,27.23
16:27:21.765625,24.23
16:27:21.781250,22.13
16:27:21.796875,20.77
16:27:21.812500,19.80
16:27:21.828125,18.79
16:27:21.843750,17.27
16:27:21.859375,14.87
16:27:21.875000,11.35
16:27:21.890625,6.70
16:27:21.906250,1.03
16:27:21.921875,-5.39
16:27:21.937500,-12.27
16:27:21.953125,-19.26
16:27:21.968750,-26.06
16:27:21.984375,-32.44
16:27:22,-38.35
16:27:22.015625,-43.97
16:27:22.031250,-49.67
16:27:22.046875,-55.85
16:27:22.062500,-62.70
16:27:22.078125,-69.90
16:27:22.093750,-76.55
16:27:22.109375,-81.37
16:27:22.125000,-83.00
16:27:22.140625,-80.52
16:27:22.156250,-73.64
16:27:22.171875,-62.88
16:27:22.187500,-49.35
16:27:22.203125,-34.39
16:27:22.218750,-19.28
16:27:22.234375,-4.99
16:27:22.250000,7.83
16:27:22.265625,18.79
16:27:22.281250,27.56
16:27:22.296875,33.91
16:27:22.312500,37.64
16:27:22.328125,38.79
16:27:22.343750,37.63
16:27:22.359375,34.69
16:27:22.375000,30.66
16:27:22.390625,26.22
16:27:22.406250,21.96
16:27:22.421875,18.23
16:27:22.437500,15.25
16:27:22.453125,13.01
16:27:22.468750,11.39
16:27:22.484375,10.13
16:27:22.500000,8.90
16:27:22.515625,7.39
16:27:22.531250,5.35
16:27:22.546875,2.62
16:27:22.562500,-0.82
16:27:22.578125,-4.93
16:27:22.593750,-9.65
16:27:22.609375,-14.95
16:27:22.625000,-20.77
16:27:22.640625,-27.05
16:27:22.656250,-33.67
16:27:22.671875,-40.52
16:27:22.687500,-47.42
16:27:22.703125,-54.09
16:27:22.718750,-59.99
16:27:22.734375,-64.32
16:27:22.750000,-66.09
16:27:22.765625,-64.36
16:27:22.781250,-58.61
16:27:22.796875,-49.00
16:27:22.812500,-36.38
16:27:22.828125,-22.05
16:27:22.843750,-7.38
16:27:22.859375,6.53
16:27:22.875000,18.95
16:27:22.890625,29.48
16:27:22.906250,37.88
16:27:22.921875,43.98
16:27:22.937500,47.69
16:27:22.953125,49.12
16:27:22.968750,48.62
16:27:22.984375,46.72
16:27:23,43.97
16:27:23.015625,40.81
16:27:23.031250,37.47
16:27:23.046875,34.02
16:27:23.062500,30.48
16:27:23.078125,26.92
16:27:23.093750,23.52
16:27:23.109375,20.46
16:27:23.125000,17.91
16:27:23.140625,15.88
16:27:23.156250,14.23
16:27:23.171875,12.65
16:27:23.187500,10.83
16:27:23.203125,8.53
16:27:23.218750,5.70
16:27:23.234375,2.44
16:27:23.250000,-1.06
16:27:23.265625,-4.72
16:27:23.281250,-8.61
16:27:23.296875,-12.94
16:27:23.312500,-18.01
16:27:23.328125,-24.07
16:27:23.343750,-31.14
16:27:23.359375,-39.03
16:27:23.375000,-47.15
16:27:23.390625,-54.53
16:27:23.406250,-59.75
16:27:23.421875,-61.19
16:27:23.437500,-57.36
16:27:23.453125,-47.43
16:27:23.468750,-31.65
16:27:23.484375,-11.42
16:27:23.500000,10.98
16:27:23.515625,33.09
16:27:23.531250,52.95
16:27:23.546875,69.49
16:27:23.562500,82.55
16:27:23.578125,92.57
16:27:23.593750,100.09
16:27:23.609375,105.49
16:27:23.625000,108.91
16:27:23.640625,110.39
16:27:23.656250,110.09
16:27:23.671875,108.25
16:27:23.687500,105.23
16:27:23.703125,101.34
16:27:23.718750,96.75
16:27:23.734375,91.53
16:27:23.750000,85.82
16:27:23.765625,79.79
16:27:23.781250,73.78
16:27:23.796875,68.13
16:27:23.812500,63.05
16:27:23.828125,58.55
16:27:23.843750,54.44
16:27:23.859375,50.47
16:27:23.875000,46.41
16:27:23.890625,42.19
16:27:23.906250,37.78
16:27:23.921875,33.13
16:27:23.937500,28.07
16:27:23.953125,22.31
16:27:23.968750,15.59
16:27:23.984375,7.84
16:27:24,-0.73
16:27:24.015625,-9.67
16:27:24.031250,-18.43
16:27:24.046875,-26.57
16:27:24.062500,-33.91
16:27:24.078125,-40.48
16:27:24.093750,-46.41
16:27:24.109375,-51.85
16:27:24.125000,-56.81
16:27:24.140625,-61.17
16:27:24.156250,-64.65
16:27:24.171875,-66.73
16:27:24.187500,-66.70
16:27:24.203125,-63.67
16:27:24.218750,-56.83
16:27:24.234375,-45.93
16:27:24.250000,-31.57
16:27:24.265625,-15.24
16:27:24.281250,0.95
16:27:24.296875,14.88
16:27:24.312500,25.00
16:27:24.328125,30.62
16:27:24.343750,31.88
16:27:24.359375,29.41
16:27:24.375000,23.93
16:27:24.390625,16.07
16:27:24.406250,6.36
16:27:24.421875,-4.61
16:27:24.437500,-16.12
16:27:24.453125,-27.33
16:27:24.468750,-37.41
16:27:24.484375,-45.80
16:27:24.500000,-52.18
16:27:24.515625,-56.55
16:27:24.531250,-59.01
16:27:24.546875,-59.70
16:27:24.562500,-58.75
16:27:24.578125,-56.39
16:27:24.593750,-53.00
16:27:24.609375,-49.23
16:27:24.625000,-45.91
16:27:24.640625,-43.79
16:27:24.656250,-43.37
16:27:24.671875,-44.65
16:27:24.687500,-47.08
16:27:24.703125,-49.76
16:27:24.718750,-51.71
16:27:24.734375,-52.27
16:27:24.750000,-51.27
16:27:24.765625,-49.12
16:27:24.781250,-46.63
16:27:24.796875,-44.70
16:27:24.812500,-43.99
16:27:24.828125,-44.78
16:27:24.843750,-46.89
16:27:24.859375,-49.83
16:27:24.875000,-53.08
16:27:24.890625,-56.20
16:27:24.906250,-58.99
16:27:24.921875,-61.47
16:27:24.937500,-63.83
16:27:24.953125,-66.32
16:27:24.968750,-69.09
16:27:24.984375,-72.05
16:27:25,-74.72
16:27:25.015625,-76.20
16:27:25.031250,-75.27
16:27:25.046875,-70.78
16:27:25.062500,-62.04
16:27:25.078125,-49.13
16:27:25.093750,-32.95
16:27:25.109375,-14.99
16:27:25.125000,3.13
16:27:25.140625,20.14
16:27:25.156250,35.28
16:27:25.171875,48.22
16:27:25.187500,58.90
16:27:25.203125,67.25
16:27:25.218750,73.11
16:27:25.234375,76.36
16:27:25.250000,77.05
16:27:25.265625,75.51
16:27:25.281250,72.39
16:27:25.296875,68.40
16:27:25.312500,64.20
16:27:25.328125,60.26
16:27:25.343750,56.84
16:27:25.359375,54.13
16:27:25.375000,52.25
16:27:25.390625,51.23
16:27:25.406250,50.96
16:27:25.421875,51.13
16:27:25.437500,51.35
16:27:25.453125,51.25
16:27:25.468750,50.65
16:27:25.484375,49.61
16:27:25.500000,48.27
16:27:25.515625,46.66
16:27:25.531250,44.52
16:27:25.546875,41.29
16:27:25.562500,36.35
16:27:25.578125,29.22
16:27:25.593750,19.89
16:27:25.609375,8.82
16:27:25.625000,-3.21
16:27:25.640625,-15.34
16:27:25.656250,-26.93
16:27:25.671875,-37.69
16:27:25.687500,-47.61
16:27:25.703125,-56.87
16:27:25.718750,-65.59
16:27:25.734375,-73.86
16:27:25.750000,-81.63
16:27:25.765625,-88.86
16:27:25.781250,-95.61
16:27:25.796875,-102.04
16:27:25.812500,-108.40
16:27:25.828125,-114.88
16:27:25.843750,-121.57
16:27:25.859375,-128.32
16:27:25.875000,-134.72
16:27:25.890625,-140.13
16:27:25.906250,-143.67
16:27:25.921875,-144.30
16:27:25.937500,-141.05
16:27:25.953125,-133.22
16:27:25.968750,-120.68
16:27:25.984375,-103.93
16:27:26,-84.09
16:27:26.015625,-62.58
16:27:26.031250,-40.73
16:27:26.046875,-19.52
16:27:26.062500,0.52
16:27:26.078125,19.22
16:27:26.093750,36.51
16:27:26.109375,52.27
16:27:26.125000,66.22
16:27:26.140625,78.04
16:27:26.156250,87.53
16:27:26.171875,94.73
16:27:26.187500,99.98
16:27:26.203125,103.82
16:27:26.218750,106.79
16:27:26.234375,109.30
16:27:26.250000,111.46
16:27:26.265625,113.18
16:27:26.281250,114.19
16:27:26.296875,114.29
16:27:26.312500,113.42
16:27:26.328125,111.75
16:27:26.343750,109.52
16:27:26.359375,106.92
16:27:26.375000,103.97
16:27:26.390625,100.48
16:27:26.406250,96.16
16:27:26.421875,90.81
16:27:26.437500,84.42
16:27:26.453125,77.19
16:27:26.468750,69.45
16:27:26.484375,61.53
16:27:26.500000,53.72
16:27:26.515625,46.11
16:27:26.531250,38.67
16:27:26.546875,31.30
16:27:26.562500,23.80
16:27:26.578125,16.06
16:27:26.593750,8.08
16:27:26.609375,0.05
16:27:26.625000,-7.69
16:27:26.640625,-14.78
16:27:26.656250,-20.98
16:27:26.671875,-26.34
16:27:26.687500,-31.19
16:27:26.703125,-36.02
16:27:26.718750,-41.34
16:27:26.734375,-47.52
16:27:26.750000,-54.72
16:27:26.765625,-62.85
16:27:26.781250,-71.56
16:27:26.796875,-80.12
16:27:26.812500,-87.40
16:27:26.828125,-91.95
16:27:26.843750,-92.28
16:27:26.859375,-87.37
16:27:26.875000,-77.04
16:27:26.890625,-62.16
16:27:26.906250,-44.43
16:27:26.921875,-25.84
16:27:26.937500,-8.07
16:27:26.953125,7.93
16:27:26.968750,21.95
16:27:26.984375,34.20
16:27:27,44.93
16:27:27.015625,54.07
16:27:27.031250,61.30
16:27:27.046875,66.26
16:27:27.062500,68.86
16:27:27.078125,69.49
16:27:27.093750,68.87
16:27:27.109375,67.84
16:27:27.125000,66.96
16:27:27.140625,66.44
16:27:27.156250,66.09
16:27:27.171875,65.58
16:27:27.187500,64.62
16:27:27.203125,63.11
16:27:27.218750,61.15
16:27:27.234375,58.87
16:27:27.250000,56.36
16:27:27.265625,53.60
16:27:27.281250,50.52
16:27:27.296875,47.14
16:27:27.312500,43.60
16:27:27.328125,40.15
16:27:27.343750,36.97
16:27:27.359375,34.11
16:27:27.375000,31.34
16:27:27.390625,28.28
16:27:27.406250,24.56
16:27:27.421875,19.96
16:27:27.437500,14.48
16:27:27.453125,8.35
16:27:27.468750,1.92
16:27:27.484375,-4.54
16:27:27.500000,-10.83
16:27:27.515625,-16.89
16:27:27.531250,-22.66
16:27:27.546875,-28.12
16:27:27.562500,-33.20
16:27:27.578125,-37.81
16:27:27.593750,-41.89
16:27:27.609375,-45.47
16:27:27.625000,-48.69
16:27:27.640625,-51.81
16:27:27.656250,-55.21
16:27:27.671875,-59.35
16:27:27.687500,-64.58
16:27:27.703125,-71.00
16:27:27.718750,-78.26
16:27:27.734375,-85.50
16:27:27.750000,-91.38
16:27:27.765625,-94.36
16:27:27.781250,-93.05
16:27:27.796875,-86.64
16:27:27.812500,-75.20
16:27:27.828125,-59.68
16:27:27.843750,-41.72
16:27:27.859375,-23.14
16:27:27.875000,-5.51
16:27:27.890625,10.15
16:27:27.906250,23.44
16:27:27.921875,34.37
16:27:27.937500,43.11
16:27:27.953125,49.80
16:27:27.968750,54.49
16:27:27.984375,57.29
16:27:28,58.45
16:27:28.015625,58.38
16:27:28.031250,57.56
16:27:28.046875,56.39
16:27:28.062500,55.04
16:27:28.078125,53.52
16:27:28.093750,51.81
16:27:28.109375,49.96
16:27:28.125000,48.18
16:27:28.140625,46.70
16:27:28.156250,45.64
16:27:28.171875,44.92
16:27:28.187500,44.24
16:27:28.203125,43.28
16:27:28.218750,41.76
16:27:28.234375,39.52
16:27:28.250000,36.50
16:27:28.265625,32.75
16:27:28.281250,28.34
16:27:28.296875,23.41
16:27:28.312500,18.17
16:27:28.328125,12.88
16:27:28.343750,7.70
16:27:28.359375,2.65
16:27:28.375000,-2.39
16:27:28.390625,-7.66
16:27:28.406250,-13.30
16:27:28.421875,-19.25
16:27:28.437500,-25.26
16:27:28.453125,-30.91
16:27:28.468750,-35.81
16:27:28.484375,-39.79
16:27:28.500000,-42.95
16:27:28.515625,-45.67
16:27:28.531250,-48.50
16:27:28.546875,-52.00
16:27:28.562500,-56.57
16:27:28.578125,-62.36
16:27:28.593750,-69.14
16:27:28.609375,-76.27
16:27:28.625000,-82.65
16:27:28.640625,-86.89
16:27:28.656250,-87.55
16:27:28.671875,-83.61
16:27:28.687500,-74.76
16:27:28.703125,-61.59
16:27:28.718750,-45.45
16:27:28.734375,-28.02
16:27:28.750000,-10.92
16:27:28.765625,4.66
16:27:28.781250,18.06
16:27:28.796875,28.91
16:27:28.812500,37.06
16:27:28.828125,42.43
16:27:28.843750,45.11
16:27:28.859375,45.41
16:27:28.875000,43.90
16:27:28.890625,41.32
16:27:28.906250,38.44
16:27:28.921875,35.85
16:27:28.937500,33.92
16:27:28.953125,32.73
16:27:28.968750,32.23
16:27:28.984375,32.23
16:27:29,32.52
16:27:29.015625,32.93
16:27:29.031250,33.31
16:27:29.046875,33.52
16:27:29.062500,33.42
16:27:29.078125,32.80
16:27:29.093750,31.47
16:27:29.109375,29.29
16:27:29.125000,26.23
16:27:29.140625,22.45
16:27:29.156250,18.33
16:27:29.171875,14.29
16:27:29.187500,10.75
16:27:29.203125,7.92
16:27:29.218750,5.77
16:27:29.234375,3.96
16:27:29.250000,1.99
16:27:29.265625,-0.75
16:27:29.281250,-4.72
16:27:29.296875,-10.09
16:27:29.312500,-16.64
16:27:29.328125,-23.80
16:27:29.343750,-30.79
16:27:29.359375,-36.92
16:27:29.375000,-41.84
16:27:29.390625,-45.64
16:27:29.406250,-48.87
16:27:29.421875,-52.33
16:27:29.437500,-56.76
16:27:29.453125,-62.57
16:27:29.468750,-69.59
16:27:29.484375,-77.11
16:27:29.500000,-83.88
16:27:29.515625,-88.41
16:27:29.531250,-89.24
16:27:29.546875,-85.31
16:27:29.562500,-76.26
16:27:29.578125,-62.58
16:27:29.593750,-45.53
16:27:29.609375,-26.82
16:27:29.625000,-8.25
16:27:29.640625,8.70
16:27:29.656250,23.05
16:27:29.671875,34.28
16:27:29.687500,42.21
16:27:29.703125,46.86
16:27:29.718750,48.39
16:27:29.734375,47.16
16:27:29.750000,43.75
16:27:29.765625,39.04
16:27:29.781250,34.00
16:27:29.796875,29.54
16:27:29.812500,26.29
16:27:29.828125,24.55
16:27:29.843750,24.27
16:27:29.859375,25.20
16:27:29.875000,26.89
16:27:29.890625,28.87
16:27:29.906250,30.61
16:27:29.921875,31.63
16:27:29.937500,31.51
16:27:29.953125,30.02
16:27:29.968750,27.15
16:27:29.984375,23.12
16:27:30,18.35
16:27:30.015625,13.32
16:27:30.031250,8.44
16:27:30.046875,3.95
16:27:30.062500,-0.11
16:27:30.078125,-3.87
16:27:30.093750,-7.50
16:27:30.109375,-11.19
16:27:30.125000,-15.06
16:27:30.140625,-19.20
16:27:30.156250,-23.71
16:27:30.171875,-28.67
16:27:30.187500,-34.12
16:27:30.203125,-40.08
16:27:30.218750,-46.53
16:27:30.234375,-53.37
16:27:30.250000,-60.40
16:27:30.265625,-67.21
16:27:30.281250,-73.09
16:27:30.296875,-77.00
16:27:30.312500,-77.73
16:27:30.328125,-74.19
16:27:30.343750,-65.90
16:27:30.359375,-53.19
16:27:30.375000,-37.28
16:27:30.390625,-19.95
16:27:30.406250,-3.01
16:27:30.421875,12.14
16:27:30.437500,24.79
16:27:30.453125,34.86
16:27:30.468750,42.57
16:27:30.484375,48.16
16:27:30.500000,51.75
16:27:30.515625,53.30
16:27:30.531250,52.82
16:27:30.546875,50.59
16:27:30.562500,47.17
16:27:30.578125,43.28
16:27:30.593750,39.63
16:27:30.609375,36.66
16:27:30.625000,34.46
16:27:30.640625,32.83
16:27:30.656250,31.45
16:27:30.671875,30.07
16:27:30.687500,28.56
16:27:30.703125,26.95
16:27:30.718750,25.28
16:27:30.734375,23.57
16:27:30.750000,21.71
16:27:30.765625,19.64
16:27:30.781250,17.24
16:27:30.796875,14.47
16:27:30.812500,11.19
16:27:30.828125,7.27
16:27:30.843750,2.49
16:27:30.859375,-3.26
16:27:30.875000,-9.90
16:27:30.890625,-17.05
16:27:30.906250,-24.22
16:27:30.921875,-30.87
16:27:30.937500,-36.66
16:27:30.953125,-41.56
16:27:30.968750,-45.82
16:27:30.984375,-49.86
16:27:31,-54.17
16:27:31.015625,-59.14
16:27:31.031250,-64.87
16:27:31.046875,-71.06
16:27:31.062500,-76.89
16:27:31.078125,-81.01
16:27:31.093750,-81.91
16:27:31.109375,-78.28
16:27:31.125000,-69.55
16:27:31.140625,-56.11
16:27:31.156250,-39.22
16:27:31.171875,-20.66
16:27:31.187500,-2.14
16:27:31.203125,15.05
16:27:31.218750,30.16
16:27:31.234375,42.75
16:27:31.250000,52.56
16:27:31.265625,59.30
16:27:31.281250,62.83
16:27:31.296875,63.23
16:27:31.312500,60.96
16:27:31.328125,56.83
16:27:31.343750,51.83
16:27:31.359375,46.89
16:27:31.375000,42.69
16:27:31.390625,39.63
16:27:31.406250,37.79
16:27:31.421875,37.01
16:27:31.437500,37.01
16:27:31.453125,37.45
16:27:31.468750,37.97
16:27:31.484375,38.21
16:27:31.500000,37.90
16:27:31.515625,36.76
16:27:31.531250,34.64
16:27:31.546875,31.46
16:27:31.562500,27.28
16:27:31.578125,22.28
16:27:31.593750,16.73
16:27:31.609375,10.98
16:27:31.625000,5.31
16:27:31.640625,-0.02
16:27:31.656250,-4.86
16:27:31.671875,-9.16
16:27:31.687500,-13.07
16:27:31.703125,-16.83
16:27:31.718750,-20.79
16:27:31.734375,-25.34
16:27:31.750000,-30.80
16:27:31.765625,-37.34
16:27:31.781250,-44.99
16:27:31.796875,-53.52
16:27:31.812500,-62.39
16:27:31.828125,-70.60
16:27:31.843750,-76.77
16:27:31.859375,-79.28
16:27:31.875000,-76.80
16:27:31.890625,-68.67
16:27:31.906250,-55.23
16:27:31.921875,-37.83
16:27:31.937500,-18.40
16:27:31.953125,1.03
16:27:31.968750,18.85
16:27:31.984375,34.05
16:27:32,46.17
16:27:32.015625,55.10
16:27:32.031250,60.91
16:27:32.046875,63.81
16:27:32.062500,64.16
16:27:32.078125,62.53
16:27:32.093750,59.70
16:27:32.109375,56.44
16:27:32.125000,53.43
16:27:32.140625,51.03
16:27:32.156250,49.29
16:27:32.171875,48.01
16:27:32.187500,46.88
16:27:32.203125,45.64
16:27:32.218750,44.19
16:27:32.234375,42.50
16:27:32.250000,40.58
16:27:32.265625,38.38
16:27:32.281250,35.74
16:27:32.296875,32.46
16:27:32.312500,28.43
16:27:32.328125,23.70
16:27:32.343750,18.51
16:27:32.359375,13.18
16:27:32.375000,7.89
16:27:32.390625,2.70
16:27:32.406250,-2.52
16:27:32.421875,-7.98
16:27:32.437500,-13.80
16:27:32.453125,-20.02
16:27:32.468750,-26.55
16:27:32.484375,-33.20
16:27:32.500000,-39.82
16:27:32.515625,-46.21
16:27:32.531250,-52.26
16:27:32.546875,-57.92
16:27:32.562500,-63.29
16:27:32.578125,-68.58
16:27:32.593750,-74.05
16:27:32.609375,-79.74
16:27:32.625000,-85.26
16:27:32.640625,-89.65
16:27:32.656250,-91.60
16:27:32.671875,-89.80
16:27:32.687500,-83.40
16:27:32.703125,-72.37
16:27:32.718750,-57.51
16:27:32.734375,-40.14
16:27:32.750000,-21.73
16:27:32.765625,-3.47
16:27:32.781250,13.81
16:27:32.796875,29.54
16:27:32.812500,43.19
16:27:32.828125,54.23
16:27:32.843750,62.15
16:27:32.859375,66.73
16:27:32.875000,68.15
16:27:32.890625,66.98
16:27:32.906250,64.10
16:27:32.921875,60.37
16:27:32.937500,56.53
16:27:32.953125,53.05
16:27:32.968750,50.21
16:27:32.984375,48.18
16:27:33,46.98
16:27:33.015625,46.57
16:27:33.031250,46.75
16:27:33.046875,47.20
16:27:33.062500,47.50
16:27:33.078125,47.23
16:27:33.093750,46.04
16:27:33.109375,43.72
16:27:33.125000,40.21
16:27:33.140625,35.61
16:27:33.156250,30.08
16:27:33.171875,23.88
16:27:33.187500,17.24
16:27:33.203125,10.36
16:27:33.218750,3.41
16:27:33.234375,-3.49
16:27:33.250000,-10.20
16:27:33.265625,-16.61
16:27:33.281250,-22.55
16:27:33.296875,-27.93
16:27:33.312500,-32.74
16:27:33.328125,-37.10
16:27:33.343750,-41.35
16:27:33.359375,-46.00
16:27:33.375000,-51.67
16:27:33.390625,-58.83
16:27:33.406250,-67.64
16:27:33.421875,-77.57
16:27:33.437500,-87.45
16:27:33.453125,-95.52
16:27:33.468750,-99.86
16:27:33.484375,-98.90
16:27:33.500000,-91.92
16:27:33.515625,-79.27
16:27:33.531250,-62.28
16:27:33.546875,-42.80
16:27:33.562500,-22.77
16:27:33.578125,-3.74
16:27:33.593750,13.32
16:27:33.609375,27.88
16:27:33.625000,39.70
16:27:33.640625,48.64
16:27:33.656250,54.65
16:27:33.671875,57.83
16:27:33.687500,58.57
16:27:33.703125,57.54
16:27:33.718750,55.59
16:27:33.734375,53.56
16:27:33.750000,52.06
16:27:33.765625,51.40
16:27:33.781250,51.53
16:27:33.796875,52.18
16:27:33.812500,52.98
16:27:33.828125,53.56
16:27:33.843750,53.72
16:27:33.859375,53.32
16:27:33.875000,52.34
16:27:33.890625,50.75
16:27:33.906250,48.48
16:27:33.921875,45.46
16:27:33.937500,41.66
16:27:33.953125,37.25
16:27:33.968750,32.56
16:27:33.984375,28.00
16:27:34,23.76
16:27:34.015625,19.80
16:27:34.031250,15.69
16:27:34.046875,10.91
16:27:34.062500,5.01
16:27:34.078125,-2.01
16:27:34.093750,-9.75
16:27:34.109375,-17.50
16:27:34.125000,-24.58
16:27:34.140625,-30.64
16:27:34.156250,-35.79
16:27:34.171875,-40.57
16:27:34.187500,-45.66
16:27:34.203125,-51.66
16:27:34.218750,-58.79
16:27:34.234375,-66.76
16:27:34.250000,-74.74
16:27:34.265625,-81.48
16:27:34.281250,-85.49
16:27:34.296875,-85.38
16:27:34.312500,-80.27
16:27:34.328125,-70.04
16:27:34.343750,-55.45
16:27:34.359375,-37.94
16:27:34.375000,-19.26
16:27:34.390625,-0.97
16:27:34.406250,15.77
16:27:34.421875,30.34
16:27:34.437500,42.43
16:27:34.453125,51.87
16:27:34.468750,58.57
16:27:34.484375,62.50
16:27:34.500000,63.84
16:27:34.515625,63.00
16:27:34.531250,60.65
16:27:34.546875,57.47
16:27:34.562500,54.12
16:27:34.578125,51.07
16:27:34.593750,48.64
16:27:34.609375,46.98
16:27:34.625000,46.10
16:27:34.640625,45.89
16:27:34.656250,46.15
16:27:34.671875,46.59
16:27:34.687500,46.89
16:27:34.703125,46.67
16:27:34.718750,45.59
16:27:34.734375,43.33
16:27:34.750000,39.74
16:27:34.765625,34.88
16:27:34.781250,29.07
16:27:34.796875,22.80
16:27:34.812500,16.61
16:27:34.828125,10.90
16:27:34.843750,5.83
16:27:34.859375,1.28
16:27:34.875000,-3.05
16:27:34.890625,-7.50
16:27:34.906250,-12.30
16:27:34.921875,-17.47
16:27:34.937500,-22.88
16:27:34.953125,-28.31
16:27:34.968750,-33.59
16:27:34.984375,-38.71
16:27:35,-43.88
16:27:35.015625,-49.43
16:27:35.031250,-55.69
16:27:35.046875,-62.84
16:27:35.062500,-70.79
16:27:35.078125,-79.02
16:27:35.093750,-86.59
16:27:35.109375,-92.21
16:27:35.125000,-94.46
16:27:35.140625,-92.15
16:27:35.156250,-84.71
16:27:35.171875,-72.44
16:27:35.187500,-56.46
16:27:35.203125,-38.37
16:27:35.218750,-19.83
16:27:35.234375,-2.09
16:27:35.250000,14.14
16:27:35.265625,28.53
16:27:35.281250,40.94
16:27:35.296875,51.17
16:27:35.312500,59.03
16:27:35.328125,64.41
16:27:35.343750,67.51
16:27:35.359375,68.82
16:27:35.375000,69.03
16:27:35.390625,68.81
16:27:35.406250,68.64
16:27:35.421875,68.73
16:27:35.437500,69.07
16:27:35.453125,69.58
16:27:35.468750,70.11
16:27:35.484375,70.56
16:27:35.500000,70.91
16:27:35.515625,71.13
16:27:35.531250,71.19
16:27:35.546875,71.01
16:27:35.562500,70.47
16:27:35.578125,69.40
16:27:35.593750,67.65
16:27:35.609375,65.19
16:27:35.625000,62.15
16:27:35.640625,58.88
16:27:35.656250,55.81
16:27:35.671875,53.38
16:27:35.687500,51.89
16:27:35.703125,51.42
16:27:35.718750,51.83
16:27:35.734375,52.84
16:27:35.750000,54.12
16:27:35.765625,55.40
16:27:35.781250,56.51
16:27:35.796875,57.35
16:27:35.812500,57.76
16:27:35.828125,57.44
16:27:35.843750,56.00
16:27:35.859375,53.00
16:27:35.875000,48.15
16:27:35.890625,41.39
16:27:35.906250,33.01
16:27:35.921875,23.55
16:27:35.937500,13.76
16:27:35.953125,4.53
16:27:35.968750,-3.24
16:27:35.984375,-8.62
16:27:36,-10.90
16:27:36.015625,-9.70
16:27:36.031250,-5.14
16:27:36.046875,2.13
16:27:36.062500,11.06
16:27:36.078125,20.53
16:27:36.093750,29.50
16:27:36.109375,37.21
16:27:36.125000,43.18
16:27:36.140625,47.05
16:27:36.156250,48.54
16:27:36.171875,47.50
16:27:36.187500,44.04
16:27:36.203125,38.62
16:27:36.218750,32.08
16:27:36.234375,25.37
16:27:36.250000,19.26
16:27:36.265625,14.12
16:27:36.281250,9.85
16:27:36.296875,6.00
16:27:36.312500,2.02
16:27:36.328125,-2.54
16:27:36.343750,-7.93
16:27:36.359375,-14.25
16:27:36.375000,-21.58
16:27:36.390625,-30.05
16:27:36.406250,-39.92
16:27:36.421875,-51.59
16:27:36.437500,-65.46
16:27:36.453125,-81.83
16:27:36.468750,-100.68
16:27:36.484375,-121.50
16:27:36.500000,-143.15
16:27:36.515625,-164.07
16:27:36.531250,-182.52
16:27:36.546875,-197.07
16:27:36.562500,-206.95
16:27:36.578125,-212.16
16:27:36.593750,-213.31
16:27:36.609375,-211.25
16:27:36.625000,-206.75
16:27:36.640625,-200.38
16:27:36.656250,-192.55
16:27:36.671875,-183.69
16:27:36.687500,-174.31
16:27:36.703125,-165.04
16:27:36.718750,-156.49
16:27:36.734375,-149.16
16:27:36.750000,-143.35
16:27:36.765625,-139.10
16:27:36.781250,-136.10
16:27:36.796875,-133.73
16:27:36.812500,-131.01
16:27:36.828125,-126.72
16:27:36.843750,-119.68
16:27:36.859375,-108.98
16:27:36.875000,-94.31
16:27:36.890625,-76.00
16:27:36.906250,-55.01
16:27:36.921875,-32.68
16:27:36.937500,-10.43
16:27:36.953125,10.51
16:27:36.968750,29.22
16:27:36.984375,45.07
16:27:37,57.70
16:27:37.015625,66.94
16:27:37.031250,72.83
16:27:37.046875,75.63
16:27:37.062500,75.90
16:27:37.078125,74.40
16:27:37.093750,71.94
16:27:37.109375,69.24
16:27:37.125000,66.83
16:27:37.140625,64.99
16:27:37.156250,63.80
16:27:37.171875,63.24
16:27:37.187500,63.25
16:27:37.203125,63.75
16:27:37.218750,64.52
16:27:37.234375,65.26
16:27:37.250000,65.57
16:27:37.265625,65.00
16:27:37.281250,63.17
16:27:37.296875,59.87
16:27:37.312500,55.07
16:27:37.328125,49.05
16:27:37.343750,42.31
16:27:37.359375,35.49
16:27:37.375000,29.21
16:27:37.390625,23.80
16:27:37.406250,19.27
16:27:37.421875,15.23
16:27:37.437500,11.14
16:27:37.453125,6.53
16:27:37.468750,1.15
16:27:37.484375,-4.87
16:27:37.500000,-11.23
16:27:37.515625,-17.53
16:27:37.531250,-23.52
16:27:37.546875,-29.16
16:27:37.562500,-34.68
16:27:37.578125,-40.42
16:27:37.593750,-46.73
16:27:37.609375,-53.74
16:27:37.625000,-61.23
16:27:37.640625,-68.53
16:27:37.656250,-74.55
16:27:37.671875,-77.98
16:27:37.687500,-77.60
16:27:37.703125,-72.64
16:27:37.718750,-63.00
16:27:37.734375,-49.36
16:27:37.750000,-33.03
16:27:37.765625,-15.55
16:27:37.781250,1.59
16:27:37.796875,17.29
16:27:37.812500,30.93
16:27:37.828125,42.35
16:27:37.843750,51.60
16:27:37.859375,58.77
16:27:37.875000,63.87
16:27:37.890625,66.89
16:27:37.906250,67.90
16:27:37.921875,67.21
16:27:37.937500,65.37
16:27:37.953125,63.08
16:27:37.968750,60.90
16:27:37.984375,59.14
16:27:38,57.76
16:27:38.015625,56.50
16:27:38.031250,55.10
16:27:38.046875,53.52
16:27:38.062500,51.90
16:27:38.078125,50.54
16:27:38.093750,49.61
16:27:38.109375,49.04
16:27:38.125000,48.47
16:27:38.140625,47.42
16:27:38.156250,45.47
16:27:38.171875,42.43
16:27:38.187500,38.44
16:27:38.203125,33.82
16:27:38.218750,28.98
16:27:38.234375,24.18
16:27:38.250000,19.52
16:27:38.265625,14.88
16:27:38.281250,10.15
16:27:38.296875,5.21
16:27:38.312500,0.16
16:27:38.328125,-4.80
16:27:38.343750,-9.41
16:27:38.359375,-13.50
16:27:38.375000,-17.14
16:27:38.390625,-20.63
16:27:38.406250,-24.37
16:27:38.421875,-28.74
16:27:38.437500,-33.80
16:27:38.453125,-39.33
16:27:38.468750,-44.84
16:27:38.484375,-49.79
16:27:38.500000,-53.91
16:27:38.515625,-57.35
16:27:38.531250,-60.58
16:27:38.546875,-64.28
16:27:38.562500,-69.01
16:27:38.578125,-74.94
16:27:38.593750,-81.74
16:27:38.609375,-88.54
16:27:38.625000,-94.10
16:27:38.640625,-96.96
16:27:38.656250,-95.78
16:27:38.671875,-89.68
16:27:38.687500,-78.55
16:27:38.703125,-63.14
16:27:38.718750,-44.93
16:27:38.734375,-25.74
16:27:38.750000,-7.22
16:27:38.765625,9.58
16:27:38.781250,24.28
16:27:38.796875,36.98
16:27:38.812500,47.92
16:27:38.828125,57.14
16:27:38.843750,64.46
16:27:38.859375,69.52
16:27:38.875000,72.15
16:27:38.890625,72.52
16:27:38.906250,71.18
16:27:38.921875,68.88
16:27:38.937500,66.35
16:27:38.953125,64.06
16:27:38.968750,62.20
16:27:38.984375,60.72
16:27:39,59.55
16:27:39.015625,58.63
16:27:39.031250,57.97
16:27:39.046875,57.59
16:27:39.062500,57.34
16:27:39.078125,56.91
16:27:39.093750,55.86
16:27:39.109375,53.79
16:27:39.125000,50.50
16:27:39.140625,46.10
16:27:39.156250,40.87
16:27:39.171875,35.23
16:27:39.187500,29.53
16:27:39.203125,24.03
16:27:39.218750,18.85
16:27:39.234375,14.07
16:27:39.250000,9.74
16:27:39.265625,5.87
16:27:39.281250,2.41
16:27:39.296875,-0.78
16:27:39.312500,-3.94
16:27:39.328125,-7.33
16:27:39.343750,-11.19
