16:17:52,-0.00
16:17:52.015625,-0.00
16:17:52.031250,-0.00
16:17:52.046875,-0.00
16:17:52.062500,-0.00
16:17:52.078125,-0.00
16:17:52.093750,-0.00
16:17:52.109375,-0.00
16:17:52.125000,-0.00
16:17:52.140625,-0.01
16:17:52.156250,-0.00
16:17:52.171875,0.00
16:17:52.187500,0.01
16:17:52.203125,0.01
16:17:52.218750,-0.00
16:17:52.234375,-0.03
16:17:52.250000,-0.05
16:17:52.265625,-0.05
16:17:52.281250,-0.00
16:17:52.296875,0.13
16:17:52.312500,0.36
16:17:52.328125,0.66
16:17:52.343750,1.01
16:17:52.359375,1.37
16:17:52.375000,1.72
16:17:52.390625,2.06
16:17:52.406250,2.40
16:17:52.421875,2.77
16:17:52.437500,3.24
16:17:52.453125,3.80
16:17:52.468750,4.42
16:17:52.484375,5.06
16:17:52.500000,5.66
16:17:52.515625,6.20
16:17:52.531250,6.68
16:17:52.546875,7.15
16:17:52.562500,7.64
16:17:52.578125,8.31
16:17:52.593750,9.14
16:17:52.609375,10.09
16:17:52.625000,11.04
16:17:52.640625,11.88
16:17:52.656250,12.56
16:17:52.671875,13.14
16:17:52.687500,13.76
16:17:52.703125,14.58
16:17:52.718750,15.96
16:17:52.734375,17.91
16:17:52.750000,20.32
16:17:52.765625,22.90
16:17:52.781250,25.38
16:17:52.796875,27.58
16:17:52.812500,29.57
16:17:52.828125,31.68
16:17:52.843750,34.20
16:17:52.859375,37.81
16:17:52.875000,42.54
16:17:52.890625,48.15
16:17:52.906250,54.10
16:17:52.921875,59.83
16:17:52.937500,64.97
16:17:52.953125,69.58
16:17:52.968750,74.14
16:17:52.984375,79.19
16:17:53,85.71
16:17:53.015625,93.76
16:17:53.031250,103.00
16:17:53.046875,112.62
16:17:53.062500,121.73
16:17:53.078125,129.77
16:17:53.093750,136.75
16:17:53.109375,144.29
16:17:53.125000,150.58
16:17:53.140625,157.77
16:17:53.156250,166.64
16:17:53.171875,177.95
16:17:53.187500,191.79
16:17:53.203125,206.97
16:17:53.218750,220.57
16:17:53.234375,228.25
16:17:53.250000,225.36
16:17:53.265625,208.37
16:17:53.281250,176.87
16:17:53.296875,132.76
16:17:53.312500,80.05
16:17:53.328125,23.07
16:17:53.343750,-34.94
16:17:53.359375,-92.44
16:17:53.375000,-149.16
16:17:53.390625,-205.23
16:17:53.406250,-260.49
16:17:53.421875,-313.74
16:17:53.437500,-363.87
16:17:53.453125,-409.83
16:17:53.468750,-450.91
16:17:53.484375,-486.50
16:17:53.500000,-515.74
16:17:53.515625,-537.23
16:17:53.531250,-549.22
16:17:53.546875,-550.04
16:17:53.562500,-538.37
16:17:53.578125,-514.20
16:17:53.593750,-478.67
16:17:53.609375,-433.88
16:17:53.625000,-382.45
16:17:53.640625,-327.02
16:17:53.656250,-269.84
16:17:53.671875,-212.63
16:17:53.687500,-156.70
16:17:53.703125,-102.95
16:17:53.718750,-52.37
16:17:53.734375,-5.90
16:17:53.750000,35.58
16:17:53.765625,71.43
16:17:53.781250,101.35
16:17:53.796875,125.50
16:17:53.812500,144.38
16:17:53.828125,158.68
16:17:53.843750,169.15
16:17:53.859375,176.37
16:17:53.875000,180.75
16:17:53.890625,182.57
16:17:53.906250,182.07
16:17:53.921875,179.51
16:17:53.937500,175.23
16:17:53.953125,169.65
16:17:53.968750,163.18
16:17:53.984375,156.15
16:17:54,148.81
16:17:54.015625,141.30
16:17:54.031250,133.69
16:17:54.046875,126.02
16:17:54.062500,118.33
16:17:54.078125,110.69
16:17:54.093750,103.16
16:17:54.109375,95.80
16:17:54.125000,88.68
16:17:54.140625,81.83
16:17:54.156250,75.25
16:17:54.171875,68.95
16:17:54.187500,62.95
16:17:54.203125,57.25
16:17:54.218750,51.86
16:17:54.234375,46.78
16:17:54.250000,42.03
16:17:54.265625,37.58
16:17:54.281250,33.45
16:17:54.296875,29.61
16:17:54.312500,26.07
16:17:54.328125,22.82
16:17:54.343750,19.84
16:17:54.359375,17.15
16:17:54.375000,14.72
16:17:54.390625,12.57
16:17:54.406250,10.67
16:17:54.421875,9.01
16:17:54.437500,7.58
16:17:54.453125,6.36
16:17:54.468750,5.33
16:17:54.484375,4.48
16:17:54.500000,3.81
16:17:54.515625,3.29
16:17:54.531250,2.90
16:17:54.546875,2.59
16:17:54.562500,2.31
16:17:54.578125,2.02
16:17:54.593750,1.71
16:17:54.609375,1.41
16:17:54.625000,1.17
16:17:54.640625,1.03
16:17:54.656250,1.02
16:17:54.671875,1.11
16:17:54.687500,1.25
16:17:54.703125,1.36
16:17:54.718750,1.39
16:17:54.734375,1.35
16:17:54.750000,1.28
16:17:54.765625,1.25
16:17:54.781250,1.34
16:17:54.796875,1.58
16:17:54.812500,1.94
16:17:54.828125,2.31
16:17:54.843750,2.59
16:17:54.859375,2.73
16:17:54.875000,2.74
16:17:54.890625,2.79
16:17:54.906250,3.03
16:17:54.921875,3.64
16:17:54.937500,4.64
16:17:54.953125,5.91
16:17:54.968750,7.13
16:17:54.984375,7.97
16:17:55,8.23
16:17:55.015625,7.94
16:17:55.031250,7.40
16:17:55.046875,7.13
16:17:55.062500,7.56
16:17:55.078125,8.88
16:17:55.093750,10.86
16:17:55.109375,12.86
16:17:55.125000,14.17
16:17:55.140625,14.34
16:17:55.156250,13.41
16:17:55.171875,11.99
16:17:55.187500,11.02
16:17:55.203125,11.32
16:17:55.218750,13.17
16:17:55.234375,16.10
16:17:55.250000,18.85
16:17:55.265625,20.17
16:17:55.281250,19.19
16:17:55.296875,15.89
16:17:55.312500,11.08
16:17:55.328125,6.02
16:17:55.343750,1.59
16:17:55.359375,-2.03
16:17:55.375000,-5.64
16:17:55.390625,-10.79
16:17:55.406250,-18.66
16:17:55.421875,-29.87
16:17:55.437500,-44.47
16:17:55.453125,-62.06
16:17:55.468750,-81.85
16:17:55.484375,-102.21
16:17:55.500000,-120.13
16:17:55.515625,-130.81
16:17:55.531250,-130.58
16:17:55.546875,-117.58
16:17:55.562500,-93.36
16:17:55.578125,-62.95
16:17:55.593750,-32.97
16:17:55.609375,-9.04
16:17:55.625000,6.34
16:17:55.640625,14.25
16:17:55.656250,18.08
16:17:55.671875,20.85
16:17:55.687500,24.24
16:17:55.703125,28.27
16:17:55.718750,32.35
16:17:55.734375,36.68
16:17:55.750000,42.96
16:17:55.765625,53.75
16:17:55.781250,70.72
16:17:55.796875,92.64
16:17:55.812500,114.47
16:17:55.828125,128.65
16:17:55.843750,127.64
16:17:55.859375,107.48
16:17:55.875000,69.62
16:17:55.890625,20.52
16:17:55.906250,-30.86
16:17:55.921875,-75.92
16:17:55.937500,-108.82
16:17:55.953125,-127.08
16:17:55.968750,-130.76
16:17:55.984375,-121.59
16:17:56,-102.47
16:17:56.015625,-77.48
16:17:56.031250,-51.45
16:17:56.046875,-30.29
16:17:56.062500,-18.00
16:17:56.078125,-15.60
16:17:56.093750,-21.13
16:17:56.109375,-30.98
16:17:56.125000,-41.52
16:17:56.140625,-50.37
16:17:56.156250,-56.27
16:17:56.171875,-58.87
16:17:56.187500,-58.11
16:17:56.203125,-53.80
16:17:56.218750,-46.16
16:17:56.234375,-35.77
16:17:56.250000,-23.83
16:17:56.265625,-11.43
16:17:56.281250,0.70
16:17:56.296875,12.46
16:17:56.312500,24.14
16:17:56.328125,35.95
16:17:56.343750,47.94
16:17:56.359375,58.83
16:17:56.375000,68.05
16:17:56.390625,74.82
16:17:56.406250,78.57
16:17:56.421875,79.26
16:17:56.437500,77.42
16:17:56.453125,73.95
16:17:56.468750,69.74
16:17:56.484375,65.60
16:17:56.500000,61.87
16:17:56.515625,58.57
16:17:56.531250,55.35
16:17:56.546875,51.83
16:17:56.562500,47.88
16:17:56.578125,43.69
16:17:56.593750,40.05
16:17:56.609375,37.04
16:17:56.625000,34.82
16:17:56.640625,33.25
16:17:56.656250,32.06
16:17:56.671875,30.85
16:17:56.687500,29.29
16:17:56.703125,27.42
16:17:56.718750,25.54
16:17:56.734375,24.12
16:17:56.750000,23.39
16:17:56.765625,23.42
16:17:56.781250,23.85
16:17:56.796875,24.27
16:17:56.812500,24.25
16:17:56.828125,23.70
16:17:56.843750,22.93
16:17:56.859375,22.57
16:17:56.875000,23.18
16:17:56.890625,24.94
16:17:56.906250,27.57
16:17:56.921875,30.32
16:17:56.937500,32.41
16:17:56.953125,33.44
16:17:56.968750,33.47
16:17:56.984375,33.02
16:17:57,32.80
16:17:57.015625,33.22
16:17:57.031250,34.28
16:17:57.046875,36.12
16:17:57.062500,38.55
16:17:57.078125,41.66
16:17:57.093750,45.23
16:17:57.109375,47.94
16:17:57.125000,47.55
16:17:57.140625,41.32
16:17:57.156250,27.80
16:17:57.171875,7.77
16:17:57.187500,-15.67
16:17:57.203125,-38.30
16:17:57.218750,-56.49
16:17:57.234375,-68.45
16:17:57.250000,-74.31
16:17:57.265625,-75.02
16:17:57.281250,-71.16
16:17:57.296875,-62.55
16:17:57.312500,-48.89
16:17:57.328125,-31.05
16:17:57.343750,-11.84
16:17:57.359375,4.43
16:17:57.375000,13.50
16:17:57.390625,12.89
16:17:57.406250,3.11
16:17:57.421875,-12.59
16:17:57.437500,-29.58
16:17:57.453125,-43.20
16:17:57.468750,-50.77
16:17:57.484375,-52.11
16:17:57.500000,-48.93
16:17:57.515625,-43.62
16:17:57.531250,-38.10
16:17:57.546875,-33.17
16:17:57.562500,-28.58
16:17:57.578125,-23.76
16:17:57.593750,-18.50
16:17:57.609375,-13.33
16:17:57.625000,-8.96
16:17:57.640625,-6.05
16:17:57.656250,-4.48
16:17:57.671875,-3.60
16:17:57.687500,-2.46
16:17:57.703125,-0.34
16:17:57.718750,2.90
16:17:57.734375,6.82
16:17:57.750000,10.59
16:17:57.765625,13.45
16:17:57.781250,15.02
16:17:57.796875,15.46
16:17:57.812500,15.26
16:17:57.828125,14.98
16:17:57.843750,14.94
16:17:57.859375,14.95
16:17:57.875000,14.69
16:17:57.890625,13.52
16:17:57.906250,11.19
16:17:57.921875,7.65
16:17:57.937500,3.27
16:17:57.953125,-1.43
16:17:57.968750,-5.95
16:17:57.984375,-10.01
16:17:58,-13.59
16:17:58.015625,-16.82
16:17:58.031250,-19.87
16:17:58.046875,-22.74
16:17:58.062500,-25.27
16:17:58.078125,-27.14
16:17:58.093750,-28.06
16:17:58.109375,-27.89
16:17:58.125000,-26.76
16:17:58.140625,-25.06
16:17:58.156250,-23.21
16:17:58.171875,-21.58
16:17:58.187500,-20.28
16:17:58.203125,-19.18
16:17:58.218750,-17.98
16:17:58.234375,-16.44
16:17:58.250000,-14.37
16:17:58.265625,-11.94
16:17:58.281250,-9.51
16:17:58.296875,-7.54
16:17:58.312500,-6.51
16:17:58.328125,-6.61
16:17:58.343750,-7.81
16:17:58.359375,-9.59
16:17:58.375000,-10.72
16:17:58.390625,-9.67
16:17:58.406250,-5.32
16:17:58.421875,2.31
16:17:58.437500,12.00
16:17:58.453125,21.84
16:17:58.468750,30.28
16:17:58.484375,36.57
16:17:58.500000,40.99
16:17:58.515625,44.47
16:17:58.531250,47.79
16:17:58.546875,50.86
16:17:58.562500,52.88
16:17:58.578125,52.95
16:17:58.593750,50.66
16:17:58.609375,46.48
16:17:58.625000,40.95
16:17:58.640625,34.51
16:17:58.656250,27.92
16:17:58.671875,22.74
16:17:58.687500,21.53
16:17:58.703125,27.23
16:17:58.718750,41.86
16:17:58.734375,65.01
16:17:58.750000,93.36
16:17:58.765625,120.83
16:17:58.781250,140.38
16:17:58.796875,147.41
16:17:58.812500,141.16
16:17:58.828125,124.22
16:17:58.843750,100.34
16:17:58.859375,72.30
16:17:58.875000,40.65
16:17:58.890625,7.75
16:17:58.906250,-24.48
16:17:58.921875,-54.61
16:17:58.937500,-79.62
16:17:58.953125,-95.71
16:17:58.968750,-100.52
16:17:58.984375,-95.30
16:17:59,-84.76
16:17:59.015625,-75.18
16:17:59.031250,-71.77
16:17:59.046875,-77.21
16:17:59.062500,-92.93
16:17:59.078125,-116.76
16:17:59.093750,-144.25
16:17:59.109375,-170.92
16:17:59.125000,-194.33
16:17:59.140625,-213.77
16:17:59.156250,-229.13
16:17:59.171875,-240.19
16:17:59.187500,-247.43
16:17:59.203125,-254.67
16:17:59.218750,-264.39
16:17:59.234375,-276.22
16:17:59.250000,-286.60
16:17:59.265625,-290.75
16:17:59.281250,-284.20
16:17:59.296875,-264.20
16:17:59.312500,-230.91
16:17:59.328125,-172.57
16:17:59.343750,-94.36
16:17:59.359375,-14.10
16:17:59.375000,50.32
16:17:59.390625,92.94
16:17:59.406250,118.10
16:17:59.421875,133.21
16:17:59.437500,143.52
16:17:59.453125,150.84
16:17:59.468750,154.77
16:17:59.484375,152.27
16:17:59.500000,143.30
16:17:59.515625,132.15
16:17:59.531250,124.77
16:17:59.546875,125.30
16:17:59.562500,135.09
16:17:59.578125,153.22
16:17:59.593750,178.02
16:17:59.609375,207.57
16:17:59.625000,237.78
16:17:59.640625,265.29
16:17:59.656250,280.38
16:17:59.671875,277.37
16:17:59.687500,254.08
16:17:59.703125,213.41
16:17:59.718750,163.00
16:17:59.734375,112.98
16:17:59.750000,72.28
16:17:59.765625,44.15
16:17:59.781250,27.52
16:17:59.796875,18.83
16:17:59.812500,15.44
16:17:59.828125,15.47
16:17:59.843750,18.28
16:17:59.859375,23.37
16:17:59.875000,29.97
16:17:59.890625,36.61
16:17:59.906250,40.76
16:17:59.921875,40.79
16:17:59.937500,36.28
16:17:59.953125,29.56
16:17:59.968750,23.21
16:17:59.984375,19.35
16:18:00,18.42
16:18:00.015625,20.06
16:18:00.031250,23.31
16:18:00.046875,26.55
16:18:00.062500,28.25
16:18:00.078125,27.39
16:18:00.093750,24.34
16:18:00.109375,19.97
16:18:00.125000,15.65
16:18:00.140625,11.88
16:18:00.156250,8.98
16:18:00.171875,6.96
16:18:00.187500,4.44
16:18:00.203125,-0.95
16:18:00.218750,-11.84
16:18:00.234375,-30.00
16:18:00.250000,-56.74
16:18:00.265625,-87.07
16:18:00.281250,-118.60
16:18:00.296875,-150.40
16:18:00.312500,-182.08
16:18:00.328125,-213.74
16:18:00.343750,-244.22
16:18:00.359375,-270.02
16:18:00.375000,-285.99
16:18:00.390625,-288.84
16:18:00.406250,-279.23
16:18:00.421875,-262.92
16:18:00.437500,-246.77
16:18:00.453125,-234.12
16:18:00.468750,-224.53
16:18:00.484375,-214.90
16:18:00.500000,-201.64
16:18:00.515625,-182.40
16:18:00.531250,-157.53
16:18:00.546875,-127.95
16:18:00.562500,-93.71
16:18:00.578125,-52.01
16:18:00.593750,2.33
16:18:00.609375,70.80
16:18:00.625000,147.80
16:18:00.640625,221.37
16:18:00.656250,278.25
16:18:00.671875,308.14
16:18:00.687500,308.38
16:18:00.703125,283.83
16:18:00.718750,236.04
16:18:00.734375,176.82
16:18:00.750000,123.83
16:18:00.765625,88.91
16:18:00.781250,70.39
16:18:00.796875,58.77
16:18:00.812500,43.04
16:18:00.828125,19.46
16:18:00.843750,-9.84
16:18:00.859375,-39.79
16:18:00.875000,-64.01
16:18:00.890625,-79.33
16:18:00.906250,-82.34
16:18:00.921875,-72.89
16:18:00.937500,-47.58
16:18:00.953125,-11.54
16:18:00.968750,23.79
16:18:00.984375,47.77
16:18:01,57.28
16:18:01.015625,57.08
16:18:01.031250,53.25
16:18:01.046875,48.95
16:18:01.062500,43.62
16:18:01.078125,35.90
16:18:01.093750,24.67
16:18:01.109375,11.55
16:18:01.125000,-0.01
16:18:01.140625,-6.81
16:18:01.156250,-7.25
16:18:01.171875,-2.86
16:18:01.187500,2.77
16:18:01.203125,5.66
16:18:01.218750,3.91
16:18:01.234375,-2.58
16:18:01.250000,-11.65
16:18:01.265625,-20.17
16:18:01.281250,-25.65
16:18:01.296875,-27.07
16:18:01.312500,-25.43
16:18:01.328125,-22.98
16:18:01.343750,-22.07
16:18:01.359375,-23.88
16:18:01.375000,-28.58
16:18:01.390625,-34.90
16:18:01.406250,-40.96
16:18:01.421875,-45.10
16:18:01.437500,-46.55
16:18:01.453125,-45.65
16:18:01.468750,-43.41
16:18:01.484375,-40.99
16:18:01.500000,-38.93
16:18:01.515625,-37.48
16:18:01.531250,-36.30
16:18:01.546875,-34.76
16:18:01.562500,-32.39
16:18:01.578125,-29.17
16:18:01.593750,-25.54
16:18:01.609375,-22.20
16:18:01.625000,-19.78
16:18:01.640625,-18.74
16:18:01.656250,-19.06
16:18:01.671875,-20.49
16:18:01.687500,-22.57
16:18:01.703125,-24.90
16:18:01.718750,-27.24
16:18:01.734375,-29.57
16:18:01.750000,-32.06
16:18:01.765625,-35.04
16:18:01.781250,-38.98
16:18:01.796875,-43.99
16:18:01.812500,-50.30
16:18:01.828125,-58.10
16:18:01.843750,-67.54
16:18:01.859375,-78.62
16:18:01.875000,-91.24
16:18:01.890625,-105.18
16:18:01.906250,-120.17
16:18:01.921875,-135.92
16:18:01.937500,-151.65
16:18:01.953125,-166.71
16:18:01.968750,-180.51
16:18:01.984375,-192.44
16:18:02,-201.91
16:18:02.015625,-208.23
16:18:02.031250,-210.55
16:18:02.046875,-207.67
16:18:02.062500,-201.76
16:18:02.078125,-193.59
16:18:02.093750,-183.76
16:18:02.109375,-172.80
16:18:02.125000,-161.08
16:18:02.140625,-148.82
16:18:02.156250,-136.12
16:18:02.171875,-123.06
16:18:02.187500,-109.81
16:18:02.203125,-96.75
16:18:02.218750,-83.89
16:18:02.234375,-71.44
16:18:02.250000,-59.58
16:18:02.265625,-48.29
16:18:02.281250,-37.37
16:18:02.296875,-26.41
16:18:02.312500,-15.06
16:18:02.328125,-3.16
16:18:02.343750,9.09
16:18:02.359375,21.60
16:18:02.375000,34.07
16:18:02.390625,46.26
16:18:02.406250,58.25
16:18:02.421875,70.42
16:18:02.437500,83.38
16:18:02.453125,97.61
16:18:02.468750,113.23
16:18:02.484375,129.79
16:18:02.500000,146.71
16:18:02.515625,163.20
16:18:02.531250,178.67
16:18:02.546875,192.99
16:18:02.562500,206.43
16:18:02.578125,219.62
16:18:02.593750,233.40
16:18:02.609375,248.73
16:18:02.625000,266.46
16:18:02.640625,287.09
16:18:02.656250,310.03
16:18:02.671875,333.28
16:18:02.687500,353.46
16:18:02.703125,366.67
16:18:02.718750,369.81
16:18:02.734375,361.74
16:18:02.750000,343.79
16:18:02.765625,319.12
16:18:02.781250,291.55
16:18:02.796875,264.16
16:18:02.812500,238.57
16:18:02.828125,215.11
16:18:02.843750,193.56
16:18:02.859375,173.81
16:18:02.875000,156.02
16:18:02.890625,140.41
16:18:02.906250,126.78
16:18:02.921875,114.34
16:18:02.937500,102.01
16:18:02.953125,88.84
16:18:02.968750,74.53
16:18:02.984375,59.54
16:18:03,44.89
16:18:03.015625,31.68
16:18:03.031250,20.59
16:18:03.046875,11.65
16:18:03.062500,4.25
16:18:03.078125,-2.50
16:18:03.093750,-9.39
16:18:03.109375,-16.71
16:18:03.125000,-24.21
16:18:03.140625,-31.25
16:18:03.156250,-37.16
16:18:03.171875,-41.56
16:18:03.187500,-44.46
16:18:03.203125,-46.16
16:18:03.218750,-47.09
16:18:03.234375,-47.65
16:18:03.250000,-48.08
16:18:03.265625,-48.53
16:18:03.281250,-49.07
16:18:03.296875,-49.75
16:18:03.312500,-50.56
16:18:03.328125,-51.40
16:18:03.343750,-52.24
16:18:03.359375,-53.08
16:18:03.375000,-54.08
16:18:03.390625,-55.46
16:18:03.406250,-57.35
16:18:03.421875,-59.58
16:18:03.437500,-61.71
16:18:03.453125,-63.10
16:18:03.468750,-63.23
16:18:03.484375,-61.87
16:18:03.500000,-59.10
16:18:03.515625,-55.23
16:18:03.531250,-50.50
16:18:03.546875,-44.96
16:18:03.562500,-38.53
16:18:03.578125,-31.11
16:18:03.593750,-22.83
16:18:03.609375,-14.16
16:18:03.625000,-5.82
16:18:03.640625,1.43
16:18:03.656250,7.04
16:18:03.671875,10.80
16:18:03.687500,12.87
16:18:03.703125,13.70
16:18:03.718750,13.79
16:18:03.734375,13.57
16:18:03.750000,13.28
16:18:03.765625,12.98
16:18:03.781250,12.60
16:18:03.796875,12.01
16:18:03.812500,11.19
16:18:03.828125,10.16
16:18:03.843750,9.03
16:18:03.859375,7.96
16:18:03.875000,7.08
16:18:03.890625,6.47
16:18:03.906250,6.13
16:18:03.921875,5.99
16:18:03.937500,5.93
16:18:03.953125,5.85
16:18:03.968750,5.66
16:18:03.984375,5.29
16:18:04,4.74
16:18:04.015625,4.04
16:18:04.031250,3.31
16:18:04.046875,2.67
16:18:04.062500,2.21
16:18:04.078125,1.98
16:18:04.093750,1.97
16:18:04.109375,2.10
16:18:04.125000,2.28
16:18:04.140625,2.47
16:18:04.156250,2.60
16:18:04.171875,2.65
16:18:04.187500,2.54
16:18:04.203125,2.19
16:18:04.218750,1.55
16:18:04.234375,0.58
16:18:04.250000,-0.67
16:18:04.265625,-2.09
16:18:04.281250,-3.57
16:18:04.296875,-5.00
16:18:04.312500,-6.33
16:18:04.328125,-7.51
16:18:04.343750,-8.59
16:18:04.359375,-9.66
16:18:04.375000,-10.82
16:18:04.390625,-12.17
16:18:04.406250,-13.68
16:18:04.421875,-15.26
16:18:04.437500,-16.77
16:18:04.453125,-18.13
16:18:04.468750,-19.38
16:18:04.484375,-20.70
16:18:04.500000,-22.33
16:18:04.515625,-24.41
16:18:04.531250,-26.86
16:18:04.546875,-29.38
16:18:04.562500,-31.49
16:18:04.578125,-32.75
16:18:04.593750,-32.78
16:18:04.609375,-31.42
16:18:04.625000,-28.66
16:18:04.640625,-24.69
16:18:04.656250,-19.82
16:18:04.671875,-14.40
16:18:04.687500,-8.85
16:18:04.703125,-3.52
16:18:04.718750,1.31
16:18:04.734375,5.47
16:18:04.750000,8.87
16:18:04.765625,11.51
16:18:04.781250,13.45
16:18:04.796875,14.77
16:18:04.812500,15.59
16:18:04.828125,16.01
16:18:04.843750,16.10
16:18:04.859375,15.87
16:18:04.875000,15.29
16:18:04.890625,14.34
16:18:04.906250,13.04
16:18:04.921875,11.48
16:18:04.937500,9.75
16:18:04.953125,7.95
16:18:04.968750,6.14
16:18:04.984375,4.40
16:18:05,2.79
16:18:05.015625,1.40
16:18:05.031250,0.28
16:18:05.046875,-0.54
16:18:05.062500,-1.10
16:18:05.078125,-1.43
16:18:05.093750,-1.64
16:18:05.109375,-1.78
16:18:05.125000,-1.91
16:18:05.140625,-2.09
16:18:05.156250,-2.32
16:18:05.171875,-2.59
16:18:05.187500,-2.86
16:18:05.203125,-3.03
16:18:05.218750,-3.05
16:18:05.234375,-2.91
16:18:05.250000,-2.70
16:18:05.265625,-2.54
16:18:05.281250,-2.55
16:18:05.296875,-2.74
16:18:05.312500,-3.03
16:18:05.328125,-3.26
16:18:05.343750,-3.30
16:18:05.359375,-3.13
16:18:05.375000,-2.80
16:18:05.390625,-2.44
16:18:05.406250,-2.15
16:18:05.421875,-1.94
16:18:05.437500,-1.79
16:18:05.453125,-1.64
16:18:05.468750,-1.52
16:18:05.484375,-1.52
16:18:05.500000,-1.74
16:18:05.515625,-2.24
16:18:05.531250,-2.94
16:18:05.546875,-3.64
16:18:05.562500,-4.14
16:18:05.578125,-4.28
16:18:05.593750,-4.04
16:18:05.609375,-3.57
16:18:05.625000,-3.12
16:18:05.640625,-3.00
16:18:05.656250,-3.45
16:18:05.671875,-4.56
16:18:05.687500,-6.20
16:18:05.703125,-8.06
16:18:05.718750,-9.77
16:18:05.734375,-10.96
16:18:05.750000,-11.44
16:18:05.765625,-11.19
16:18:05.781250,-10.38
16:18:05.796875,-9.29
16:18:05.812500,-8.21
16:18:05.828125,-7.30
16:18:05.843750,-6.59
16:18:05.859375,-5.96
16:18:05.875000,-5.23
16:18:05.890625,-4.26
16:18:05.906250,-3.05
16:18:05.921875,-1.73
16:18:05.937500,-0.50
16:18:05.953125,0.48
16:18:05.968750,1.16
16:18:05.984375,1.61
16:18:06,1.95
16:18:06.015625,2.30
16:18:06.031250,2.72
16:18:06.046875,3.23
16:18:06.062500,3.83
16:18:06.078125,4.47
16:18:06.093750,5.13
16:18:06.109375,5.66
16:18:06.125000,5.90
16:18:06.140625,5.69
16:18:06.156250,4.98
16:18:06.171875,3.89
16:18:06.187500,2.64
16:18:06.203125,1.51
16:18:06.218750,0.67
16:18:06.234375,0.11
16:18:06.250000,-0.29
16:18:06.265625,-0.64
16:18:06.281250,-0.93
16:18:06.296875,-1.04
16:18:06.312500,-0.81
16:18:06.328125,-0.17
16:18:06.343750,0.72
16:18:06.359375,1.54
16:18:06.375000,1.96
16:18:06.390625,1.75
16:18:06.406250,0.92
16:18:06.421875,-0.36
16:18:06.437500,-1.85
16:18:06.453125,-3.36
16:18:06.468750,-4.82
16:18:06.484375,-6.22
16:18:06.500000,-7.57
16:18:06.515625,-8.83
16:18:06.531250,-9.91
16:18:06.546875,-10.69
16:18:06.562500,-11.13
16:18:06.578125,-11.23
16:18:06.593750,-11.07
16:18:06.609375,-10.82
16:18:06.625000,-10.62
16:18:06.640625,-10.60
16:18:06.656250,-10.80
16:18:06.671875,-11.15
16:18:06.687500,-11.52
16:18:06.703125,-11.70
16:18:06.718750,-11.51
16:18:06.734375,-10.85
16:18:06.750000,-9.75
16:18:06.765625,-8.37
16:18:06.781250,-6.93
16:18:06.796875,-5.66
16:18:06.812500,-4.69
16:18:06.828125,-4.01
16:18:06.843750,-3.53
16:18:06.859375,-3.10
16:18:06.875000,-2.63
16:18:06.890625,-2.14
16:18:06.906250,-1.72
16:18:06.921875,-1.48
16:18:06.937500,-1.42
16:18:06.953125,-1.41
16:18:06.968750,-1.27
16:18:06.984375,-0.86
16:18:07,-0.23
16:18:07.015625,0.47
16:18:07.031250,1.05
16:18:07.046875,1.43
16:18:07.062500,1.67
16:18:07.078125,1.89
16:18:07.093750,2.20
16:18:07.109375,2.53
16:18:07.125000,2.75
16:18:07.140625,2.67
16:18:07.156250,2.24
16:18:07.171875,1.58
16:18:07.187500,0.89
16:18:07.203125,0.36
16:18:07.218750,0.12
16:18:07.234375,0.12
16:18:07.250000,0.24
16:18:07.265625,0.33
16:18:07.281250,0.21
16:18:07.296875,-0.27
16:18:07.312500,-1.20
16:18:07.328125,-2.59
16:18:07.343750,-4.37
16:18:07.359375,-6.33
16:18:07.375000,-8.24
16:18:07.390625,-9.84
16:18:07.406250,-10.93
16:18:07.421875,-11.41
16:18:07.437500,-11.30
16:18:07.453125,-10.72
16:18:07.468750,-9.87
16:18:07.484375,-8.96
16:18:07.500000,-8.15
16:18:07.515625,-7.50
16:18:07.531250,-7.01
16:18:07.546875,-6.58
16:18:07.562500,-6.11
16:18:07.578125,-5.53
16:18:07.593750,-4.83
16:18:07.609375,-4.02
16:18:07.625000,-3.16
16:18:07.640625,-2.33
16:18:07.656250,-1.60
16:18:07.671875,-1.08
16:18:07.687500,-0.85
16:18:07.703125,-0.97
16:18:07.718750,-1.41
16:18:07.734375,-2.06
16:18:07.750000,-2.79
16:18:07.765625,-3.46
16:18:07.781250,-3.98
16:18:07.796875,-4.27
16:18:07.812500,-4.31
16:18:07.828125,-4.06
16:18:07.843750,-3.57
16:18:07.859375,-2.93
16:18:07.875000,-2.24
16:18:07.890625,-1.63
16:18:07.906250,-1.14
16:18:07.921875,-0.75
16:18:07.937500,-0.35
16:18:07.953125,0.10
16:18:07.968750,0.60
16:18:07.984375,1.01
16:18:08,1.20
16:18:08.015625,1.07
16:18:08.031250,0.70
16:18:08.046875,0.24
16:18:08.062500,-0.15
16:18:08.078125,-0.35
16:18:08.093750,-0.42
16:18:08.109375,-0.46
16:18:08.125000,-0.62
16:18:08.140625,-1.01
16:18:08.156250,-1.62
16:18:08.171875,-2.37
16:18:08.187500,-3.14
16:18:08.203125,-3.82
16:18:08.218750,-4.30
16:18:08.234375,-4.52
16:18:08.250000,-4.47
16:18:08.265625,-4.24
16:18:08.281250,-3.97
16:18:08.296875,-3.85
16:18:08.312500,-4.02
16:18:08.328125,-4.48
16:18:08.343750,-5.10
16:18:08.359375,-5.62
16:18:08.375000,-5.77
16:18:08.390625,-5.42
16:18:08.406250,-4.62
16:18:08.421875,-3.58
16:18:08.437500,-2.53
16:18:08.453125,-1.65
16:18:08.468750,-0.98
16:18:08.484375,-0.48
16:18:08.500000,-0.08
16:18:08.515625,0.24
16:18:08.531250,0.47
16:18:08.546875,0.60
16:18:08.562500,0.66
16:18:08.578125,0.76
16:18:08.593750,0.97
16:18:08.609375,1.29
16:18:08.625000,1.65
16:18:08.640625,1.88
16:18:08.656250,1.88
16:18:08.671875,1.60
16:18:08.687500,1.11
16:18:08.703125,0.56
16:18:08.718750,0.07
16:18:08.734375,-0.26
16:18:08.750000,-0.46
16:18:08.765625,-0.62
16:18:08.781250,-0.87
16:18:08.796875,-1.23
16:18:08.812500,-1.71
16:18:08.828125,-2.17
16:18:08.843750,-2.51
16:18:08.859375,-2.68
16:18:08.875000,-2.71
16:18:08.890625,-2.72
16:18:08.906250,-2.81
16:18:08.921875,-3.01
16:18:08.937500,-3.29
16:18:08.953125,-3.54
16:18:08.968750,-3.68
16:18:08.984375,-3.67
16:18:09,-3.55
16:18:09.015625,-3.37
16:18:09.031250,-3.16
16:18:09.046875,-2.91
16:18:09.062500,-2.60
16:18:09.078125,-2.26
16:18:09.093750,-1.96
16:18:09.109375,-1.75
16:18:09.125000,-1.70
16:18:09.140625,-1.81
16:18:09.156250,-2.02
16:18:09.171875,-2.26
16:18:09.187500,-2.41
16:18:09.203125,-2.39
16:18:09.218750,-2.12
16:18:09.234375,-1.57
16:18:09.250000,-0.82
16:18:09.265625,0.03
16:18:09.281250,0.83
16:18:09.296875,1.44
16:18:09.312500,1.82
16:18:09.328125,1.99
16:18:09.343750,2.04
16:18:09.359375,2.05
16:18:09.375000,2.06
16:18:09.390625,2.06
16:18:09.406250,2.00
16:18:09.421875,1.84
16:18:09.437500,1.57
16:18:09.453125,1.22
16:18:09.468750,0.86
16:18:09.484375,0.55
16:18:09.500000,0.29
16:18:09.515625,0.11
16:18:09.531250,-0.01
16:18:09.546875,-0.07
16:18:09.562500,-0.01
16:18:09.578125,0.21
16:18:09.593750,0.60
16:18:09.609375,1.10
16:18:09.625000,1.58
16:18:09.640625,1.84
16:18:09.656250,1.75
16:18:09.671875,1.30
16:18:09.687500,0.62
16:18:09.703125,-0.08
16:18:09.718750,-0.57
16:18:09.734375,-0.74
16:18:09.750000,-0.63
16:18:09.765625,-0.37
16:18:09.781250,-0.13
16:18:09.796875,-0.01
16:18:09.812500,-0.06
16:18:09.828125,-0.23
16:18:09.843750,-0.47
16:18:09.859375,-0.73
16:18:09.875000,-0.99
16:18:09.890625,-1.24
16:18:09.906250,-1.46
16:18:09.921875,-1.69
16:18:09.937500,-1.95
16:18:09.953125,-2.30
16:18:09.968750,-2.75
16:18:09.984375,-3.30
16:18:10,-3.86
16:18:10.015625,-4.31
16:18:10.031250,-4.53
16:18:10.046875,-4.42
16:18:10.062500,-3.95
16:18:10.078125,-3.14
16:18:10.093750,-2.09
16:18:10.109375,-0.97
16:18:10.125000,0.04
16:18:10.140625,0.78
16:18:10.156250,1.16
16:18:10.171875,1.24
16:18:10.187500,1.13
16:18:10.203125,0.96
16:18:10.218750,0.82
16:18:10.234375,0.71
16:18:10.250000,0.57
16:18:10.265625,0.37
16:18:10.281250,0.12
16:18:10.296875,-0.07
16:18:10.312500,-0.10
16:18:10.328125,0.10
16:18:10.343750,0.52
16:18:10.359375,1.07
16:18:10.375000,1.59
16:18:10.390625,2.00
16:18:10.406250,2.20
16:18:10.421875,2.16
16:18:10.437500,1.91
16:18:10.453125,1.46
16:18:10.468750,0.88
16:18:10.484375,0.23
16:18:10.500000,-0.41
16:18:10.515625,-0.94
16:18:10.531250,-1.32
16:18:10.546875,-1.51
16:18:10.562500,-1.54
16:18:10.578125,-1.48
16:18:10.593750,-1.41
16:18:10.609375,-1.43
16:18:10.625000,-1.54
16:18:10.640625,-1.75
16:18:10.656250,-2.01
16:18:10.671875,-2.28
16:18:10.687500,-2.53
16:18:10.703125,-2.78
16:18:10.718750,-3.02
16:18:10.734375,-3.25
16:18:10.750000,-3.46
16:18:10.765625,-3.62
16:18:10.781250,-3.71
16:18:10.796875,-3.73
16:18:10.812500,-3.68
16:18:10.828125,-3.59
16:18:10.843750,-3.45
16:18:10.859375,-3.27
16:18:10.875000,-3.04
16:18:10.890625,-2.73
16:18:10.906250,-2.29
16:18:10.921875,-1.67
16:18:10.937500,-0.84
16:18:10.953125,0.14
16:18:10.968750,1.11
16:18:10.984375,1.86
16:18:11,2.19
16:18:11.015625,2.07
16:18:11.031250,1.63
16:18:11.046875,1.10
16:18:11.062500,0.71
16:18:11.078125,0.57
16:18:11.093750,0.63
16:18:11.109375,0.79
16:18:11.125000,0.92
16:18:11.140625,0.95
16:18:11.156250,0.87
16:18:11.171875,0.66
16:18:11.187500,0.35
16:18:11.203125,-0.06
16:18:11.218750,-0.47
16:18:11.234375,-0.75
16:18:11.250000,-0.78
16:18:11.265625,-0.53
16:18:11.281250,-0.13
16:18:11.296875,0.19
16:18:11.312500,0.20
16:18:11.328125,-0.19
16:18:11.343750,-0.90
16:18:11.359375,-1.68
16:18:11.375000,-2.25
16:18:11.390625,-2.43
16:18:11.406250,-2.21
16:18:11.421875,-1.72
16:18:11.437500,-1.13
16:18:11.453125,-0.57
16:18:11.468750,-0.09
16:18:11.484375,0.30
16:18:11.500000,0.58
16:18:11.515625,0.68
16:18:11.531250,0.50
16:18:11.546875,0.01
16:18:11.562500,-0.69
16:18:11.578125,-1.42
16:18:11.593750,-1.95
16:18:11.609375,-2.11
16:18:11.625000,-1.88
16:18:11.640625,-1.37
16:18:11.656250,-0.76
16:18:11.671875,-0.19
16:18:11.687500,0.25
16:18:11.703125,0.54
16:18:11.718750,0.64
16:18:11.734375,0.53
16:18:11.750000,0.18
16:18:11.765625,-0.35
16:18:11.781250,-0.94
16:18:11.796875,-1.41
16:18:11.812500,-1.63
16:18:11.828125,-1.55
16:18:11.843750,-1.23
16:18:11.859375,-0.83
16:18:11.875000,-0.49
16:18:11.890625,-0.28
16:18:11.906250,-0.20
16:18:11.921875,-0.14
16:18:11.937500,-0.01
16:18:11.953125,0.29
16:18:11.968750,0.75
16:18:11.984375,1.34
16:18:12,1.95
16:18:12.015625,2.44
16:18:12.031250,2.68
16:18:12.046875,2.52
16:18:12.062500,1.97
16:18:12.078125,1.09
16:18:12.093750,0.09
16:18:12.109375,-0.80
16:18:12.125000,-1.38
16:18:12.140625,-1.61
16:18:12.156250,-1.61
16:18:12.171875,-1.60
16:18:12.187500,-1.80
16:18:12.203125,-2.30
16:18:12.218750,-3.02
16:18:12.234375,-3.84
16:18:12.250000,-4.66
16:18:12.265625,-5.44
16:18:12.281250,-6.25
16:18:12.296875,-7.13
16:18:12.312500,-8.03
16:18:12.328125,-8.80
16:18:12.343750,-9.29
16:18:12.359375,-9.43
16:18:12.375000,-9.28
16:18:12.390625,-9.02
16:18:12.406250,-8.76
16:18:12.421875,-8.51
16:18:12.437500,-8.14
16:18:12.453125,-7.45
16:18:12.468750,-6.32
16:18:12.484375,-4.73
16:18:12.500000,-2.85
16:18:12.515625,-0.89
16:18:12.531250,0.94
16:18:12.546875,2.50
16:18:12.562500,3.73
16:18:12.578125,4.59
16:18:12.593750,5.09
16:18:12.609375,5.26
16:18:12.625000,5.12
16:18:12.640625,4.69
16:18:12.656250,4.02
16:18:12.671875,3.21
16:18:12.687500,2.37
16:18:12.703125,1.62
16:18:12.718750,1.06
16:18:12.734375,0.74
16:18:12.750000,0.57
16:18:12.765625,0.40
16:18:12.781250,0.10
16:18:12.796875,-0.40
16:18:12.812500,-1.06
16:18:12.828125,-1.71
16:18:12.843750,-2.22
16:18:12.859375,-2.49
16:18:12.875000,-2.50
16:18:12.890625,-2.33
16:18:12.906250,-2.08
16:18:12.921875,-1.80
16:18:12.937500,-1.46
16:18:12.953125,-0.96
16:18:12.968750,-0.19
16:18:12.984375,0.91
16:18:13,2.28
16:18:13.015625,3.76
16:18:13.031250,5.11
16:18:13.046875,6.08
16:18:13.062500,6.51
16:18:13.078125,6.38
16:18:13.093750,5.77
16:18:13.109375,4.82
16:18:13.125000,3.70
16:18:13.140625,2.50
16:18:13.156250,1.28
16:18:13.171875,0.12
16:18:13.187500,-0.91
16:18:13.203125,-1.70
16:18:13.218750,-2.18
16:18:13.234375,-2.35
16:18:13.250000,-2.25
16:18:13.265625,-1.99
16:18:13.281250,-1.70
16:18:13.296875,-1.42
16:18:13.312500,-1.18
16:18:13.328125,-0.88
16:18:13.343750,-0.44
16:18:13.359375,0.27
16:18:13.375000,1.35
16:18:13.390625,2.81
16:18:13.406250,4.54
16:18:13.421875,6.31
16:18:13.437500,7.85
16:18:13.453125,8.92
16:18:13.468750,9.40
16:18:13.484375,9.33
16:18:13.500000,8.83
16:18:13.515625,8.06
16:18:13.531250,7.14
16:18:13.546875,6.21
16:18:13.562500,5.38
16:18:13.578125,4.77
16:18:13.593750,4.49
16:18:13.609375,4.51
16:18:13.625000,4.73
16:18:13.640625,4.96
16:18:13.656250,4.98
16:18:13.671875,4.67
16:18:13.687500,4.02
16:18:13.703125,3.10
16:18:13.718750,2.00
16:18:13.734375,0.84
16:18:13.750000,-0.25
16:18:13.765625,-1.12
16:18:13.781250,-1.64
16:18:13.796875,-1.75
16:18:13.812500,-1.51
16:18:13.828125,-1.07
16:18:13.843750,-0.63
16:18:13.859375,-0.32
16:18:13.875000,-0.17
16:18:13.890625,-0.12
16:18:13.906250,-0.08
16:18:13.921875,0.00
16:18:13.937500,0.14
16:18:13.953125,0.28
16:18:13.968750,0.41
16:18:13.984375,0.52
16:18:14,0.59
16:18:14.015625,0.60
16:18:14.031250,0.50
16:18:14.046875,0.29
16:18:14.062500,-0.06
16:18:14.078125,-0.49
16:18:14.093750,-0.96
16:18:14.109375,-1.40
16:18:14.125000,-1.77
16:18:14.140625,-2.06
16:18:14.156250,-2.27
16:18:14.171875,-2.42
16:18:14.187500,-2.51
16:18:14.203125,-2.57
16:18:14.218750,-2.64
16:18:14.234375,-2.76
16:18:14.250000,-2.98
16:18:14.265625,-3.28
16:18:14.281250,-3.62
16:18:14.296875,-3.95
16:18:14.312500,-4.21
16:18:14.328125,-4.37
16:18:14.343750,-4.43
16:18:14.359375,-4.39
16:18:14.375000,-4.23
16:18:14.390625,-3.92
16:18:14.406250,-3.43
16:18:14.421875,-2.80
16:18:14.437500,-2.11
16:18:14.453125,-1.51
16:18:14.468750,-1.08
16:18:14.484375,-0.90
16:18:14.500000,-0.89
16:18:14.515625,-1.02
16:18:14.531250,-1.25
16:18:14.546875,-1.58
16:18:14.562500,-2.06
16:18:14.578125,-2.66
16:18:14.593750,-3.29
16:18:14.609375,-3.81
16:18:14.625000,-4.05
16:18:14.640625,-3.92
16:18:14.656250,-3.44
16:18:14.671875,-2.76
16:18:14.687500,-2.02
16:18:14.703125,-1.38
16:18:14.718750,-0.90
16:18:14.734375,-0.54
16:18:14.750000,-0.22
16:18:14.765625,0.19
16:18:14.781250,0.74
16:18:14.796875,1.45
16:18:14.812500,2.22
16:18:14.828125,2.96
16:18:14.843750,3.48
16:18:14.859375,3.66
16:18:14.875000,3.40
16:18:14.890625,2.71
16:18:14.906250,1.67
16:18:14.921875,0.44
16:18:14.937500,-0.83
16:18:14.953125,-2.02
16:18:14.968750,-3.06
16:18:14.984375,-3.94
16:18:15,-4.64
16:18:15.015625,-5.14
16:18:15.031250,-5.38
16:18:15.046875,-5.31
16:18:15.062500,-4.95
16:18:15.078125,-4.40
16:18:15.093750,-3.79
16:18:15.109375,-3.21
16:18:15.125000,-2.72
16:18:15.140625,-2.28
16:18:15.156250,-1.84
16:18:15.171875,-1.43
16:18:15.187500,-1.09
16:18:15.203125,-0.87
16:18:15.218750,-0.77
16:18:15.234375,-0.70
16:18:15.250000,-0.54
16:18:15.265625,-0.15
16:18:15.281250,0.48
16:18:15.296875,1.27
16:18:15.312500,2.10
16:18:15.328125,2.85
16:18:15.343750,3.46
16:18:15.359375,3.92
16:18:15.375000,4.26
16:18:15.390625,4.50
16:18:15.406250,4.61
16:18:15.421875,4.58
16:18:15.437500,4.35
16:18:15.453125,3.93
16:18:15.468750,3.36
16:18:15.484375,2.73
16:18:15.500000,2.15
16:18:15.515625,1.72
16:18:15.531250,1.46
16:18:15.546875,1.32
16:18:15.562500,1.20
16:18:15.578125,0.98
16:18:15.593750,0.58
16:18:15.609375,-0.02
16:18:15.625000,-0.76
16:18:15.640625,-1.56
16:18:15.656250,-2.31
16:18:15.671875,-2.94
16:18:15.687500,-3.41
16:18:15.703125,-3.71
16:18:15.718750,-3.86
16:18:15.734375,-3.89
16:18:15.750000,-3.83
16:18:15.765625,-3.70
16:18:15.781250,-3.51
16:18:15.796875,-3.32
16:18:15.812500,-3.25
16:18:15.828125,-3.46
16:18:15.843750,-4.09
16:18:15.859375,-5.17
16:18:15.875000,-6.58
16:18:15.890625,-8.07
16:18:15.906250,-9.38
16:18:15.921875,-10.30
16:18:15.937500,-10.75
16:18:15.953125,-10.84
16:18:15.968750,-10.74
16:18:15.984375,-10.62
16:18:16,-10.62
16:18:16.015625,-10.76
16:18:16.031250,-11.05
16:18:16.046875,-11.46
16:18:16.062500,-11.98
16:18:16.078125,-12.57
16:18:16.093750,-13.21
16:18:16.109375,-13.81
16:18:16.125000,-14.27
16:18:16.140625,-14.54
16:18:16.156250,-14.58
16:18:16.171875,-14.44
16:18:16.187500,-14.18
16:18:16.203125,-13.86
16:18:16.218750,-13.49
16:18:16.234375,-13.05
16:18:16.250000,-12.51
16:18:16.265625,-11.87
16:18:16.281250,-11.19
16:18:16.296875,-10.53
16:18:16.312500,-9.91
16:18:16.328125,-9.29
16:18:16.343750,-8.58
16:18:16.359375,-7.70
16:18:16.375000,-6.63
16:18:16.390625,-5.44
16:18:16.406250,-4.25
16:18:16.421875,-3.14
16:18:16.437500,-2.15
16:18:16.453125,-1.24
16:18:16.468750,-0.33
16:18:16.484375,0.67
16:18:16.500000,1.81
16:18:16.515625,3.08
16:18:16.531250,4.45
16:18:16.546875,5.86
16:18:16.562500,7.25
16:18:16.578125,8.54
16:18:16.593750,9.66
16:18:16.609375,10.54
16:18:16.625000,11.11
16:18:16.640625,11.34
16:18:16.656250,11.28
16:18:16.671875,11.05
16:18:16.687500,10.85
16:18:16.703125,10.85
16:18:16.718750,11.13
16:18:16.734375,11.63
16:18:16.750000,12.19
16:18:16.765625,12.64
16:18:16.781250,12.87
16:18:16.796875,12.91
16:18:16.812500,12.85
16:18:16.828125,12.77
16:18:16.843750,12.69
16:18:16.859375,12.60
16:18:16.875000,12.45
16:18:16.890625,12.25
16:18:16.906250,12.07
16:18:16.921875,11.96
16:18:16.937500,11.91
16:18:16.953125,11.83
16:18:16.968750,11.57
16:18:16.984375,11.03
16:18:17,10.20
16:18:17.015625,9.20
16:18:17.031250,8.15
16:18:17.046875,7.16
16:18:17.062500,6.26
16:18:17.078125,5.47
16:18:17.093750,4.81
16:18:17.109375,4.34
16:18:17.125000,4.16
16:18:17.140625,4.30
16:18:17.156250,4.71
16:18:17.171875,5.23
16:18:17.187500,5.67
16:18:17.203125,5.92
16:18:17.218750,5.97
16:18:17.234375,5.92
16:18:17.250000,5.87
16:18:17.265625,5.85
16:18:17.281250,5.81
16:18:17.296875,5.70
16:18:17.312500,5.47
16:18:17.328125,5.21
16:18:17.343750,5.00
16:18:17.359375,4.89
16:18:17.375000,4.84
16:18:17.390625,4.70
16:18:17.406250,4.32
16:18:17.421875,3.63
16:18:17.437500,2.72
16:18:17.453125,1.74
16:18:17.468750,0.88
16:18:17.484375,0.27
16:18:17.500000,-0.10
16:18:17.515625,-0.32
16:18:17.531250,-0.55
16:18:17.546875,-0.93
16:18:17.562500,-1.51
16:18:17.578125,-2.29
16:18:17.593750,-3.17
16:18:17.609375,-4.03
16:18:17.625000,-4.79
16:18:17.640625,-5.43
16:18:17.656250,-6.04
16:18:17.671875,-6.78
16:18:17.687500,-7.78
16:18:17.703125,-9.13
16:18:17.718750,-10.88
16:18:17.734375,-13.04
16:18:17.750000,-15.52
16:18:17.765625,-18.16
16:18:17.781250,-20.74
16:18:17.796875,-22.96
16:18:17.812500,-24.53
16:18:17.828125,-25.13
16:18:17.843750,-24.53
16:18:17.859375,-22.58
16:18:17.875000,-19.32
16:18:17.890625,-14.92
16:18:17.906250,-9.75
16:18:17.921875,-4.31
16:18:17.937500,0.88
16:18:17.953125,5.40
16:18:17.968750,8.95
16:18:17.984375,11.51
16:18:18,13.19
16:18:18.015625,14.20
16:18:18.031250,14.72
16:18:18.046875,14.90
16:18:18.062500,14.83
16:18:18.078125,14.59
16:18:18.093750,14.27
16:18:18.109375,13.93
16:18:18.125000,13.58
16:18:18.140625,13.21
16:18:18.156250,12.79
16:18:18.171875,12.33
16:18:18.187500,11.86
16:18:18.203125,11.44
16:18:18.218750,11.14
16:18:18.234375,10.96
16:18:18.250000,10.82
16:18:18.265625,10.60
16:18:18.281250,10.19
16:18:18.296875,9.55
16:18:18.312500,8.69
16:18:18.328125,7.72
16:18:18.343750,6.76
16:18:18.359375,5.90
16:18:18.375000,5.18
16:18:18.390625,4.56
16:18:18.406250,4.00
16:18:18.421875,3.44
16:18:18.437500,2.91
16:18:18.453125,2.46
16:18:18.468750,2.17
16:18:18.484375,2.12
16:18:18.500000,2.31
16:18:18.515625,2.63
16:18:18.531250,2.93
16:18:18.546875,3.05
16:18:18.562500,2.88
16:18:18.578125,2.40
16:18:18.593750,1.65
16:18:18.609375,0.76
16:18:18.625000,-0.09
16:18:18.640625,-0.80
16:18:18.656250,-1.28
16:18:18.671875,-1.56
16:18:18.687500,-1.69
16:18:18.703125,-1.77
16:18:18.718750,-1.83
16:18:18.734375,-1.91
16:18:18.750000,-2.02
16:18:18.765625,-2.17
16:18:18.781250,-2.38
16:18:18.796875,-2.62
16:18:18.812500,-2.86
16:18:18.828125,-3.01
16:18:18.843750,-3.06
16:18:18.859375,-3.03
16:18:18.875000,-3.05
16:18:18.890625,-3.20
16:18:18.906250,-3.55
16:18:18.921875,-4.00
16:18:18.937500,-4.34
16:18:18.953125,-4.35
16:18:18.968750,-3.84
16:18:18.984375,-2.80
16:18:19,-1.38
16:18:19.015625,0.20
16:18:19.031250,1.68
16:18:19.046875,2.83
16:18:19.062500,3.56
16:18:19.078125,3.85
16:18:19.093750,3.76
16:18:19.109375,3.44
16:18:19.125000,3.04
16:18:19.140625,2.71
16:18:19.156250,2.58
16:18:19.171875,2.71
16:18:19.187500,3.08
16:18:19.203125,3.61
16:18:19.218750,4.19
16:18:19.234375,4.72
16:18:19.250000,5.09
16:18:19.265625,5.26
16:18:19.281250,5.24
16:18:19.296875,5.06
16:18:19.312500,4.79
16:18:19.328125,4.48
16:18:19.343750,4.13
16:18:19.359375,3.74
16:18:19.375000,3.29
16:18:19.390625,2.80
16:18:19.406250,2.30
16:18:19.421875,1.82
16:18:19.437500,1.38
16:18:19.453125,0.99
16:18:19.468750,0.64
16:18:19.484375,0.36
16:18:19.500000,0.21
16:18:19.515625,0.21
16:18:19.531250,0.32
16:18:19.546875,0.46
16:18:19.562500,0.45
16:18:19.578125,0.18
16:18:19.593750,-0.38
16:18:19.609375,-1.12
16:18:19.625000,-1.90
16:18:19.640625,-2.53
16:18:19.656250,-2.92
16:18:19.671875,-3.06
16:18:19.687500,-3.02
16:18:19.703125,-2.92
16:18:19.718750,-2.84
16:18:19.734375,-2.85
16:18:19.750000,-2.94
16:18:19.765625,-3.08
16:18:19.781250,-3.25
16:18:19.796875,-3.44
16:18:19.812500,-3.68
16:18:19.828125,-3.99
16:18:19.843750,-4.35
16:18:19.859375,-4.69
16:18:19.875000,-4.92
16:18:19.890625,-4.91
16:18:19.906250,-4.63
16:18:19.921875,-4.08
16:18:19.937500,-3.34
16:18:19.953125,-2.50
16:18:19.968750,-1.63
16:18:19.984375,-0.77
16:18:20,0.05
16:18:20.015625,0.83
16:18:20.031250,1.55
16:18:20.046875,2.14
16:18:20.062500,2.55
16:18:20.078125,2.70
16:18:20.093750,2.56
16:18:20.109375,2.19
16:18:20.125000,1.72
16:18:20.140625,1.33
16:18:20.156250,1.14
16:18:20.171875,1.20
16:18:20.187500,1.43
16:18:20.203125,1.71
16:18:20.218750,1.93
16:18:20.234375,2.07
16:18:20.250000,2.16
16:18:20.265625,2.26
16:18:20.281250,2.38
16:18:20.296875,2.44
16:18:20.312500,2.37
16:18:20.328125,2.15
16:18:20.343750,1.83
16:18:20.359375,1.54
16:18:20.375000,1.37
16:18:20.390625,1.38
16:18:20.406250,1.53
16:18:20.421875,1.68
16:18:20.437500,1.74
16:18:20.453125,1.68
16:18:20.468750,1.49
16:18:20.484375,1.22
16:18:20.500000,0.91
16:18:20.515625,0.53
16:18:20.531250,0.05
16:18:20.546875,-0.52
16:18:20.562500,-1.13
16:18:20.578125,-1.65
16:18:20.593750,-2.03
16:18:20.609375,-2.25
16:18:20.625000,-2.38
16:18:20.640625,-2.54
16:18:20.656250,-2.75
16:18:20.671875,-2.95
16:18:20.687500,-3.04
16:18:20.703125,-2.90
16:18:20.718750,-2.58
16:18:20.734375,-2.23
16:18:20.750000,-2.05
16:18:20.765625,-2.24
16:18:20.781250,-2.86
16:18:20.796875,-3.83
16:18:20.812500,-4.98
16:18:20.828125,-6.08
16:18:20.843750,-6.87
16:18:20.859375,-7.16
16:18:20.875000,-6.85
16:18:20.890625,-5.96
16:18:20.906250,-4.68
16:18:20.921875,-3.26
16:18:20.937500,-1.97
16:18:20.953125,-0.97
16:18:20.968750,-0.27
16:18:20.984375,0.24
16:18:21,0.65
16:18:21.015625,1.03
16:18:21.031250,1.33
16:18:21.046875,1.49
16:18:21.062500,1.52
16:18:21.078125,1.50
16:18:21.093750,1.51
16:18:21.109375,1.62
16:18:21.125000,1.84
16:18:21.140625,2.11
16:18:21.156250,2.39
16:18:21.171875,2.71
16:18:21.187500,3.10
16:18:21.203125,3.53
16:18:21.218750,3.85
16:18:21.234375,3.80
16:18:21.250000,3.15
16:18:21.265625,1.84
16:18:21.281250,0.05
16:18:21.296875,-1.89
16:18:21.312500,-3.63
16:18:21.328125,-4.95
16:18:21.343750,-5.80
16:18:21.359375,-6.19
16:18:21.375000,-6.17
16:18:21.390625,-5.74
16:18:21.406250,-4.88
16:18:21.421875,-3.63
16:18:21.437500,-2.11
16:18:21.453125,-0.53
16:18:21.468750,0.90
16:18:21.484375,2.01
16:18:21.500000,2.76
16:18:21.515625,3.19
16:18:21.531250,3.40
16:18:21.546875,3.47
16:18:21.562500,3.49
16:18:21.578125,3.49
16:18:21.593750,3.52
16:18:21.609375,3.57
16:18:21.625000,3.62
16:18:21.640625,3.65
16:18:21.656250,3.66
16:18:21.671875,3.64
16:18:21.687500,3.56
16:18:21.703125,3.36
16:18:21.718750,2.97
16:18:21.734375,2.32
16:18:21.750000,1.43
16:18:21.765625,0.41
16:18:21.781250,-0.54
16:18:21.796875,-1.25
16:18:21.812500,-1.61
16:18:21.828125,-1.65
16:18:21.843750,-1.51
16:18:21.859375,-1.38
16:18:21.875000,-1.39
16:18:21.890625,-1.63
16:18:21.906250,-2.05
16:18:21.921875,-2.58
16:18:21.937500,-3.14
16:18:21.953125,-3.69
16:18:21.968750,-4.21
16:18:21.984375,-4.75
16:18:22,-5.32
16:18:22.015625,-5.88
16:18:22.031250,-6.39
16:18:22.046875,-6.75
16:18:22.062500,-6.96
16:18:22.078125,-7.04
16:18:22.093750,-7.06
16:18:22.109375,-7.07
16:18:22.125000,-7.07
16:18:22.140625,-6.99
16:18:22.156250,-6.71
16:18:22.171875,-6.16
16:18:22.187500,-5.35
16:18:22.203125,-4.36
16:18:22.218750,-3.37
16:18:22.234375,-2.54
16:18:22.250000,-2.03
16:18:22.265625,-1.86
16:18:22.281250,-1.98
16:18:22.296875,-2.27
16:18:22.312500,-2.56
16:18:22.328125,-2.71
16:18:22.343750,-2.64
16:18:22.359375,-2.36
16:18:22.375000,-1.95
16:18:22.390625,-1.50
16:18:22.406250,-1.14
16:18:22.421875,-0.94
16:18:22.437500,-0.98
16:18:22.453125,-1.26
16:18:22.468750,-1.72
16:18:22.484375,-2.28
16:18:22.500000,-2.79
16:18:22.515625,-3.14
16:18:22.531250,-3.27
16:18:22.546875,-3.21
16:18:22.562500,-3.01
16:18:22.578125,-2.78
16:18:22.593750,-2.55
16:18:22.609375,-2.34
16:18:22.625000,-2.11
16:18:22.640625,-1.78
16:18:22.656250,-1.27
16:18:22.671875,-0.53
16:18:22.687500,0.47
16:18:22.703125,1.68
16:18:22.718750,2.99
16:18:22.734375,4.25
16:18:22.750000,5.31
16:18:22.765625,6.08
16:18:22.781250,6.48
16:18:22.796875,6.53
16:18:22.812500,6.25
16:18:22.828125,5.71
16:18:22.843750,5.05
16:18:22.859375,4.40
16:18:22.875000,3.91
16:18:22.890625,3.65
16:18:22.906250,3.61
16:18:22.921875,3.67
16:18:22.937500,3.67
16:18:22.953125,3.53
16:18:22.968750,3.25
16:18:22.984375,2.92
16:18:23,2.68
16:18:23.015625,2.61
16:18:23.031250,2.75
16:18:23.046875,3.03
16:18:23.062500,3.33
16:18:23.078125,3.53
16:18:23.093750,3.53
16:18:23.109375,3.29
16:18:23.125000,2.82
16:18:23.140625,2.21
16:18:23.156250,1.54
16:18:23.171875,0.93
16:18:23.187500,0.46
16:18:23.203125,0.16
16:18:23.218750,0.01
16:18:23.234375,-0.08
16:18:23.250000,-0.23
16:18:23.265625,-0.47
16:18:23.281250,-0.81
16:18:23.296875,-1.16
16:18:23.312500,-1.40
16:18:23.328125,-1.45
16:18:23.343750,-1.34
16:18:23.359375,-1.18
16:18:23.375000,-1.12
16:18:23.390625,-1.28
16:18:23.406250,-1.67
16:18:23.421875,-2.25
16:18:23.437500,-2.88
16:18:23.453125,-3.43
16:18:23.468750,-3.77
16:18:23.484375,-3.79
16:18:23.500000,-3.38
16:18:23.515625,-2.54
16:18:23.531250,-1.36
16:18:23.546875,-0.07
16:18:23.562500,1.02
16:18:23.578125,1.65
16:18:23.593750,1.71
16:18:23.609375,1.27
16:18:23.625000,0.51
16:18:23.640625,-0.31
16:18:23.656250,-1.01
16:18:23.671875,-1.48
16:18:23.687500,-1.64
16:18:23.703125,-1.48
16:18:23.718750,-1.00
16:18:23.734375,-0.29
16:18:23.750000,0.46
16:18:23.765625,1.04
16:18:23.781250,1.28
16:18:23.796875,1.13
16:18:23.812500,0.70
16:18:23.828125,0.23
16:18:23.843750,-0.05
16:18:23.859375,0.02
16:18:23.875000,0.42
16:18:23.890625,1.01
16:18:23.906250,1.57
16:18:23.921875,1.90
16:18:23.937500,1.84
16:18:23.953125,1.41
16:18:23.968750,0.74
16:18:23.984375,0.01
16:18:24,-0.56
16:18:24.015625,-0.87
16:18:24.031250,-0.92
16:18:24.046875,-0.80
16:18:24.062500,-0.66
16:18:24.078125,-0.65
16:18:24.093750,-0.83
16:18:24.109375,-1.19
16:18:24.125000,-1.65
16:18:24.140625,-2.12
16:18:24.156250,-2.48
16:18:24.171875,-2.70
16:18:24.187500,-2.78
16:18:24.203125,-2.78
16:18:24.218750,-2.78
16:18:24.234375,-2.81
16:18:24.250000,-2.88
16:18:24.265625,-2.95
16:18:24.281250,-2.96
16:18:24.296875,-2.90
16:18:24.312500,-2.76
16:18:24.328125,-2.54
16:18:24.343750,-2.24
16:18:24.359375,-1.84
16:18:24.375000,-1.33
16:18:24.390625,-0.74
16:18:24.406250,-0.13
16:18:24.421875,0.41
16:18:24.437500,0.81
16:18:24.453125,1.09
16:18:24.468750,1.29
16:18:24.484375,1.44
16:18:24.500000,1.55
16:18:24.515625,1.60
16:18:24.531250,1.53
16:18:24.546875,1.34
16:18:24.562500,1.06
16:18:24.578125,0.79
16:18:24.593750,0.65
16:18:24.609375,0.71
16:18:24.625000,0.96
16:18:24.640625,1.32
16:18:24.656250,1.68
16:18:24.671875,1.95
16:18:24.687500,2.07
16:18:24.703125,2.06
16:18:24.718750,1.92
16:18:24.734375,1.68
16:18:24.750000,1.33
16:18:24.765625,0.86
16:18:24.781250,0.27
16:18:24.796875,-0.40
16:18:24.812500,-1.06
16:18:24.828125,-1.59
16:18:24.843750,-1.89
16:18:24.859375,-1.92
16:18:24.875000,-1.70
16:18:24.890625,-1.34
16:18:24.906250,-0.92
16:18:24.921875,-0.57
16:18:24.937500,-0.35
16:18:24.953125,-0.28
16:18:24.968750,-0.35
16:18:24.984375,-0.51
16:18:25,-0.71
16:18:25.015625,-0.92
16:18:25.031250,-1.15
16:18:25.046875,-1.43
16:18:25.062500,-1.76
16:18:25.078125,-2.15
16:18:25.093750,-2.50
16:18:25.109375,-2.75
16:18:25.125000,-2.84
16:18:25.140625,-2.79
16:18:25.156250,-2.72
16:18:25.171875,-2.76
16:18:25.187500,-3.02
16:18:25.203125,-3.46
16:18:25.218750,-3.94
16:18:25.234375,-4.24
16:18:25.250000,-4.19
16:18:25.265625,-3.79
16:18:25.281250,-3.14
16:18:25.296875,-2.44
16:18:25.312500,-1.82
16:18:25.328125,-1.32
16:18:25.343750,-0.86
16:18:25.359375,-0.34
16:18:25.375000,0.27
16:18:25.390625,0.91
16:18:25.406250,1.46
16:18:25.421875,1.77
16:18:25.437500,1.75
16:18:25.453125,1.43
16:18:25.468750,0.94
16:18:25.484375,0.47
16:18:25.500000,0.18
16:18:25.515625,0.12
16:18:25.531250,0.23
16:18:25.546875,0.40
16:18:25.562500,0.52
16:18:25.578125,0.56
16:18:25.593750,0.60
16:18:25.609375,0.75
16:18:25.625000,1.09
16:18:25.640625,1.58
16:18:25.656250,2.04
16:18:25.671875,2.34
16:18:25.687500,2.37
16:18:25.703125,2.16
16:18:25.718750,1.85
16:18:25.734375,1.57
16:18:25.750000,1.41
16:18:25.765625,1.35
16:18:25.781250,1.30
16:18:25.796875,1.18
16:18:25.812500,0.98
16:18:25.828125,0.76
16:18:25.843750,0.61
16:18:25.859375,0.64
16:18:25.875000,0.81
16:18:25.890625,1.02
16:18:25.906250,1.08
16:18:25.921875,0.86
16:18:25.937500,0.28
16:18:25.953125,-0.51
16:18:25.968750,-1.34
16:18:25.984375,-1.96
16:18:26,-2.24
16:18:26.015625,-2.18
16:18:26.031250,-1.88
16:18:26.046875,-1.50
16:18:26.062500,-1.17
16:18:26.078125,-0.98
16:18:26.093750,-0.96
16:18:26.109375,-1.09
16:18:26.125000,-1.36
16:18:26.140625,-1.73
16:18:26.156250,-2.10
16:18:26.171875,-2.37
16:18:26.187500,-2.43
16:18:26.203125,-2.20
16:18:26.218750,-1.66
16:18:26.234375,-0.85
16:18:26.250000,0.11
16:18:26.265625,1.14
16:18:26.281250,2.11
16:18:26.296875,2.92
16:18:26.312500,3.49
16:18:26.328125,3.73
16:18:26.343750,3.63
16:18:26.359375,3.22
16:18:26.375000,2.60
16:18:26.390625,1.94
16:18:26.406250,1.45
16:18:26.421875,1.24
16:18:26.437500,1.33
16:18:26.453125,1.64
16:18:26.468750,2.02
16:18:26.484375,2.33
16:18:26.500000,2.46
16:18:26.515625,2.41
16:18:26.531250,2.18
16:18:26.546875,1.86
16:18:26.562500,1.51
16:18:26.578125,1.17
16:18:26.593750,0.87
16:18:26.609375,0.63
16:18:26.625000,0.44
16:18:26.640625,0.25
16:18:26.656250,-0.02
16:18:26.671875,-0.39
16:18:26.687500,-0.88
16:18:26.703125,-1.45
16:18:26.718750,-2.02
16:18:26.734375,-2.48
16:18:26.750000,-2.78
16:18:26.765625,-2.89
16:18:26.781250,-2.83
16:18:26.796875,-2.67
16:18:26.812500,-2.48
16:18:26.828125,-2.31
16:18:26.843750,-2.21
16:18:26.859375,-2.18
16:18:26.875000,-2.22
16:18:26.890625,-2.27
16:18:26.906250,-2.26
16:18:26.921875,-2.08
16:18:26.937500,-1.71
16:18:26.953125,-1.17
16:18:26.968750,-0.54
16:18:26.984375,-0.00
16:18:27,0.30
16:18:27.015625,0.24
16:18:27.031250,-0.20
16:18:27.046875,-0.92
16:18:27.062500,-1.74
16:18:27.078125,-2.41
16:18:27.093750,-2.74
16:18:27.109375,-2.61
16:18:27.125000,-2.03
16:18:27.140625,-1.16
16:18:27.156250,-0.19
16:18:27.171875,0.67
16:18:27.187500,1.29
16:18:27.203125,1.67
16:18:27.218750,1.84
16:18:27.234375,1.90
16:18:27.250000,1.92
16:18:27.265625,1.92
16:18:27.281250,1.96
16:18:27.296875,2.05
16:18:27.312500,2.21
16:18:27.328125,2.45
16:18:27.343750,2.72
16:18:27.359375,2.93
16:18:27.375000,2.98
16:18:27.390625,2.81
16:18:27.406250,2.45
16:18:27.421875,2.00
16:18:27.437500,1.63
16:18:27.453125,1.45
16:18:27.468750,1.53
16:18:27.484375,1.82
16:18:27.500000,2.16
16:18:27.515625,2.43
16:18:27.531250,2.49
16:18:27.546875,2.34
16:18:27.562500,2.03
16:18:27.578125,1.66
16:18:27.593750,1.31
16:18:27.609375,1.02
16:18:27.625000,0.81
16:18:27.640625,0.63
16:18:27.656250,0.48
16:18:27.671875,0.29
16:18:27.687500,0.02
16:18:27.703125,-0.35
16:18:27.718750,-0.81
16:18:27.734375,-1.27
16:18:27.750000,-1.62
16:18:27.765625,-1.83
16:18:27.781250,-1.91
16:18:27.796875,-1.98
16:18:27.812500,-2.16
16:18:27.828125,-2.52
16:18:27.843750,-3.03
16:18:27.859375,-3.56
16:18:27.875000,-3.95
16:18:27.890625,-4.11
16:18:27.906250,-4.12
16:18:27.921875,-4.10
16:18:27.937500,-4.22
16:18:27.953125,-4.56
16:18:27.968750,-5.05
16:18:27.984375,-5.50
16:18:28,-5.68
16:18:28.015625,-5.42
16:18:28.031250,-4.67
16:18:28.046875,-3.56
16:18:28.062500,-2.28
16:18:28.078125,-1.06
16:18:28.093750,-0.04
16:18:28.109375,0.72
16:18:28.125000,1.26
16:18:28.140625,1.64
16:18:28.156250,1.90
16:18:28.171875,2.07
16:18:28.187500,2.13
16:18:28.203125,2.11
16:18:28.218750,2.02
16:18:28.234375,1.94
16:18:28.250000,1.91
16:18:28.265625,1.96
16:18:28.281250,2.05
16:18:28.296875,2.11
16:18:28.312500,2.07
16:18:28.328125,1.88
16:18:28.343750,1.59
16:18:28.359375,1.29
16:18:28.375000,1.08
16:18:28.390625,1.02
16:18:28.406250,1.08
16:18:28.421875,1.15
16:18:28.437500,1.15
16:18:28.453125,0.99
16:18:28.468750,0.69
16:18:28.484375,0.30
16:18:28.500000,-0.10
16:18:28.515625,-0.44
16:18:28.531250,-0.68
16:18:28.546875,-0.81
16:18:28.562500,-0.82
16:18:28.578125,-0.71
16:18:28.593750,-0.49
16:18:28.609375,-0.21
16:18:28.625000,0.05
16:18:28.640625,0.22
16:18:28.656250,0.25
16:18:28.671875,0.14
16:18:28.687500,-0.03
16:18:28.703125,-0.18
16:18:28.718750,-0.24
16:18:28.734375,-0.20
16:18:28.750000,-0.09
16:18:28.765625,0.02
16:18:28.781250,0.06
16:18:28.796875,-0.03
16:18:28.812500,-0.27
16:18:28.828125,-0.71
16:18:28.843750,-1.34
16:18:28.859375,-2.15
16:18:28.875000,-3.02
16:18:28.890625,-3.81
16:18:28.906250,-4.33
16:18:28.921875,-4.46
16:18:28.937500,-4.14
16:18:28.953125,-3.43
16:18:28.968750,-2.43
16:18:28.984375,-1.30
16:18:29,-0.16
16:18:29.015625,0.86
16:18:29.031250,1.68
16:18:29.046875,2.22
16:18:29.062500,2.46
16:18:29.078125,2.46
16:18:29.093750,2.33
16:18:29.109375,2.21
16:18:29.125000,2.22
16:18:29.140625,2.39
16:18:29.156250,2.65
16:18:29.171875,2.91
16:18:29.187500,3.05
16:18:29.203125,3.03
16:18:29.218750,2.87
16:18:29.234375,2.63
16:18:29.250000,2.39
16:18:29.265625,2.19
16:18:29.281250,2.07
16:18:29.296875,2.05
16:18:29.312500,2.15
16:18:29.328125,2.39
16:18:29.343750,2.70
16:18:29.359375,2.97
16:18:29.375000,3.07
16:18:29.390625,2.90
16:18:29.406250,2.50
16:18:29.421875,2.02
16:18:29.437500,1.65
16:18:29.453125,1.52
16:18:29.468750,1.63
16:18:29.484375,1.83
16:18:29.500000,1.96
16:18:29.515625,1.90
16:18:29.531250,1.66
16:18:29.546875,1.33
16:18:29.562500,0.99
16:18:29.578125,0.61
16:18:29.593750,0.12
16:18:29.609375,-0.58
16:18:29.625000,-1.50
16:18:29.640625,-2.52
16:18:29.656250,-3.47
16:18:29.671875,-4.16
16:18:29.687500,-4.50
16:18:29.703125,-4.51
16:18:29.718750,-4.29
16:18:29.734375,-4.00
16:18:29.750000,-3.75
16:18:29.765625,-3.63
16:18:29.781250,-3.69
16:18:29.796875,-3.87
16:18:29.812500,-4.06
16:18:29.828125,-4.14
16:18:29.843750,-3.97
16:18:29.859375,-3.48
16:18:29.875000,-2.67
16:18:29.890625,-1.64
16:18:29.906250,-0.57
16:18:29.921875,0.38
16:18:29.937500,1.03
16:18:29.953125,1.31
16:18:29.968750,1.25
16:18:29.984375,1.01
16:18:30,0.76
16:18:30.015625,0.67
16:18:30.031250,0.84
16:18:30.046875,1.22
16:18:30.062500,1.70
16:18:30.078125,2.14
16:18:30.093750,2.44
16:18:30.109375,2.59
16:18:30.125000,2.65
16:18:30.140625,2.70
16:18:30.156250,2.78
16:18:30.171875,2.86
16:18:30.187500,2.92
16:18:30.203125,2.97
16:18:30.218750,3.03
16:18:30.234375,3.19
16:18:30.250000,3.47
16:18:30.265625,3.81
16:18:30.281250,4.06
16:18:30.296875,4.05
16:18:30.312500,3.69
16:18:30.328125,2.97
16:18:30.343750,2.03
16:18:30.359375,1.08
16:18:30.375000,0.29
16:18:30.390625,-0.23
16:18:30.406250,-0.47
16:18:30.421875,-0.48
16:18:30.437500,-0.38
16:18:30.453125,-0.22
16:18:30.468750,-0.06
16:18:30.484375,0.04
16:18:30.500000,0.06
16:18:30.515625,-0.05
16:18:30.531250,-0.34
16:18:30.546875,-0.81
16:18:30.562500,-1.45
16:18:30.578125,-2.18
16:18:30.593750,-2.87
16:18:30.609375,-3.38
16:18:30.625000,-3.60
16:18:30.640625,-3.53
16:18:30.656250,-3.24
16:18:30.671875,-2.93
16:18:30.687500,-2.77
16:18:30.703125,-2.92
16:18:30.718750,-3.38
16:18:30.734375,-4.04
16:18:30.750000,-4.68
16:18:30.765625,-5.09
16:18:30.781250,-5.07
16:18:30.796875,-4.53
16:18:30.812500,-3.49
16:18:30.828125,-2.07
16:18:30.843750,-0.48
16:18:30.859375,1.03
16:18:30.875000,2.26
16:18:30.890625,3.08
16:18:30.906250,3.50
16:18:30.921875,3.60
16:18:30.937500,3.52
16:18:30.953125,3.37
16:18:30.968750,3.20
16:18:30.984375,3.02
16:18:31,2.83
16:18:31.015625,2.64
16:18:31.031250,2.49
16:18:31.046875,2.42
16:18:31.062500,2.40
16:18:31.078125,2.40
16:18:31.093750,2.31
16:18:31.109375,2.06
16:18:31.125000,1.65
16:18:31.140625,1.13
16:18:31.156250,0.65
16:18:31.171875,0.31
16:18:31.187500,0.19
16:18:31.203125,0.27
16:18:31.218750,0.48
16:18:31.234375,0.73
16:18:31.250000,0.95
16:18:31.265625,1.14
16:18:31.281250,1.31
16:18:31.296875,1.51
16:18:31.312500,1.72
16:18:31.328125,1.93
16:18:31.343750,2.09
16:18:31.359375,2.13
16:18:31.375000,2.03
16:18:31.390625,1.81
16:18:31.406250,1.51
16:18:31.421875,1.18
16:18:31.437500,0.88
16:18:31.453125,0.61
16:18:31.468750,0.36
16:18:31.484375,0.08
16:18:31.500000,-0.25
16:18:31.515625,-0.63
16:18:31.531250,-1.03
16:18:31.546875,-1.36
16:18:31.562500,-1.61
16:18:31.578125,-1.81
16:18:31.593750,-2.06
16:18:31.609375,-2.49
16:18:31.625000,-3.22
16:18:31.640625,-4.23
16:18:31.656250,-5.37
16:18:31.671875,-6.39
16:18:31.687500,-7.07
16:18:31.703125,-7.25
16:18:31.718750,-6.92
16:18:31.734375,-6.20
16:18:31.750000,-5.28
16:18:31.765625,-4.32
16:18:31.781250,-3.46
16:18:31.796875,-2.76
16:18:31.812500,-2.21
16:18:31.828125,-1.79
16:18:31.843750,-1.46
16:18:31.859375,-1.11
16:18:31.875000,-0.69
16:18:31.890625,-0.11
16:18:31.906250,0.61
16:18:31.921875,1.36
16:18:31.937500,2.00
16:18:31.953125,2.38
16:18:31.968750,2.47
16:18:31.984375,2.36
16:18:32,2.18
16:18:32.015625,2.10
16:18:32.031250,2.17
16:18:32.046875,2.37
16:18:32.062500,2.60
16:18:32.078125,2.80
16:18:32.093750,2.92
16:18:32.109375,3.01
16:18:32.125000,3.12
16:18:32.140625,3.25
16:18:32.156250,3.37
16:18:32.171875,3.40
16:18:32.187500,3.30
16:18:32.203125,3.08
16:18:32.218750,2.84
16:18:32.234375,2.63
16:18:32.250000,2.50
16:18:32.265625,2.42
16:18:32.281250,2.28
16:18:32.296875,2.00
16:18:32.312500,1.54
16:18:32.328125,0.98
16:18:32.343750,0.45
16:18:32.359375,0.10
16:18:32.375000,0.04
16:18:32.390625,0.22
16:18:32.406250,0.49
16:18:32.421875,0.69
16:18:32.437500,0.70
16:18:32.453125,0.53
16:18:32.468750,0.27
16:18:32.484375,0.04
16:18:32.500000,-0.09
16:18:32.515625,-0.12
16:18:32.531250,-0.13
16:18:32.546875,-0.22
16:18:32.562500,-0.39
16:18:32.578125,-0.61
16:18:32.593750,-0.82
16:18:32.609375,-0.96
16:18:32.625000,-1.05
16:18:32.640625,-1.15
16:18:32.656250,-1.29
16:18:32.671875,-1.48
16:18:32.687500,-1.62
16:18:32.703125,-1.56
16:18:32.718750,-1.14
16:18:32.734375,-0.32
16:18:32.750000,0.81
16:18:32.765625,2.01
16:18:32.781250,3.04
16:18:32.796875,3.67
16:18:32.812500,3.84
16:18:32.828125,3.65
16:18:32.843750,3.30
16:18:32.859375,2.95
16:18:32.875000,2.71
16:18:32.890625,2.55
16:18:32.906250,2.41
16:18:32.921875,2.24
16:18:32.937500,2.04
16:18:32.953125,1.85
16:18:32.968750,1.72
16:18:32.984375,1.66
16:18:33,1.66
16:18:33.015625,1.70
16:18:33.031250,1.71
16:18:33.046875,1.66
16:18:33.062500,1.50
16:18:33.078125,1.21
16:18:33.093750,0.80
16:18:33.109375,0.33
16:18:33.125000,-0.15
16:18:33.140625,-0.57
16:18:33.156250,-0.94
16:18:33.171875,-1.29
16:18:33.187500,-1.64
16:18:33.203125,-1.95
16:18:33.218750,-2.12
16:18:33.234375,-2.08
16:18:33.250000,-1.87
16:18:33.265625,-1.66
16:18:33.281250,-1.66
16:18:33.296875,-2.04
16:18:33.312500,-2.79
16:18:33.328125,-3.75
16:18:33.343750,-4.68
16:18:33.359375,-5.40
16:18:33.375000,-5.81
16:18:33.390625,-5.98
16:18:33.406250,-6.08
16:18:33.421875,-6.20
16:18:33.437500,-6.38
16:18:33.453125,-6.54
16:18:33.468750,-6.60
16:18:33.484375,-6.45
16:18:33.500000,-5.94
16:18:33.515625,-4.98
16:18:33.531250,-3.59
16:18:33.546875,-1.95
16:18:33.562500,-0.31
16:18:33.578125,1.02
16:18:33.593750,1.87
16:18:33.609375,2.26
16:18:33.625000,2.41
16:18:33.640625,2.70
16:18:33.656250,3.50
16:18:33.671875,4.97
16:18:33.687500,7.08
16:18:33.703125,9.51
16:18:33.718750,11.80
16:18:33.734375,13.47
16:18:33.750000,14.20
16:18:33.765625,13.94
16:18:33.781250,12.93
16:18:33.796875,11.67
16:18:33.812500,10.65
16:18:33.828125,10.17
16:18:33.843750,10.12
16:18:33.859375,9.93
16:18:33.875000,8.92
16:18:33.890625,6.52
16:18:33.906250,2.57
16:18:33.921875,-2.51
16:18:33.937500,-7.78
16:18:33.953125,-12.04
16:18:33.968750,-14.20
16:18:33.984375,-13.73
16:18:34,-10.77
16:18:34.015625,-6.11
16:18:34.031250,-0.87
16:18:34.046875,3.89
16:18:34.062500,7.55
16:18:34.078125,10.02
16:18:34.093750,11.65
16:18:34.109375,12.91
16:18:34.125000,14.02
16:18:34.140625,14.79
16:18:34.156250,14.63
16:18:34.171875,12.75
16:18:34.187500,8.54
16:18:34.203125,1.87
16:18:34.218750,-6.64
16:18:34.234375,-15.61
16:18:34.250000,-23.25
16:18:34.265625,-27.86
16:18:34.281250,-28.41
16:18:34.296875,-24.85
16:18:34.312500,-18.15
16:18:34.328125,-9.92
16:18:34.343750,-1.86
16:18:34.359375,4.67
16:18:34.375000,8.84
16:18:34.390625,10.34
16:18:34.406250,9.12
16:18:34.421875,5.35
16:18:34.437500,-0.56
16:18:34.453125,-7.94
16:18:34.468750,-15.73
16:18:34.484375,-22.68
16:18:34.500000,-27.61
16:18:34.515625,-29.82
16:18:34.531250,-29.24
16:18:34.546875,-26.40
16:18:34.562500,-22.23
16:18:34.578125,-17.60
16:18:34.593750,-13.11
16:18:34.609375,-8.93
16:18:34.625000,-4.94
16:18:34.640625,-0.95
16:18:34.656250,3.08
16:18:34.671875,6.96
16:18:34.687500,10.32
16:18:34.703125,12.72
16:18:34.718750,13.83
16:18:34.734375,13.57
16:18:34.750000,12.11
16:18:34.765625,9.91
16:18:34.781250,7.54
16:18:34.796875,5.61
16:18:34.812500,4.57
16:18:34.828125,4.63
16:18:34.843750,5.65
16:18:34.859375,7.24
16:18:34.875000,8.86
16:18:34.890625,10.06
16:18:34.906250,10.63
16:18:34.921875,10.64
16:18:34.937500,10.31
16:18:34.953125,9.85
16:18:34.968750,9.30
16:18:34.984375,8.52
16:18:35,7.28
16:18:35.015625,5.44
16:18:35.031250,3.14
16:18:35.046875,0.81
16:18:35.062500,-1.05
16:18:35.078125,-2.05
16:18:35.093750,-2.18
16:18:35.109375,-1.72
16:18:35.125000,-1.11
16:18:35.140625,-0.76
16:18:35.156250,-0.83
16:18:35.171875,-1.25
16:18:35.187500,-1.79
16:18:35.203125,-2.23
16:18:35.218750,-2.45
16:18:35.234375,-2.51
16:18:35.250000,-2.58
16:18:35.265625,-2.82
16:18:35.281250,-3.33
16:18:35.296875,-4.09
16:18:35.312500,-4.96
16:18:35.328125,-5.77
16:18:35.343750,-6.40
16:18:35.359375,-6.83
16:18:35.375000,-7.16
16:18:35.390625,-7.54
16:18:35.406250,-8.03
16:18:35.421875,-8.51
16:18:35.437500,-8.72
16:18:35.453125,-8.37
16:18:35.468750,-7.29
16:18:35.484375,-5.57
16:18:35.500000,-3.52
16:18:35.515625,-1.56
16:18:35.531250,0.05
16:18:35.546875,1.23
16:18:35.562500,2.07
16:18:35.578125,2.75
16:18:35.593750,3.34
16:18:35.609375,3.82
16:18:35.625000,4.01
16:18:35.640625,3.76
16:18:35.656250,3.06
16:18:35.671875,2.07
16:18:35.687500,1.09
16:18:35.703125,0.45
16:18:35.718750,0.43
16:18:35.734375,1.08
16:18:35.750000,2.24
16:18:35.765625,3.57
16:18:35.781250,4.68
16:18:35.796875,5.33
16:18:35.812500,5.46
16:18:35.828125,5.24
16:18:35.843750,4.97
16:18:35.859375,4.90
16:18:35.875000,5.17
16:18:35.890625,5.70
16:18:35.906250,6.29
16:18:35.921875,6.74
16:18:35.937500,6.90
16:18:35.953125,6.73
16:18:35.968750,6.28
16:18:35.984375,5.64
16:18:36,4.91
16:18:36.015625,4.18
16:18:36.031250,3.51
16:18:36.046875,2.92
16:18:36.062500,2.39
16:18:36.078125,1.85
16:18:36.093750,1.23
16:18:36.109375,0.55
16:18:36.125000,-0.07
16:18:36.140625,-0.45
16:18:36.156250,-0.39
16:18:36.171875,0.11
16:18:36.187500,0.90
16:18:36.203125,1.66
16:18:36.218750,2.07
16:18:36.234375,1.97
16:18:36.250000,1.43
16:18:36.265625,0.72
16:18:36.281250,0.15
16:18:36.296875,-0.13
16:18:36.312500,-0.16
16:18:36.328125,-0.15
16:18:36.343750,-0.36
16:18:36.359375,-0.92
16:18:36.375000,-1.76
16:18:36.390625,-2.68
16:18:36.406250,-3.41
16:18:36.421875,-3.78
16:18:36.437500,-3.70
16:18:36.453125,-3.22
16:18:36.468750,-2.42
16:18:36.484375,-1.41
16:18:36.500000,-0.30
16:18:36.515625,0.77
16:18:36.531250,1.73
16:18:36.546875,2.52
16:18:36.562500,3.17
16:18:36.578125,3.73
16:18:36.593750,4.27
16:18:36.609375,4.79
16:18:36.625000,5.22
16:18:36.640625,5.45
16:18:36.656250,5.42
16:18:36.671875,5.13
16:18:36.687500,4.69
16:18:36.703125,4.21
16:18:36.718750,3.77
16:18:36.734375,3.37
16:18:36.750000,2.89
16:18:36.765625,2.21
16:18:36.781250,1.23
16:18:36.796875,-0.04
16:18:36.812500,-1.50
16:18:36.828125,-3.01
16:18:36.843750,-4.37
16:18:36.859375,-5.48
16:18:36.875000,-6.33
16:18:36.890625,-7.01
16:18:36.906250,-7.70
16:18:36.921875,-8.51
16:18:36.937500,-9.46
16:18:36.953125,-10.45
16:18:36.968750,-11.24
16:18:36.984375,-11.63
16:18:37,-11.41
16:18:37.015625,-10.49
16:18:37.031250,-8.84
16:18:37.046875,-6.52
16:18:37.062500,-3.65
16:18:37.078125,-0.41
16:18:37.093750,2.96
16:18:37.109375,6.18
16:18:37.125000,8.97
16:18:37.140625,11.11
16:18:37.156250,12.42
16:18:37.171875,12.80
16:18:37.187500,12.19
16:18:37.203125,10.57
16:18:37.218750,8.01
16:18:37.234375,4.65
16:18:37.250000,0.77
16:18:37.265625,-3.26
16:18:37.281250,-7.07
16:18:37.296875,-10.41
16:18:37.312500,-13.21
16:18:37.328125,-15.59
16:18:37.343750,-17.84
16:18:37.359375,-20.23
16:18:37.375000,-22.94
16:18:37.390625,-25.88
16:18:37.406250,-28.62
16:18:37.421875,-30.45
16:18:37.437500,-30.54
16:18:37.453125,-28.22
16:18:37.468750,-23.21
16:18:37.484375,-15.85
16:18:37.500000,-6.96
16:18:37.515625,2.37
16:18:37.531250,11.07
16:18:37.546875,18.43
16:18:37.562500,24.06
16:18:37.578125,27.88
16:18:37.593750,29.88
16:18:37.609375,30.06
16:18:37.625000,28.32
16:18:37.640625,24.65
16:18:37.656250,19.18
16:18:37.671875,12.36
16:18:37.687500,4.96
16:18:37.703125,-2.05
16:18:37.718750,-7.60
16:18:37.734375,-10.83
16:18:37.750000,-11.32
16:18:37.765625,-9.20
16:18:37.781250,-5.14
16:18:37.796875,-0.13
16:18:37.812500,4.78
16:18:37.828125,8.79
16:18:37.843750,11.37
16:18:37.859375,12.33
16:18:37.875000,11.74
16:18:37.890625,9.82
16:18:37.906250,7.03
16:18:37.921875,3.94
16:18:37.937500,1.16
16:18:37.953125,-0.77
16:18:37.968750,-1.57
16:18:37.984375,-1.30
16:18:38,-0.27
16:18:38.015625,1.09
16:18:38.031250,2.38
16:18:38.046875,3.39
16:18:38.062500,4.04
16:18:38.078125,4.38
16:18:38.093750,4.45
16:18:38.109375,4.33
16:18:38.125000,4.04
16:18:38.140625,3.59
16:18:38.156250,3.01
16:18:38.171875,2.35
16:18:38.187500,1.69
16:18:38.203125,1.14
16:18:38.218750,0.75
16:18:38.234375,0.52
16:18:38.250000,0.37
16:18:38.265625,0.18
16:18:38.281250,-0.16
16:18:38.296875,-0.70
16:18:38.312500,-1.40
16:18:38.328125,-2.16
16:18:38.343750,-2.88
16:18:38.359375,-3.52
16:18:38.375000,-4.08
16:18:38.390625,-4.58
16:18:38.406250,-4.97
16:18:38.421875,-5.13
16:18:38.437500,-4.96
16:18:38.453125,-4.47
16:18:38.468750,-3.83
16:18:38.484375,-3.31
16:18:38.500000,-3.22
16:18:38.515625,-3.66
16:18:38.531250,-4.53
16:18:38.546875,-5.51
16:18:38.562500,-6.23
16:18:38.578125,-6.40
16:18:38.593750,-5.93
16:18:38.609375,-4.93
16:18:38.625000,-3.59
16:18:38.640625,-2.10
16:18:38.656250,-0.58
16:18:38.671875,0.87
16:18:38.687500,2.21
16:18:38.703125,3.40
16:18:38.718750,4.49
16:18:38.734375,5.54
16:18:38.750000,6.57
16:18:38.765625,7.56
16:18:38.781250,8.33
16:18:38.796875,8.64
16:18:38.812500,8.25
16:18:38.828125,7.08
16:18:38.843750,5.25
16:18:38.859375,3.05
16:18:38.875000,0.86
16:18:38.890625,-0.99
16:18:38.906250,-2.29
16:18:38.921875,-2.98
16:18:38.937500,-3.17
16:18:38.953125,-3.01
16:18:38.968750,-2.73
16:18:38.984375,-2.53
16:18:39,-2.52
16:18:39.015625,-2.70
16:18:39.031250,-2.98
16:18:39.046875,-3.26
16:18:39.062500,-3.55
16:18:39.078125,-3.95
16:18:39.093750,-4.62
16:18:39.109375,-5.66
16:18:39.125000,-6.97
16:18:39.140625,-8.29
16:18:39.156250,-9.29
16:18:39.171875,-9.72
16:18:39.187500,-9.52
16:18:39.203125,-8.82
16:18:39.218750,-7.89
16:18:39.234375,-6.93
16:18:39.250000,-6.06
16:18:39.265625,-5.22
16:18:39.281250,-4.26
16:18:39.296875,-3.07
16:18:39.312500,-1.65
16:18:39.328125,-0.14
16:18:39.343750,1.25
16:18:39.359375,2.29
16:18:39.375000,2.88
16:18:39.390625,3.06
16:18:39.406250,3.01
16:18:39.421875,2.92
16:18:39.437500,2.95
16:18:39.453125,3.10
16:18:39.468750,3.23
16:18:39.484375,3.17
16:18:39.500000,2.81
16:18:39.515625,2.18
16:18:39.531250,1.43
16:18:39.546875,0.76
16:18:39.562500,0.35
16:18:39.578125,0.32
16:18:39.593750,0.76
16:18:39.609375,1.66
16:18:39.625000,2.94
16:18:39.640625,4.44
16:18:39.656250,5.92
16:18:39.671875,7.18
16:18:39.687500,8.07
16:18:39.703125,8.60
16:18:39.718750,8.81
16:18:39.734375,8.76
16:18:39.750000,8.48
16:18:39.765625,7.94
16:18:39.781250,7.11
16:18:39.796875,6.03
16:18:39.812500,4.82
16:18:39.828125,3.65
16:18:39.843750,2.66
16:18:39.859375,1.93
16:18:39.875000,1.44
16:18:39.890625,1.11
16:18:39.906250,0.81
16:18:39.921875,0.45
16:18:39.937500,-0.06
16:18:39.953125,-0.72
16:18:39.968750,-1.52
16:18:39.984375,-2.34
16:18:40,-3.06
16:18:40.015625,-3.57
16:18:40.031250,-3.87
16:18:40.046875,-4.04
16:18:40.062500,-4.25
16:18:40.078125,-4.66
16:18:40.093750,-5.36
16:18:40.109375,-6.30
16:18:40.125000,-7.31
16:18:40.140625,-8.20
16:18:40.156250,-8.80
16:18:40.171875,-9.05
16:18:40.187500,-8.98
16:18:40.203125,-8.60
16:18:40.218750,-7.94
16:18:40.234375,-6.97
16:18:40.250000,-5.65
16:18:40.265625,-4.00
16:18:40.281250,-2.16
16:18:40.296875,-0.32
16:18:40.312500,1.30
16:18:40.328125,2.54
16:18:40.343750,3.37
16:18:40.359375,3.85
16:18:40.375000,4.12
16:18:40.390625,4.32
16:18:40.406250,4.52
16:18:40.421875,4.74
16:18:40.437500,5.01
16:18:40.453125,5.35
16:18:40.468750,5.80
16:18:40.484375,6.38
16:18:40.500000,7.06
16:18:40.515625,7.74
16:18:40.531250,8.28
16:18:40.546875,8.52
16:18:40.562500,8.37
16:18:40.578125,7.80
16:18:40.593750,6.86
16:18:40.609375,5.65
16:18:40.625000,4.29
16:18:40.640625,2.88
16:18:40.656250,1.46
16:18:40.671875,0.04
16:18:40.687500,-1.36
16:18:40.703125,-2.66
16:18:40.718750,-3.74
16:18:40.734375,-4.41
16:18:40.750000,-4.54
16:18:40.765625,-4.12
16:18:40.781250,-3.27
16:18:40.796875,-2.24
16:18:40.812500,-1.28
16:18:40.828125,-0.50
16:18:40.843750,0.12
16:18:40.859375,0.71
16:18:40.875000,1.41
16:18:40.890625,2.23
16:18:40.906250,3.00
16:18:40.921875,3.40
16:18:40.937500,3.13
16:18:40.953125,1.99
16:18:40.968750,-0.03
16:18:40.984375,-2.74
16:18:41,-5.83
16:18:41.015625,-8.97
16:18:41.031250,-11.86
16:18:41.046875,-14.32
16:18:41.062500,-16.28
16:18:41.078125,-17.75
16:18:41.093750,-18.77
16:18:41.109375,-19.31
16:18:41.125000,-19.31
16:18:41.140625,-18.68
16:18:41.156250,-17.30
16:18:41.171875,-15.15
16:18:41.187500,-12.35
16:18:41.203125,-9.19
16:18:41.218750,-6.10
16:18:41.234375,-3.55
16:18:41.250000,-1.87
16:18:41.265625,-1.18
16:18:41.281250,-1.27
16:18:41.296875,-1.78
16:18:41.312500,-2.28
16:18:41.328125,-2.49
16:18:41.343750,-2.33
16:18:41.359375,-1.96
16:18:41.375000,-1.58
16:18:41.390625,-1.39
16:18:41.406250,-1.44
16:18:41.421875,-1.68
16:18:41.437500,-2.04
16:18:41.453125,-2.50
16:18:41.468750,-3.03
16:18:41.484375,-3.63
16:18:41.500000,-4.20
16:18:41.515625,-4.53
16:18:41.531250,-4.28
16:18:41.546875,-3.14
16:18:41.562500,-0.91
16:18:41.578125,2.31
16:18:41.593750,6.19
16:18:41.609375,10.24
16:18:41.625000,14.07
16:18:41.640625,17.45
16:18:41.656250,20.42
16:18:41.671875,23.06
16:18:41.687500,25.22
16:18:41.703125,26.39
16:18:41.718750,25.77
16:18:41.734375,22.67
16:18:41.750000,17.00
16:18:41.765625,9.62
16:18:41.781250,2.29
16:18:41.796875,-2.84
16:18:41.812500,-3.96
16:18:41.828125,-0.39
16:18:41.843750,7.06
16:18:41.859375,16.19
16:18:41.875000,24.14
16:18:41.890625,28.39
16:18:41.906250,27.73
16:18:41.921875,22.70
16:18:41.937500,15.42
16:18:41.953125,8.70
16:18:41.968750,4.86
16:18:41.984375,4.73
16:18:42,7.21
16:18:42.015625,9.70
16:18:42.031250,9.15
16:18:42.046875,3.35
16:18:42.062500,-8.18
16:18:42.078125,-23.87
16:18:42.093750,-40.41
16:18:42.109375,-53.56
16:18:42.125000,-59.42
16:18:42.140625,-55.79
16:18:42.156250,-43.18
16:18:42.171875,-25.09
16:18:42.187500,-7.58
16:18:42.203125,2.40
16:18:42.218750,-0.60
16:18:42.234375,-17.76
16:18:42.250000,-44.53
16:18:42.265625,-71.20
16:18:42.281250,-86.12
16:18:42.296875,-80.45
16:18:42.312500,-52.25
16:18:42.328125,-8.14
16:18:42.343750,38.76
16:18:42.359375,73.77
16:18:42.375000,86.52
16:18:42.390625,74.84
16:18:42.406250,45.32
16:18:42.421875,10.45
16:18:42.437500,-16.27
16:18:42.453125,-24.42
16:18:42.468750,-9.39
16:18:42.484375,27.51
16:18:42.500000,80.48
16:18:42.515625,140.70
16:18:42.531250,197.88
16:18:42.546875,241.62
16:18:42.562500,263.49
16:18:42.578125,259.17
16:18:42.593750,230.12
16:18:42.609375,183.87
16:18:42.625000,132.30
16:18:42.640625,87.80
16:18:42.656250,59.12
16:18:42.671875,48.27
16:18:42.687500,50.17
16:18:42.703125,55.35
16:18:42.718750,53.87
16:18:42.734375,39.41
16:18:42.750000,10.88
16:18:42.765625,-28.43
16:18:42.781250,-73.60
16:18:42.796875,-121.01
16:18:42.812500,-169.43
16:18:42.828125,-219.17
16:18:42.843750,-269.63
16:18:42.859375,-317.41
16:18:42.875000,-355.93
16:18:42.890625,-377.11
16:18:42.906250,-374.18
16:18:42.921875,-344.34
16:18:42.937500,-290.25
16:18:42.953125,-219.22
16:18:42.968750,-142.11
16:18:42.984375,-71.47
16:18:43,-19.16
16:18:43.015625,6.18
16:18:43.031250,1.92
16:18:43.046875,-26.88
16:18:43.062500,-68.19
16:18:43.078125,-106.45
16:18:43.093750,-127.77
16:18:43.109375,-124.63
16:18:43.125000,-97.90
16:18:43.140625,-55.24
16:18:43.156250,-6.92
16:18:43.171875,38.45
16:18:43.187500,76.26
16:18:43.203125,105.77
16:18:43.218750,127.96
16:18:43.234375,143.48
16:18:43.250000,151.80
16:18:43.265625,151.57
16:18:43.281250,141.86
16:18:43.296875,122.88
16:18:43.312500,96.32
16:18:43.328125,64.79
16:18:43.343750,31.14
16:18:43.359375,-2.03
16:18:43.375000,-32.79
16:18:43.390625,-59.72
16:18:43.406250,-81.64
16:18:43.421875,-97.20
16:18:43.437500,-104.74
16:18:43.453125,-102.61
16:18:43.468750,-89.86
16:18:43.484375,-67.08
16:18:43.500000,-36.83
16:18:43.515625,-3.38
16:18:43.531250,28.47
16:18:43.546875,54.78
16:18:43.562500,73.73
16:18:43.578125,85.87
16:18:43.593750,93.46
16:18:43.609375,99.25
16:18:43.625000,105.33
16:18:43.640625,112.52
16:18:43.656250,120.58
16:18:43.671875,128.63
16:18:43.687500,135.82
16:18:43.703125,141.71
16:18:43.718750,146.36
16:18:43.734375,150.20
16:18:43.750000,153.75
16:18:43.765625,157.40
16:18:43.781250,161.30
16:18:43.796875,165.37
16:18:43.812500,169.48
16:18:43.828125,173.49
16:18:43.843750,177.33
16:18:43.859375,180.87
16:18:43.875000,183.77
16:18:43.890625,185.45
16:18:43.906250,185.30
16:18:43.921875,183.13
16:18:43.937500,179.62
16:18:43.953125,176.52
16:18:43.968750,176.19
16:18:43.984375,180.76
16:18:44,190.92
16:18:44.015625,205.09
16:18:44.031250,219.49
16:18:44.046875,229.00
16:18:44.062500,228.52
16:18:44.078125,214.40
16:18:44.093750,185.25
16:18:44.109375,142.24
16:18:44.125000,88.81
16:18:44.140625,30.21
16:18:44.156250,-27.32
16:18:44.171875,-77.75
16:18:44.187500,-116.85
16:18:44.203125,-143.46
16:18:44.218750,-159.65
16:18:44.234375,-169.54
16:18:44.250000,-177.27
16:18:44.265625,-185.21
16:18:44.281250,-193.32
16:18:44.296875,-200.10
16:18:44.312500,-204.22
16:18:44.328125,-205.79
16:18:44.343750,-206.27
16:18:44.359375,-207.26
16:18:44.375000,-209.08
16:18:44.390625,-210.42
16:18:44.406250,-209.20
16:18:44.421875,-204.30
16:18:44.437500,-196.70
16:18:44.453125,-189.19
16:18:44.468750,-184.97
16:18:44.484375,-185.73
16:18:44.500000,-190.58
16:18:44.515625,-196.61
16:18:44.531250,-200.36
16:18:44.546875,-199.54
16:18:44.562500,-193.95
16:18:44.578125,-185.21
16:18:44.593750,-175.60
16:18:44.609375,-166.57
16:18:44.625000,-158.06
16:18:44.640625,-148.67
16:18:44.656250,-136.59
16:18:44.671875,-120.65
16:18:44.687500,-100.93
16:18:44.703125,-78.71
16:18:44.718750,-55.85
16:18:44.734375,-34.01
16:18:44.750000,-14.05
16:18:44.765625,4.17
16:18:44.781250,21.55
16:18:44.796875,39.23
16:18:44.812500,57.92
16:18:44.828125,77.43
16:18:44.843750,96.52
16:18:44.859375,113.23
16:18:44.875000,125.51
16:18:44.890625,131.81
16:18:44.906250,131.42
16:18:44.921875,124.30
16:18:44.937500,110.88
16:18:44.953125,91.87
16:18:44.968750,68.42
16:18:44.984375,42.31
16:18:45,16.06
16:18:45.015625,-7.46
16:18:45.031250,-25.78
16:18:45.046875,-37.65
16:18:45.062500,-43.39
16:18:45.078125,-44.52
16:18:45.093750,-42.88
16:18:45.109375,-39.66
16:18:45.125000,-35.05
16:18:45.140625,-28.62
16:18:45.156250,-20.10
16:18:45.171875,-10.05
16:18:45.187500,0.18
16:18:45.203125,9.02
16:18:45.218750,15.47
16:18:45.234375,19.52
16:18:45.250000,22.00
16:18:45.265625,23.87
16:18:45.281250,25.71
16:18:45.296875,27.53
16:18:45.312500,28.94
16:18:45.328125,29.59
16:18:45.343750,29.43
16:18:45.359375,28.72
16:18:45.375000,27.78
16:18:45.390625,26.79
16:18:45.406250,25.77
16:18:45.421875,24.64
16:18:45.437500,23.42
16:18:45.453125,22.22
16:18:45.468750,21.19
16:18:45.484375,20.51
16:18:45.500000,20.28
16:18:45.515625,20.51
16:18:45.531250,21.07
16:18:45.546875,21.67
16:18:45.562500,21.87
16:18:45.578125,21.30
16:18:45.593750,19.75
16:18:45.609375,17.40
16:18:45.625000,14.71
16:18:45.640625,12.23
16:18:45.656250,10.42
16:18:45.671875,9.47
16:18:45.687500,9.31
16:18:45.703125,9.71
16:18:45.718750,10.37
16:18:45.734375,11.00
16:18:45.750000,11.38
16:18:45.765625,11.36
16:18:45.781250,10.87
16:18:45.796875,10.01
16:18:45.812500,9.04
16:18:45.828125,8.27
16:18:45.843750,7.93
16:18:45.859375,8.08
16:18:45.875000,8.54
16:18:45.890625,9.05
16:18:45.906250,9.38
16:18:45.921875,9.45
16:18:45.937500,9.29
16:18:45.953125,9.01
16:18:45.968750,8.62
16:18:45.984375,8.07
16:18:46,7.27
16:18:46.015625,6.20
16:18:46.031250,4.96
16:18:46.046875,3.77
16:18:46.062500,2.78
16:18:46.078125,2.10
16:18:46.093750,1.62
16:18:46.109375,1.22
16:18:46.125000,0.74
16:18:46.140625,0.19
16:18:46.156250,-0.36
16:18:46.171875,-0.78
16:18:46.187500,-1.02
16:18:46.203125,-1.12
16:18:46.218750,-1.23
16:18:46.234375,-1.47
16:18:46.250000,-1.88
16:18:46.265625,-2.44
16:18:46.281250,-3.04
16:18:46.296875,-3.54
16:18:46.312500,-3.85
16:18:46.328125,-3.90
16:18:46.343750,-3.70
16:18:46.359375,-3.31
16:18:46.375000,-2.81
16:18:46.390625,-2.30
16:18:46.406250,-1.86
16:18:46.421875,-1.55
16:18:46.437500,-1.35
16:18:46.453125,-1.22
16:18:46.468750,-1.10
16:18:46.484375,-0.92
16:18:46.500000,-0.64
16:18:46.515625,-0.22
16:18:46.531250,0.37
16:18:46.546875,1.16
16:18:46.562500,2.10
16:18:46.578125,3.07
16:18:46.593750,3.86
16:18:46.609375,4.28
16:18:46.625000,4.21
16:18:46.640625,3.71
16:18:46.656250,2.96
16:18:46.671875,2.24
16:18:46.687500,1.77
16:18:46.703125,1.68
16:18:46.718750,1.97
16:18:46.734375,2.46
16:18:46.750000,2.97
16:18:46.765625,3.31
16:18:46.781250,3.35
16:18:46.796875,3.09
16:18:46.812500,2.57
16:18:46.828125,1.90
16:18:46.843750,1.18
16:18:46.859375,0.45
16:18:46.875000,-0.28
16:18:46.890625,-1.01
16:18:46.906250,-1.73
16:18:46.921875,-2.39
16:18:46.937500,-2.92
16:18:46.953125,-3.33
16:18:46.968750,-3.67
16:18:46.984375,-4.05
16:18:47,-4.56
16:18:47.015625,-5.24
16:18:47.031250,-6.01
16:18:47.046875,-6.75
16:18:47.062500,-7.33
16:18:47.078125,-7.64
16:18:47.093750,-7.66
16:18:47.109375,-7.37
16:18:47.125000,-6.73
16:18:47.140625,-5.75
16:18:47.156250,-4.43
16:18:47.171875,-2.89
16:18:47.187500,-1.29
16:18:47.203125,0.18
16:18:47.218750,1.37
16:18:47.234375,2.25
16:18:47.250000,2.86
16:18:47.265625,3.31
16:18:47.281250,3.68
16:18:47.296875,3.99
16:18:47.312500,4.14
16:18:47.328125,4.06
16:18:47.343750,3.71
16:18:47.359375,3.14
16:18:47.375000,2.54
16:18:47.390625,2.11
16:18:47.406250,2.00
16:18:47.421875,2.21
16:18:47.437500,2.65
16:18:47.453125,3.11
16:18:47.468750,3.43
16:18:47.484375,3.53
16:18:47.500000,3.41
16:18:47.515625,3.14
16:18:47.531250,2.77
16:18:47.546875,2.31
16:18:47.562500,1.74
16:18:47.578125,1.03
16:18:47.593750,0.18
16:18:47.609375,-0.77
16:18:47.625000,-1.75
16:18:47.640625,-2.67
16:18:47.656250,-3.44
16:18:47.671875,-4.03
16:18:47.687500,-4.46
16:18:47.703125,-4.82
16:18:47.718750,-5.24
16:18:47.734375,-5.86
16:18:47.750000,-6.71
16:18:47.765625,-7.72
16:18:47.781250,-8.72
16:18:47.796875,-9.49
16:18:47.812500,-9.87
16:18:47.828125,-9.76
16:18:47.843750,-9.14
16:18:47.859375,-8.07
16:18:47.875000,-6.67
16:18:47.890625,-5.09
16:18:47.906250,-3.54
16:18:47.921875,-2.23
16:18:47.937500,-1.32
16:18:47.953125,-0.82
16:18:47.968750,-0.61
16:18:47.984375,-0.49
16:18:48,-0.29
16:18:48.015625,0.05
16:18:48.031250,0.44
16:18:48.046875,0.74
16:18:48.062500,0.85
16:18:48.078125,0.81
16:18:48.093750,0.78
16:18:48.109375,0.96
16:18:48.125000,1.44
16:18:48.140625,2.18
16:18:48.156250,3.04
16:18:48.171875,3.82
16:18:48.187500,4.41
16:18:48.203125,4.77
16:18:48.218750,4.90
16:18:48.234375,4.85
16:18:48.250000,4.67
16:18:48.265625,4.41
16:18:48.281250,4.15
16:18:48.296875,3.98
16:18:48.312500,3.95
16:18:48.328125,4.05
16:18:48.343750,4.19
16:18:48.359375,4.26
16:18:48.375000,4.14
16:18:48.390625,3.78
16:18:48.406250,3.21
16:18:48.421875,2.54
16:18:48.437500,1.86
16:18:48.453125,1.24
16:18:48.468750,0.70
16:18:48.484375,0.17
16:18:48.500000,-0.42
16:18:48.515625,-1.14
16:18:48.531250,-2.00
16:18:48.546875,-2.97
16:18:48.562500,-3.96
16:18:48.578125,-4.91
16:18:48.593750,-5.79
16:18:48.609375,-6.57
16:18:48.625000,-7.23
16:18:48.640625,-7.68
16:18:48.656250,-7.79
16:18:48.671875,-7.41
16:18:48.687500,-6.49
16:18:48.703125,-5.07
16:18:48.718750,-3.33
16:18:48.734375,-1.51
16:18:48.750000,0.18
16:18:48.765625,1.60
16:18:48.781250,2.71
16:18:48.796875,3.53
16:18:48.812500,4.06
16:18:48.828125,4.29
16:18:48.843750,4.18
16:18:48.859375,3.75
16:18:48.875000,3.10
16:18:48.890625,2.37
16:18:48.906250,1.76
16:18:48.921875,1.35
16:18:48.937500,1.18
16:18:48.953125,1.18
16:18:48.968750,1.24
16:18:48.984375,1.31
16:18:49,1.36
16:18:49.015625,1.41
16:18:49.031250,1.45
16:18:49.046875,1.44
16:18:49.062500,1.34
16:18:49.078125,1.11
16:18:49.093750,0.76
16:18:49.109375,0.29
16:18:49.125000,-0.25
16:18:49.140625,-0.78
16:18:49.156250,-1.25
16:18:49.171875,-1.58
16:18:49.187500,-1.75
16:18:49.203125,-1.74
16:18:49.218750,-1.62
16:18:49.234375,-1.45
16:18:49.250000,-1.32
16:18:49.265625,-1.21
16:18:49.281250,-1.08
16:18:49.296875,-0.85
16:18:49.312500,-0.54
16:18:49.328125,-0.22
16:18:49.343750,-0.06
16:18:49.359375,-0.16
16:18:49.375000,-0.54
16:18:49.390625,-1.09
16:18:49.406250,-1.62
16:18:49.421875,-2.01
16:18:49.437500,-2.24
16:18:49.453125,-2.47
16:18:49.468750,-2.87
16:18:49.484375,-3.63
16:18:49.500000,-4.71
16:18:49.515625,-5.91
16:18:49.531250,-6.90
16:18:49.546875,-7.33
16:18:49.562500,-7.00
16:18:49.578125,-5.90
16:18:49.593750,-4.24
16:18:49.609375,-2.37
16:18:49.625000,-0.62
16:18:49.640625,0.77
16:18:49.656250,1.70
16:18:49.671875,2.24
16:18:49.687500,2.53
16:18:49.703125,2.71
16:18:49.718750,2.87
16:18:49.734375,3.02
16:18:49.750000,3.11
16:18:49.765625,3.12
16:18:49.781250,3.06
16:18:49.796875,2.98
16:18:49.812500,2.97
16:18:49.828125,3.08
16:18:49.843750,3.30
16:18:49.859375,3.55
16:18:49.875000,3.71
16:18:49.890625,3.69
16:18:49.906250,3.48
16:18:49.921875,3.14
16:18:49.937500,2.75
16:18:49.953125,2.40
16:18:49.968750,2.12
16:18:49.984375,1.91
16:18:50,1.73
16:18:50.015625,1.58
16:18:50.031250,1.47
16:18:50.046875,1.38
16:18:50.062500,1.25
16:18:50.078125,1.02
16:18:50.093750,0.64
16:18:50.109375,0.12
16:18:50.125000,-0.49
16:18:50.140625,-1.08
16:18:50.156250,-1.57
16:18:50.171875,-1.91
16:18:50.187500,-2.12
16:18:50.203125,-2.19
16:18:50.218750,-2.13
16:18:50.234375,-1.94
16:18:50.250000,-1.67
16:18:50.265625,-1.45
16:18:50.281250,-1.47
16:18:50.296875,-1.91
16:18:50.312500,-2.83
16:18:50.328125,-4.16
16:18:50.343750,-5.62
16:18:50.359375,-6.89
16:18:50.375000,-7.70
16:18:50.390625,-7.89
16:18:50.406250,-7.44
16:18:50.421875,-6.44
16:18:50.437500,-5.04
16:18:50.453125,-3.38
16:18:50.468750,-1.62
16:18:50.484375,0.10
16:18:50.500000,1.61
16:18:50.515625,2.73
16:18:50.531250,3.40
16:18:50.546875,3.61
16:18:50.562500,3.46
16:18:50.578125,3.14
16:18:50.593750,2.80
16:18:50.609375,2.57
16:18:50.625000,2.47
16:18:50.640625,2.44
16:18:50.656250,2.40
16:18:50.671875,2.27
16:18:50.687500,2.06
16:18:50.703125,1.84
16:18:50.718750,1.71
16:18:50.734375,1.76
16:18:50.750000,2.01
16:18:50.765625,2.37
16:18:50.781250,2.69
16:18:50.796875,2.84
16:18:50.812500,2.73
16:18:50.828125,2.39
16:18:50.843750,1.92
16:18:50.859375,1.46
16:18:50.875000,1.09
16:18:50.890625,0.79
16:18:50.906250,0.55
16:18:50.921875,0.30
16:18:50.937500,0.02
16:18:50.953125,-0.25
16:18:50.968750,-0.50
16:18:50.984375,-0.72
16:18:51,-0.96
16:18:51.015625,-1.29
16:18:51.031250,-1.79
16:18:51.046875,-2.41
16:18:51.062500,-3.06
16:18:51.078125,-3.57
16:18:51.093750,-3.82
16:18:51.109375,-3.79
16:18:51.125000,-3.59
16:18:51.140625,-3.40
16:18:51.156250,-3.37
16:18:51.171875,-3.62
16:18:51.187500,-4.15
16:18:51.203125,-4.87
16:18:51.218750,-5.66
16:18:51.234375,-6.39
16:18:51.250000,-6.87
16:18:51.265625,-6.94
16:18:51.281250,-6.45
16:18:51.296875,-5.35
16:18:51.312500,-3.76
16:18:51.328125,-1.92
16:18:51.343750,-0.10
16:18:51.359375,1.44
16:18:51.375000,2.60
16:18:51.390625,3.35
16:18:51.406250,3.75
16:18:51.421875,3.89
16:18:51.437500,3.84
16:18:51.453125,3.65
16:18:51.468750,3.42
16:18:51.484375,3.23
16:18:51.500000,3.15
16:18:51.515625,3.21
16:18:51.531250,3.36
16:18:51.546875,3.49
16:18:51.562500,3.51
16:18:51.578125,3.39
16:18:51.593750,3.12
16:18:51.609375,2.77
16:18:51.625000,2.43
16:18:51.640625,2.14
16:18:51.656250,1.95
16:18:51.671875,1.88
16:18:51.687500,1.91
16:18:51.703125,2.01
16:18:51.718750,2.13
16:18:51.734375,2.16
16:18:51.750000,2.05
16:18:51.765625,1.73
16:18:51.781250,1.21
16:18:51.796875,0.56
16:18:51.812500,-0.06
16:18:51.828125,-0.50
16:18:51.843750,-0.65
16:18:51.859375,-0.52
16:18:51.875000,-0.22
16:18:51.890625,0.02
16:18:51.906250,-0.01
16:18:51.921875,-0.44
16:18:51.937500,-1.25
16:18:51.953125,-2.28
16:18:51.968750,-3.28
16:18:51.984375,-4.05
16:18:52,-4.50
16:18:52.015625,-4.66
16:18:52.031250,-4.72
16:18:52.046875,-4.84
16:18:52.062500,-5.19
16:18:52.078125,-5.77
16:18:52.093750,-6.55
16:18:52.109375,-7.37
16:18:52.125000,-8.05
16:18:52.140625,-8.40
16:18:52.156250,-8.26
16:18:52.171875,-7.55
16:18:52.187500,-6.32
16:18:52.203125,-4.71
16:18:52.218750,-2.92
16:18:52.234375,-1.19
16:18:52.250000,0.31
16:18:52.265625,1.48
16:18:52.281250,2.29
16:18:52.296875,2.80
16:18:52.312500,3.09
16:18:52.328125,3.20
16:18:52.343750,3.15
16:18:52.359375,2.96
16:18:52.375000,2.66
16:18:52.390625,2.32
16:18:52.406250,2.05
16:18:52.421875,2.00
16:18:52.437500,2.22
16:18:52.453125,2.67
16:18:52.468750,3.23
16:18:52.484375,3.68
16:18:52.500000,3.86
16:18:52.515625,3.70
16:18:52.531250,3.28
16:18:52.546875,2.73
16:18:52.562500,2.23
16:18:52.578125,1.86
16:18:52.593750,1.65
16:18:52.609375,1.51
16:18:52.625000,1.36
16:18:52.640625,1.07
16:18:52.656250,0.61
16:18:52.671875,0.01
16:18:52.687500,-0.66
16:18:52.703125,-1.25
16:18:52.718750,-1.67
16:18:52.734375,-1.91
16:18:52.750000,-2.00
16:18:52.765625,-2.03
16:18:52.781250,-2.09
16:18:52.796875,-2.20
16:18:52.812500,-2.34
16:18:52.828125,-2.48
16:18:52.843750,-2.60
16:18:52.859375,-2.72
16:18:52.875000,-2.87
16:18:52.890625,-3.07
16:18:52.906250,-3.32
16:18:52.921875,-3.60
16:18:52.937500,-3.90
16:18:52.953125,-4.24
16:18:52.968750,-4.64
16:18:52.984375,-5.07
16:18:53,-5.52
16:18:53.015625,-5.90
16:18:53.031250,-6.12
16:18:53.046875,-6.04
16:18:53.062500,-5.57
16:18:53.078125,-4.64
16:18:53.093750,-3.24
16:18:53.109375,-1.46
16:18:53.125000,0.47
16:18:53.140625,2.30
16:18:53.156250,3.76
16:18:53.171875,4.68
16:18:53.187500,5.05
16:18:53.203125,4.99
16:18:53.218750,4.69
16:18:53.234375,4.31
16:18:53.250000,3.93
16:18:53.265625,3.55
16:18:53.281250,3.16
16:18:53.296875,2.77
16:18:53.312500,2.43
16:18:53.328125,2.18
16:18:53.343750,2.03
16:18:53.359375,1.95
16:18:53.375000,1.89
16:18:53.390625,1.83
16:18:53.406250,1.77
16:18:53.421875,1.74
16:18:53.437500,1.73
16:18:53.453125,1.72
16:18:53.468750,1.64
16:18:53.484375,1.45
16:18:53.500000,1.14
16:18:53.515625,0.78
16:18:53.531250,0.45
16:18:53.546875,0.24
16:18:53.562500,0.15
16:18:53.578125,0.12
16:18:53.593750,0.07
16:18:53.609375,-0.07
16:18:53.625000,-0.33
16:18:53.640625,-0.68
16:18:53.656250,-1.02
16:18:53.671875,-1.29
16:18:53.687500,-1.44
16:18:53.703125,-1.47
16:18:53.718750,-1.48
16:18:53.734375,-1.55
16:18:53.750000,-1.77
16:18:53.765625,-2.18
16:18:53.781250,-2.77
16:18:53.796875,-3.50
16:18:53.812500,-4.35
16:18:53.828125,-5.28
16:18:53.843750,-6.22
16:18:53.859375,-7.05
16:18:53.875000,-7.55
16:18:53.890625,-7.52
16:18:53.906250,-6.81
16:18:53.921875,-5.42
16:18:53.937500,-3.52
16:18:53.953125,-1.40
16:18:53.968750,0.59
16:18:53.984375,2.21
16:18:54,3.35
16:18:54.015625,4.00
16:18:54.031250,4.30
16:18:54.046875,4.37
16:18:54.062500,4.34
16:18:54.078125,4.25
16:18:54.093750,4.12
16:18:54.109375,3.94
16:18:54.125000,3.74
16:18:54.140625,3.56
16:18:54.156250,3.47
16:18:54.171875,3.50
16:18:54.187500,3.57
16:18:54.203125,3.60
16:18:54.218750,3.46
16:18:54.234375,3.11
16:18:54.250000,2.62
16:18:54.265625,2.14
16:18:54.281250,1.82
16:18:54.296875,1.74
16:18:54.312500,1.84
16:18:54.328125,1.93
16:18:54.343750,1.83
16:18:54.359375,1.46
16:18:54.375000,0.83
16:18:54.390625,0.13
16:18:54.406250,-0.48
16:18:54.421875,-0.86
16:18:54.437500,-1.02
16:18:54.453125,-1.08
16:18:54.468750,-1.22
16:18:54.484375,-1.60
16:18:54.500000,-2.20
16:18:54.515625,-2.90
16:18:54.531250,-3.50
16:18:54.546875,-3.85
16:18:54.562500,-3.87
16:18:54.578125,-3.68
16:18:54.593750,-3.47
16:18:54.609375,-3.46
16:18:54.625000,-3.80
16:18:54.640625,-4.52
16:18:54.656250,-5.53
16:18:54.671875,-6.68
16:18:54.687500,-7.73
16:18:54.703125,-8.41
16:18:54.718750,-8.49
16:18:54.734375,-7.80
16:18:54.750000,-6.29
16:18:54.765625,-4.11
16:18:54.781250,-1.58
16:18:54.796875,0.94
16:18:54.812500,3.12
16:18:54.828125,4.75
16:18:54.843750,5.75
16:18:54.859375,6.18
16:18:54.875000,6.14
16:18:54.890625,5.80
16:18:54.906250,5.31
16:18:54.921875,4.80
16:18:54.937500,4.36
16:18:54.953125,4.02
16:18:54.968750,3.78
16:18:54.984375,3.59
16:18:55,3.46
16:18:55.015625,3.38
16:18:55.031250,3.37
16:18:55.046875,3.39
16:18:55.062500,3.35
16:18:55.078125,3.19
16:18:55.093750,2.86
16:18:55.109375,2.41
16:18:55.125000,1.95
16:18:55.140625,1.60
16:18:55.156250,1.41
16:18:55.171875,1.33
16:18:55.187500,1.28
16:18:55.203125,1.11
16:18:55.218750,0.77
16:18:55.234375,0.25
16:18:55.250000,-0.37
16:18:55.265625,-1.02
16:18:55.281250,-1.65
16:18:55.296875,-2.26
16:18:55.312500,-2.80
16:18:55.328125,-3.21
16:18:55.343750,-3.42
16:18:55.359375,-3.36
16:18:55.375000,-3.08
16:18:55.390625,-2.73
16:18:55.406250,-2.54
16:18:55.421875,-2.70
16:18:55.437500,-3.32
16:18:55.453125,-4.34
16:18:55.468750,-5.58
16:18:55.484375,-6.84
16:18:55.500000,-7.92
16:18:55.515625,-8.69
16:18:55.531250,-9.01
16:18:55.546875,-8.80
16:18:55.562500,-8.01
16:18:55.578125,-6.66
16:18:55.593750,-4.89
16:18:55.609375,-2.93
16:18:55.625000,-1.06
16:18:55.640625,0.51
16:18:55.656250,1.65
16:18:55.671875,2.36
16:18:55.687500,2.73
16:18:55.703125,2.85
16:18:55.718750,2.81
16:18:55.734375,2.64
16:18:55.750000,2.36
16:18:55.765625,2.03
16:18:55.781250,1.71
16:18:55.796875,1.49
16:18:55.812500,1.37
16:18:55.828125,1.35
16:18:55.843750,1.33
16:18:55.859375,1.24
16:18:55.875000,1.08
16:18:55.890625,0.92
16:18:55.906250,0.90
16:18:55.921875,1.10
16:18:55.937500,1.50
16:18:55.953125,1.96
16:18:55.968750,2.27
16:18:55.984375,2.26
16:18:56,1.85
16:18:56.015625,1.10
16:18:56.031250,0.17
16:18:56.046875,-0.72
16:18:56.062500,-1.39
16:18:56.078125,-1.73
16:18:56.093750,-1.81
16:18:56.109375,-1.77
16:18:56.125000,-1.87
16:18:56.140625,-2.30
16:18:56.156250,-3.17
16:18:56.171875,-4.44
16:18:56.187500,-5.94
16:18:56.203125,-7.40
16:18:56.218750,-8.62
16:18:56.234375,-9.50
16:18:56.250000,-10.12
16:18:56.265625,-10.71
16:18:56.281250,-11.54
16:18:56.296875,-12.82
16:18:56.312500,-14.59
16:18:56.328125,-16.62
16:18:56.343750,-18.52
16:18:56.359375,-19.78
16:18:56.375000,-19.97
16:18:56.390625,-18.83
16:18:56.406250,-16.40
16:18:56.421875,-12.95
16:18:56.437500,-8.91
16:18:56.453125,-4.78
16:18:56.468750,-0.93
16:18:56.484375,2.42
16:18:56.500000,5.18
16:18:56.515625,7.37
16:18:56.531250,9.06
16:18:56.546875,10.31
16:18:56.562500,11.17
16:18:56.578125,11.72
16:18:56.593750,12.02
16:18:56.609375,12.21
16:18:56.625000,12.36
16:18:56.640625,12.49
16:18:56.656250,12.57
16:18:56.671875,12.54
16:18:56.687500,12.40
16:18:56.703125,12.18
16:18:56.718750,11.99
16:18:56.734375,11.91
16:18:56.750000,11.94
16:18:56.765625,12.04
16:18:56.781250,12.09
16:18:56.796875,12.02
16:18:56.812500,11.81
16:18:56.828125,11.52
16:18:56.843750,11.20
16:18:56.859375,10.82
16:18:56.875000,10.28
16:18:56.890625,9.50
16:18:56.906250,8.39
16:18:56.921875,7.01
16:18:56.937500,5.53
16:18:56.953125,4.12
16:18:56.968750,2.99
16:18:56.984375,2.25
16:18:57,1.96
16:18:57.015625,2.15
16:18:57.031250,2.80
16:18:57.046875,3.88
16:18:57.062500,5.27
16:18:57.078125,6.80
16:18:57.093750,8.20
16:18:57.109375,9.20
16:18:57.125000,9.56
16:18:57.140625,9.19
16:18:57.156250,8.16
16:18:57.171875,6.68
16:18:57.187500,5.08
16:18:57.203125,3.65
16:18:57.218750,2.60
16:18:57.234375,1.99
16:18:57.250000,1.67
16:18:57.265625,1.43
16:18:57.281250,1.03
16:18:57.296875,0.29
16:18:57.312500,-0.86
16:18:57.328125,-2.43
16:18:57.343750,-4.41
16:18:57.359375,-6.78
16:18:57.375000,-9.57
16:18:57.390625,-12.78
16:18:57.406250,-16.34
16:18:57.421875,-20.07
16:18:57.437500,-23.70
16:18:57.453125,-26.92
16:18:57.468750,-29.46
16:18:57.484375,-31.15
16:18:57.500000,-31.92
16:18:57.515625,-31.77
16:18:57.531250,-30.79
16:18:57.546875,-29.11
16:18:57.562500,-26.92
16:18:57.578125,-24.49
16:18:57.593750,-22.12
16:18:57.609375,-20.11
16:18:57.625000,-18.72
16:18:57.640625,-18.10
16:18:57.656250,-18.28
16:18:57.671875,-19.16
16:18:57.687500,-20.55
16:18:57.703125,-22.09
16:18:57.718750,-23.37
16:18:57.734375,-23.88
16:18:57.750000,-23.13
16:18:57.765625,-20.72
16:18:57.781250,-16.39
16:18:57.796875,-10.10
16:18:57.812500,-2.10
16:18:57.828125,7.05
16:18:57.843750,16.55
16:18:57.859375,25.45
16:18:57.875000,32.89
16:18:57.890625,38.35
16:18:57.906250,41.79
16:18:57.921875,43.66
16:18:57.937500,44.64
16:18:57.953125,45.38
16:18:57.968750,46.19
16:18:57.984375,47.03
16:18:58,47.55
16:18:58.015625,47.40
16:18:58.031250,46.44
16:18:58.046875,44.89
16:18:58.062500,43.18
16:18:58.078125,41.76
16:18:58.093750,40.89
16:18:58.109375,40.48
16:18:58.125000,40.18
16:18:58.140625,39.58
16:18:58.156250,38.43
16:18:58.171875,36.68
16:18:58.187500,34.46
16:18:58.203125,31.82
16:18:58.218750,28.69
16:18:58.234375,24.87
16:18:58.250000,20.19
16:18:58.265625,14.71
16:18:58.281250,8.84
16:18:58.296875,3.18
16:18:58.312500,-1.70
16:18:58.328125,-5.53
16:18:58.343750,-8.44
16:18:58.359375,-10.83
16:18:58.375000,-13.07
16:18:58.390625,-15.28
16:18:58.406250,-17.28
16:18:58.421875,-18.72
16:18:58.437500,-19.36
16:18:58.453125,-19.21
16:18:58.468750,-18.52
16:18:58.484375,-17.59
16:18:58.500000,-16.54
16:18:58.515625,-15.26
16:18:58.531250,-13.58
16:18:58.546875,-11.43
16:18:58.562500,-9.04
16:18:58.578125,-6.90
16:18:58.593750,-5.54
16:18:58.609375,-5.24
16:18:58.625000,-5.89
16:18:58.640625,-7.04
16:18:58.656250,-8.08
16:18:58.671875,-8.57
16:18:58.687500,-8.27
16:18:58.703125,-7.26
16:18:58.718750,-5.85
16:18:58.734375,-4.46
16:18:58.750000,-3.55
16:18:58.765625,-3.50
16:18:58.781250,-4.52
16:18:58.796875,-6.52
16:18:58.812500,-9.12
16:18:58.828125,-11.80
16:18:58.843750,-14.03
16:18:58.859375,-15.58
16:18:58.875000,-16.52
16:18:58.890625,-17.16
16:18:58.906250,-17.87
16:18:58.921875,-18.80
16:18:58.937500,-19.78
16:18:58.953125,-20.40
16:18:58.968750,-20.25
16:18:58.984375,-19.16
16:18:59,-17.29
16:18:59.015625,-15.05
16:18:59.031250,-12.88
16:18:59.046875,-11.00
16:18:59.062500,-9.38
16:18:59.078125,-7.77
16:18:59.093750,-5.91
16:18:59.109375,-3.74
16:18:59.125000,-1.43
16:18:59.140625,0.67
16:18:59.156250,2.23
16:18:59.171875,3.07
16:18:59.187500,3.27
16:18:59.203125,3.13
16:18:59.218750,3.07
16:18:59.234375,3.43
16:18:59.250000,4.37
16:18:59.265625,5.78
16:18:59.281250,7.30
16:18:59.296875,8.51
16:18:59.312500,9.07
16:18:59.328125,8.94
16:18:59.343750,8.37
16:18:59.359375,7.73
16:18:59.375000,7.37
16:18:59.390625,7.40
16:18:59.406250,7.65
16:18:59.421875,7.84
16:18:59.437500,7.69
16:18:59.453125,7.09
16:18:59.468750,6.14
16:18:59.484375,5.04
16:18:59.500000,4.05
16:18:59.515625,3.31
16:18:59.531250,2.88
16:18:59.546875,2.71
16:18:59.562500,2.70
16:18:59.578125,2.71
16:18:59.593750,2.60
16:18:59.609375,2.25
16:18:59.625000,1.60
16:18:59.640625,0.68
16:18:59.656250,-0.42
16:18:59.671875,-1.56
16:18:59.687500,-2.56
16:18:59.703125,-3.28
16:18:59.718750,-3.65
16:18:59.734375,-3.74
16:18:59.750000,-3.78
16:18:59.765625,-4.06
16:18:59.781250,-4.86
16:18:59.796875,-6.27
16:18:59.812500,-8.05
16:18:59.828125,-9.68
16:18:59.843750,-10.54
16:18:59.859375,-10.14
16:18:59.875000,-8.38
16:18:59.890625,-5.61
16:18:59.906250,-2.52
16:18:59.921875,0.20
16:18:59.937500,2.07
16:18:59.953125,2.98
16:18:59.968750,3.16
16:18:59.984375,2.98
16:19:00,2.76
16:19:00.015625,2.69
16:19:00.031250,2.80
16:19:00.046875,3.04
16:19:00.062500,3.33
16:19:00.078125,3.63
16:19:00.093750,3.91
16:19:00.109375,4.17
16:19:00.125000,4.40
16:19:00.140625,4.59
16:19:00.156250,4.76
16:19:00.171875,4.94
16:19:00.187500,5.19
16:19:00.203125,5.58
16:19:00.218750,6.13
16:19:00.234375,6.81
16:19:00.250000,7.56
16:19:00.265625,8.26
16:19:00.281250,8.80
16:19:00.296875,9.06
16:19:00.312500,8.97
16:19:00.328125,8.48
16:19:00.343750,7.63
16:19:00.359375,6.54
16:19:00.375000,5.36
16:19:00.390625,4.27
16:19:00.406250,3.35
16:19:00.421875,2.60
16:19:00.437500,1.93
16:19:00.453125,1.25
16:19:00.468750,0.50
16:19:00.484375,-0.31
16:19:00.500000,-1.12
16:19:00.515625,-1.87
16:19:00.531250,-2.48
16:19:00.546875,-2.96
16:19:00.562500,-3.30
16:19:00.578125,-3.52
16:19:00.593750,-3.64
16:19:00.609375,-3.72
16:19:00.625000,-3.80
16:19:00.640625,-3.92
16:19:00.656250,-4.09
16:19:00.671875,-4.27
16:19:00.687500,-4.44
16:19:00.703125,-4.62
16:19:00.718750,-4.91
16:19:00.734375,-5.41
16:19:00.750000,-6.18
16:19:00.765625,-7.19
16:19:00.781250,-8.27
16:19:00.796875,-9.16
16:19:00.812500,-9.54
16:19:00.828125,-9.17
16:19:00.843750,-7.94
16:19:00.859375,-5.91
16:19:00.875000,-3.40
16:19:00.890625,-0.78
16:19:00.906250,1.51
16:19:00.921875,3.22
16:19:00.937500,4.27
16:19:00.953125,4.78
16:19:00.968750,4.97
16:19:00.984375,5.02
16:19:01,5.07
16:19:01.015625,5.11
16:19:01.031250,5.12
16:19:01.046875,5.06
16:19:01.062500,4.94
16:19:01.078125,4.85
16:19:01.093750,4.86
16:19:01.109375,5.04
16:19:01.125000,5.36
16:19:01.140625,5.75
16:19:01.156250,6.03
16:19:01.171875,6.05
16:19:01.187500,5.73
16:19:01.203125,5.09
16:19:01.218750,4.24
16:19:01.234375,3.34
16:19:01.250000,2.50
16:19:01.265625,1.78
16:19:01.281250,1.16
16:19:01.296875,0.65
16:19:01.312500,0.26
16:19:01.328125,0.03
16:19:01.343750,0.03
16:19:01.359375,0.24
16:19:01.375000,0.49
16:19:01.390625,0.64
16:19:01.406250,0.51
16:19:01.421875,0.09
16:19:01.437500,-0.49
16:19:01.453125,-1.00
16:19:01.468750,-1.22
16:19:01.484375,-1.06
16:19:01.500000,-0.57
16:19:01.515625,0.03
16:19:01.531250,0.51
16:19:01.546875,0.69
16:19:01.562500,0.49
16:19:01.578125,-0.06
16:19:01.593750,-0.88
16:19:01.609375,-1.84
16:19:01.625000,-2.85
16:19:01.640625,-3.78
16:19:01.656250,-4.51
16:19:01.671875,-4.96
16:19:01.687500,-5.10
16:19:01.703125,-5.04
16:19:01.718750,-4.96
16:19:01.734375,-5.09
16:19:01.750000,-5.58
16:19:01.765625,-6.40
16:19:01.781250,-7.33
16:19:01.796875,-8.02
16:19:01.812500,-8.11
16:19:01.828125,-7.36
16:19:01.843750,-5.78
16:19:01.859375,-3.63
16:19:01.875000,-1.28
16:19:01.890625,0.86
16:19:01.906250,2.49
16:19:01.921875,3.49
16:19:01.937500,3.89
16:19:01.953125,3.85
16:19:01.968750,3.58
16:19:01.984375,3.32
16:19:02,3.19
16:19:02.015625,3.27
16:19:02.031250,3.50
16:19:02.046875,3.79
16:19:02.062500,4.00
16:19:02.078125,4.09
16:19:02.093750,4.04
16:19:02.109375,3.91
16:19:02.125000,3.72
16:19:02.140625,3.50
16:19:02.156250,3.20
16:19:02.171875,2.85
16:19:02.187500,2.49
16:19:02.203125,2.25
16:19:02.218750,2.27
16:19:02.234375,2.58
16:19:02.250000,3.08
16:19:02.265625,3.55
16:19:02.281250,3.73
16:19:02.296875,3.44
16:19:02.312500,2.71
16:19:02.328125,1.74
16:19:02.343750,0.81
16:19:02.359375,0.14
16:19:02.375000,-0.18
16:19:02.390625,-0.24
16:19:02.406250,-0.19
16:19:02.421875,-0.17
16:19:02.437500,-0.25
16:19:02.453125,-0.42
16:19:02.468750,-0.64
16:19:02.484375,-0.83
16:19:02.500000,-1.00
16:19:02.515625,-1.15
16:19:02.531250,-1.31
16:19:02.546875,-1.50
16:19:02.562500,-1.72
16:19:02.578125,-1.99
16:19:02.593750,-2.27
16:19:02.609375,-2.58
16:19:02.625000,-2.89
16:19:02.640625,-3.21
16:19:02.656250,-3.53
16:19:02.671875,-3.87
16:19:02.687500,-4.25
16:19:02.703125,-4.70
16:19:02.718750,-5.26
16:19:02.734375,-5.98
16:19:02.750000,-6.83
16:19:02.765625,-7.73
16:19:02.781250,-8.53
16:19:02.796875,-9.01
16:19:02.812500,-8.92
16:19:02.828125,-8.12
16:19:02.843750,-6.62
16:19:02.859375,-4.56
16:19:02.875000,-2.23
16:19:02.890625,0.03
16:19:02.906250,1.88
16:19:02.921875,3.11
16:19:02.937500,3.68
16:19:02.953125,3.73
16:19:02.968750,3.52
16:19:02.984375,3.37
16:19:03,3.49
16:19:03.015625,3.93
16:19:03.031250,4.60
16:19:03.046875,5.31
16:19:03.062500,5.92
16:19:03.078125,6.37
16:19:03.093750,6.70
16:19:03.109375,6.96
16:19:03.125000,7.24
16:19:03.140625,7.53
16:19:03.156250,7.83
16:19:03.171875,8.11
16:19:03.187500,8.35
16:19:03.203125,8.52
16:19:03.218750,8.56
16:19:03.234375,8.39
16:19:03.250000,7.95
16:19:03.265625,7.29
16:19:03.281250,6.51
16:19:03.296875,5.81
16:19:03.312500,5.35
16:19:03.328125,5.20
16:19:03.343750,5.32
16:19:03.359375,5.54
16:19:03.375000,5.64
16:19:03.390625,5.43
16:19:03.406250,4.85
16:19:03.421875,3.96
16:19:03.437500,2.94
16:19:03.453125,2.04
16:19:03.468750,1.50
16:19:03.484375,1.48
16:19:03.500000,1.98
16:19:03.515625,2.84
16:19:03.531250,3.72
16:19:03.546875,4.23
16:19:03.562500,4.02
16:19:03.578125,2.95
16:19:03.593750,1.14
16:19:03.609375,-1.03
16:19:03.625000,-3.03
16:19:03.640625,-4.42
16:19:03.656250,-4.97
16:19:03.671875,-4.80
16:19:03.687500,-4.25
16:19:03.703125,-3.75
16:19:03.718750,-3.68
16:19:03.734375,-4.24
16:19:03.750000,-5.43
16:19:03.765625,-7.04
16:19:03.781250,-8.68
16:19:03.796875,-9.86
16:19:03.812500,-10.11
16:19:03.828125,-9.09
16:19:03.843750,-6.80
16:19:03.859375,-3.55
16:19:03.875000,0.05
16:19:03.890625,3.33
16:19:03.906250,5.73
16:19:03.921875,6.98
16:19:03.937500,7.11
16:19:03.953125,6.39
16:19:03.968750,5.19
16:19:03.984375,3.82
16:19:04,2.51
16:19:04.015625,1.36
16:19:04.031250,0.38
16:19:04.046875,-0.46
16:19:04.062500,-1.26
16:19:04.078125,-2.13
16:19:04.093750,-3.19
16:19:04.109375,-4.53
16:19:04.125000,-6.08
16:19:04.140625,-7.68
16:19:04.156250,-9.01
16:19:04.171875,-9.75
16:19:04.187500,-9.69
16:19:04.203125,-8.85
16:19:04.218750,-7.47
16:19:04.234375,-5.92
16:19:04.250000,-4.56
16:19:04.265625,-3.56
16:19:04.281250,-2.92
16:19:04.296875,-2.52
16:19:04.312500,-2.21
16:19:04.328125,-1.87
16:19:04.343750,-1.47
16:19:04.359375,-1.00
16:19:04.375000,-0.43
16:19:04.390625,0.25
16:19:04.406250,1.02
16:19:04.421875,1.82
16:19:04.437500,2.54
16:19:04.453125,3.04
16:19:04.468750,3.25
16:19:04.484375,3.15
16:19:04.500000,2.79
16:19:04.515625,2.31
16:19:04.531250,1.85
16:19:04.546875,1.57
16:19:04.562500,1.56
16:19:04.578125,1.77
16:19:04.593750,2.04
16:19:04.609375,2.12
16:19:04.625000,1.81
16:19:04.640625,0.98
16:19:04.656250,-0.30
16:19:04.671875,-1.93
16:19:04.687500,-3.74
16:19:04.703125,-5.65
16:19:04.718750,-7.53
16:19:04.734375,-9.18
16:19:04.750000,-10.27
16:19:04.765625,-10.45
16:19:04.781250,-9.55
16:19:04.796875,-7.72
16:19:04.812500,-5.44
16:19:04.828125,-3.31
16:19:04.843750,-1.87
16:19:04.859375,-1.31
16:19:04.875000,-1.47
16:19:04.890625,-1.96
16:19:04.906250,-2.42
16:19:04.921875,-2.63
16:19:04.937500,-2.58
16:19:04.953125,-2.44
16:19:04.968750,-2.39
16:19:04.984375,-2.52
16:19:05,-2.82
16:19:05.015625,-3.14
16:19:05.031250,-3.31
16:19:05.046875,-3.19
16:19:05.062500,-2.74
16:19:05.078125,-2.08
16:19:05.093750,-1.39
16:19:05.109375,-0.84
16:19:05.125000,-0.48
16:19:05.140625,-0.28
16:19:05.156250,-0.12
16:19:05.171875,0.02
16:19:05.187500,0.10
16:19:05.203125,0.00
16:19:05.218750,-0.36
16:19:05.234375,-0.99
16:19:05.250000,-1.74
16:19:05.265625,-2.41
16:19:05.281250,-2.83
16:19:05.296875,-2.96
16:19:05.312500,-2.86
16:19:05.328125,-2.64
16:19:05.343750,-2.39
16:19:05.359375,-2.18
16:19:05.375000,-2.01
16:19:05.390625,-1.92
16:19:05.406250,-1.96
16:19:05.421875,-2.18
16:19:05.437500,-2.59
16:19:05.453125,-3.13
16:19:05.468750,-3.68
16:19:05.484375,-4.08
16:19:05.500000,-4.27
16:19:05.515625,-4.26
16:19:05.531250,-4.23
16:19:05.546875,-4.37
16:19:05.562500,-4.84
16:19:05.578125,-5.62
16:19:05.593750,-6.56
16:19:05.609375,-7.38
16:19:05.625000,-7.77
16:19:05.640625,-7.49
16:19:05.656250,-6.46
16:19:05.671875,-4.80
16:19:05.687500,-2.79
16:19:05.703125,-0.80
16:19:05.718750,0.84
16:19:05.734375,1.97
16:19:05.750000,2.58
16:19:05.765625,2.82
16:19:05.781250,2.88
16:19:05.796875,2.87
16:19:05.812500,2.86
16:19:05.828125,2.84
16:19:05.843750,2.82
16:19:05.859375,2.83
16:19:05.875000,2.92
16:19:05.890625,3.09
16:19:05.906250,3.27
16:19:05.921875,3.37
16:19:05.937500,3.30
16:19:05.953125,3.07
16:19:05.968750,2.76
16:19:05.984375,2.48
16:19:06,2.31
16:19:06.015625,2.25
16:19:06.031250,2.23
16:19:06.046875,2.18
16:19:06.062500,2.07
16:19:06.078125,1.89
16:19:06.093750,1.65
16:19:06.109375,1.38
16:19:06.125000,1.08
16:19:06.140625,0.79
16:19:06.156250,0.46
16:19:06.171875,0.07
16:19:06.187500,-0.38
16:19:06.203125,-0.93
16:19:06.218750,-1.52
16:19:06.234375,-2.12
16:19:06.250000,-2.65
16:19:06.265625,-3.06
16:19:06.281250,-3.33
16:19:06.296875,-3.46
16:19:06.312500,-3.53
16:19:06.328125,-3.60
16:19:06.343750,-3.72
16:19:06.359375,-3.95
16:19:06.375000,-4.29
16:19:06.390625,-4.71
16:19:06.406250,-5.22
16:19:06.421875,-5.77
16:19:06.437500,-6.39
16:19:06.453125,-7.10
16:19:06.468750,-7.90
16:19:06.484375,-8.71
16:19:06.500000,-9.36
16:19:06.515625,-9.62
16:19:06.531250,-9.27
16:19:06.546875,-8.24
16:19:06.562500,-6.63
16:19:06.578125,-4.68
16:19:06.593750,-2.66
16:19:06.609375,-0.83
16:19:06.625000,0.71
16:19:06.640625,1.92
16:19:06.656250,2.83
16:19:06.671875,3.45
16:19:06.687500,3.77
16:19:06.703125,3.76
16:19:06.718750,3.43
16:19:06.734375,2.85
16:19:06.750000,2.17
16:19:06.765625,1.57
16:19:06.781250,1.22
16:19:06.796875,1.20
16:19:06.812500,1.45
16:19:06.828125,1.82
16:19:06.843750,2.09
16:19:06.859375,2.07
16:19:06.875000,1.72
16:19:06.890625,1.16
16:19:06.906250,0.61
16:19:06.921875,0.32
16:19:06.937500,0.43
16:19:06.953125,0.91
16:19:06.968750,1.59
16:19:06.984375,2.25
16:19:07,2.71
16:19:07.015625,2.88
16:19:07.031250,2.80
16:19:07.046875,2.58
16:19:07.062500,2.34
16:19:07.078125,2.19
16:19:07.093750,2.15
16:19:07.109375,2.22
16:19:07.125000,2.33
16:19:07.140625,2.40
16:19:07.156250,2.36
16:19:07.171875,2.16
16:19:07.187500,1.80
16:19:07.203125,1.35
16:19:07.218750,0.88
16:19:07.234375,0.51
16:19:07.250000,0.27
16:19:07.265625,0.14
16:19:07.281250,-0.01
16:19:07.296875,-0.34
16:19:07.312500,-0.95
16:19:07.328125,-1.81
16:19:07.343750,-2.74
16:19:07.359375,-3.49
16:19:07.375000,-3.79
16:19:07.390625,-3.51
16:19:07.406250,-2.62
16:19:07.421875,-1.23
16:19:07.437500,0.48
16:19:07.453125,2.27
16:19:07.468750,3.89
16:19:07.484375,5.09
16:19:07.500000,5.65
16:19:07.515625,5.52
16:19:07.531250,4.78
16:19:07.546875,3.69
16:19:07.562500,2.61
16:19:07.578125,1.85
16:19:07.593750,1.60
16:19:07.609375,1.88
16:19:07.625000,2.53
16:19:07.640625,3.30
16:19:07.656250,3.90
16:19:07.671875,4.14
16:19:07.687500,3.96
16:19:07.703125,3.46
16:19:07.718750,2.85
16:19:07.734375,2.39
16:19:07.750000,2.23
16:19:07.765625,2.44
16:19:07.781250,2.89
16:19:07.796875,3.33
16:19:07.812500,3.52
16:19:07.828125,3.27
16:19:07.843750,2.55
16:19:07.859375,1.48
16:19:07.875000,0.31
16:19:07.890625,-0.72
16:19:07.906250,-1.43
16:19:07.921875,-1.80
16:19:07.937500,-1.93
16:19:07.953125,-2.07
16:19:07.968750,-2.42
16:19:07.984375,-3.14
16:19:08,-4.22
16:19:08.015625,-5.50
16:19:08.031250,-6.75
16:19:08.046875,-7.65
16:19:08.062500,-7.97
16:19:08.078125,-7.57
16:19:08.093750,-6.49
16:19:08.109375,-4.97
16:19:08.125000,-3.40
16:19:08.140625,-2.22
16:19:08.156250,-1.72
16:19:08.171875,-1.95
16:19:08.187500,-2.62
16:19:08.203125,-3.19
16:19:08.218750,-3.12
16:19:08.234375,-2.04
16:19:08.250000,0.02
16:19:08.265625,2.68
16:19:08.281250,5.35
16:19:08.296875,7.46
16:19:08.312500,8.67
16:19:08.328125,8.97
16:19:08.343750,8.62
16:19:08.359375,8.01
16:19:08.375000,7.45
16:19:08.390625,7.15
16:19:08.406250,7.13
16:19:08.421875,7.29
16:19:08.437500,7.53
16:19:08.453125,7.77
16:19:08.468750,8.04
16:19:08.484375,8.37
16:19:08.500000,8.83
16:19:08.515625,9.44
16:19:08.531250,10.13
16:19:08.546875,10.78
16:19:08.562500,11.24
16:19:08.578125,11.44
16:19:08.593750,11.42
16:19:08.609375,11.34
16:19:08.625000,11.37
16:19:08.640625,11.60
16:19:08.656250,12.01
16:19:08.671875,12.36
16:19:08.687500,12.39
16:19:08.703125,11.87
16:19:08.718750,10.72
16:19:08.734375,9.10
16:19:08.750000,7.32
16:19:08.765625,5.75
16:19:08.781250,4.66
16:19:08.796875,4.18
16:19:08.812500,4.20
16:19:08.828125,4.46
16:19:08.843750,4.64
16:19:08.859375,4.40
16:19:08.875000,3.57
16:19:08.890625,2.14
16:19:08.906250,0.30
16:19:08.921875,-1.60
16:19:08.937500,-3.20
16:19:08.953125,-4.25
16:19:08.968750,-4.70
16:19:08.984375,-4.73
16:19:09,-4.65
16:19:09.015625,-4.80
16:19:09.031250,-5.43
16:19:09.046875,-6.57
16:19:09.062500,-8.13
16:19:09.078125,-9.90
16:19:09.093750,-11.68
16:19:09.109375,-13.25
16:19:09.125000,-14.40
16:19:09.140625,-14.94
16:19:09.156250,-14.72
16:19:09.171875,-13.73
16:19:09.187500,-12.11
16:19:09.203125,-10.21
16:19:09.218750,-8.42
16:19:09.234375,-7.09
16:19:09.250000,-6.40
16:19:09.265625,-6.34
16:19:09.281250,-6.75
16:19:09.296875,-7.38
16:19:09.312500,-8.00
16:19:09.328125,-8.39
16:19:09.343750,-8.44
16:19:09.359375,-8.09
16:19:09.375000,-7.35
16:19:09.390625,-6.28
16:19:09.406250,-4.98
16:19:09.421875,-3.56
16:19:09.437500,-2.14
16:19:09.453125,-0.79
16:19:09.468750,0.37
16:19:09.484375,1.28
16:19:09.500000,1.88
16:19:09.515625,2.17
16:19:09.531250,2.22
16:19:09.546875,2.13
16:19:09.562500,2.01
16:19:09.578125,1.97
16:19:09.593750,2.03
16:19:09.609375,2.17
16:19:09.625000,2.38
16:19:09.640625,2.62
16:19:09.656250,2.91
16:19:09.671875,3.25
16:19:09.687500,3.69
16:19:09.703125,4.20
16:19:09.718750,4.65
16:19:09.734375,4.88
16:19:09.750000,4.72
16:19:09.765625,4.13
16:19:09.781250,3.21
16:19:09.796875,2.23
16:19:09.812500,1.49
16:19:09.828125,1.16
16:19:09.843750,1.21
16:19:09.859375,1.43
16:19:09.875000,1.52
16:19:09.890625,1.29
16:19:09.906250,0.73
16:19:09.921875,-0.09
16:19:09.937500,-0.99
16:19:09.953125,-1.88
16:19:09.968750,-2.71
16:19:09.984375,-3.48
16:19:10,-4.17
16:19:10.015625,-4.72
16:19:10.031250,-5.12
16:19:10.046875,-5.43
16:19:10.062500,-5.82
16:19:10.078125,-6.44
16:19:10.093750,-7.35
16:19:10.109375,-8.39
16:19:10.125000,-9.27
16:19:10.140625,-9.61
16:19:10.156250,-9.15
16:19:10.171875,-7.86
16:19:10.187500,-5.91
16:19:10.203125,-3.66
16:19:10.218750,-1.43
16:19:10.234375,0.47
16:19:10.250000,1.92
16:19:10.265625,2.88
16:19:10.281250,3.43
16:19:10.296875,3.73
16:19:10.312500,3.94
16:19:10.328125,4.21
16:19:10.343750,4.61
16:19:10.359375,5.10
16:19:10.375000,5.58
16:19:10.390625,5.91
16:19:10.406250,6.04
16:19:10.421875,5.99
16:19:10.437500,5.83
16:19:10.453125,5.64
16:19:10.468750,5.42
16:19:10.484375,5.13
16:19:10.500000,4.74
16:19:10.515625,4.25
16:19:10.531250,3.75
16:19:10.546875,3.38
16:19:10.562500,3.27
16:19:10.578125,3.46
16:19:10.593750,3.84
16:19:10.609375,4.23
16:19:10.625000,4.43
16:19:10.640625,4.30
16:19:10.656250,3.85
16:19:10.671875,3.27
16:19:10.687500,2.77
16:19:10.703125,2.55
16:19:10.718750,2.64
16:19:10.734375,2.95
16:19:10.750000,3.24
16:19:10.765625,3.29
16:19:10.781250,2.94
16:19:10.796875,2.19
16:19:10.812500,1.17
16:19:10.828125,0.09
16:19:10.843750,-0.84
16:19:10.859375,-1.43
16:19:10.875000,-1.62
16:19:10.890625,-1.49
16:19:10.906250,-1.23
16:19:10.921875,-1.11
16:19:10.937500,-1.32
16:19:10.953125,-1.89
16:19:10.968750,-2.66
16:19:10.984375,-3.40
16:19:11,-3.88
16:19:11.015625,-4.05
16:19:11.031250,-4.02
16:19:11.046875,-3.93
16:19:11.062500,-3.94
16:19:11.078125,-4.09
16:19:11.093750,-4.33
16:19:11.109375,-4.64
16:19:11.125000,-5.02
16:19:11.140625,-5.49
16:19:11.156250,-6.05
16:19:11.171875,-6.58
16:19:11.187500,-6.84
16:19:11.203125,-6.55
16:19:11.218750,-5.56
16:19:11.234375,-3.89
16:19:11.250000,-1.82
16:19:11.265625,0.24
16:19:11.281250,1.93
16:19:11.296875,3.07
16:19:11.312500,3.70
16:19:11.328125,4.00
16:19:11.343750,4.17
16:19:11.359375,4.34
16:19:11.375000,4.51
16:19:11.390625,4.63
16:19:11.406250,4.66
16:19:11.421875,4.61
16:19:11.437500,4.57
16:19:11.453125,4.64
16:19:11.468750,4.85
16:19:11.484375,5.18
16:19:11.500000,5.54
16:19:11.515625,5.81
16:19:11.531250,5.91
16:19:11.546875,5.86
16:19:11.562500,5.75
16:19:11.578125,5.75
16:19:11.593750,5.96
16:19:11.609375,6.36
16:19:11.625000,6.81
16:19:11.640625,7.05
16:19:11.656250,6.89
16:19:11.671875,6.28
16:19:11.687500,5.39
16:19:11.703125,4.48
16:19:11.718750,3.85
16:19:11.734375,3.61
16:19:11.750000,3.67
16:19:11.765625,3.80
16:19:11.781250,3.75
16:19:11.796875,3.37
16:19:11.812500,2.67
16:19:11.828125,1.80
16:19:11.843750,0.99
16:19:11.859375,0.41
16:19:11.875000,0.10
16:19:11.890625,-0.01
16:19:11.906250,-0.11
16:19:11.921875,-0.35
16:19:11.937500,-0.80
16:19:11.953125,-1.40
16:19:11.968750,-2.06
16:19:11.984375,-2.69
16:19:12,-3.29
16:19:12.015625,-3.91
16:19:12.031250,-4.65
16:19:12.046875,-5.59
16:19:12.062500,-6.74
16:19:12.078125,-8.07
16:19:12.093750,-9.51
16:19:12.109375,-11.00
16:19:12.125000,-12.48
16:19:12.140625,-13.80
16:19:12.156250,-14.74
16:19:12.171875,-15.04
16:19:12.187500,-14.49
16:19:12.203125,-13.09
16:19:12.218750,-11.02
16:19:12.234375,-8.65
16:19:12.250000,-6.37
16:19:12.265625,-4.46
16:19:12.281250,-2.95
16:19:12.296875,-1.69
16:19:12.312500,-0.50
16:19:12.328125,0.73
16:19:12.343750,1.93
16:19:12.359375,2.92
16:19:12.375000,3.60
16:19:12.390625,3.93
16:19:12.406250,4.04
16:19:12.421875,4.02
16:19:12.437500,3.97
16:19:12.453125,3.87
16:19:12.468750,3.70
16:19:12.484375,3.50
16:19:12.500000,3.35
16:19:12.515625,3.32
16:19:12.531250,3.45
16:19:12.546875,3.71
16:19:12.562500,3.99
16:19:12.578125,4.22
16:19:12.593750,4.38
16:19:12.609375,4.48
16:19:12.625000,4.52
16:19:12.640625,4.47
16:19:12.656250,4.29
16:19:12.671875,3.94
16:19:12.687500,3.46
16:19:12.703125,2.96
16:19:12.718750,2.56
16:19:12.734375,2.35
16:19:12.750000,2.35
16:19:12.765625,2.52
16:19:12.781250,2.73
16:19:12.796875,2.85
16:19:12.812500,2.75
16:19:12.828125,2.38
16:19:12.843750,1.77
16:19:12.859375,1.02
16:19:12.875000,0.28
16:19:12.890625,-0.34
16:19:12.906250,-0.82
16:19:12.921875,-1.22
16:19:12.937500,-1.62
16:19:12.953125,-2.04
16:19:12.968750,-2.49
16:19:12.984375,-2.95
16:19:13,-3.42
16:19:13.015625,-3.96
16:19:13.031250,-4.60
16:19:13.046875,-5.35
16:19:13.062500,-6.12
16:19:13.078125,-6.77
16:19:13.093750,-7.22
16:19:13.109375,-7.51
16:19:13.125000,-7.81
16:19:13.140625,-8.28
16:19:13.156250,-8.96
16:19:13.171875,-9.66
16:19:13.187500,-10.06
16:19:13.203125,-9.84
16:19:13.218750,-8.83
16:19:13.234375,-7.10
16:19:13.250000,-4.96
16:19:13.265625,-2.80
16:19:13.281250,-0.89
16:19:13.296875,0.60
16:19:13.312500,1.68
16:19:13.328125,2.44
16:19:13.343750,2.99
16:19:13.359375,3.37
16:19:13.375000,3.59
16:19:13.390625,3.66
16:19:13.406250,3.59
16:19:13.421875,3.44
16:19:13.437500,3.28
16:19:13.453125,3.19
16:19:13.468750,3.22
16:19:13.484375,3.37
16:19:13.500000,3.61
16:19:13.515625,3.86
16:19:13.531250,4.01
16:19:13.546875,3.98
16:19:13.562500,3.75
16:19:13.578125,3.37
16:19:13.593750,2.93
16:19:13.609375,2.55
16:19:13.625000,2.29
16:19:13.640625,2.15
16:19:13.656250,2.06
16:19:13.671875,1.94
16:19:13.687500,1.72
16:19:13.703125,1.38
16:19:13.718750,0.97
16:19:13.734375,0.57
16:19:13.750000,0.26
16:19:13.765625,0.06
16:19:13.781250,-0.06
16:19:13.796875,-0.13
16:19:13.812500,-0.18
16:19:13.828125,-0.19
16:19:13.843750,-0.12
16:19:13.859375,0.06
16:19:13.875000,0.30
16:19:13.890625,0.52
16:19:13.906250,0.61
16:19:13.921875,0.51
16:19:13.937500,0.26
16:19:13.953125,-0.01
16:19:13.968750,-0.18
16:19:13.984375,-0.23
16:19:14,-0.23
16:19:14.015625,-0.34
16:19:14.031250,-0.71
16:19:14.046875,-1.43
16:19:14.062500,-2.49
16:19:14.078125,-3.83
16:19:14.093750,-5.29
16:19:14.109375,-6.70
16:19:14.125000,-7.86
16:19:14.140625,-8.54
16:19:14.156250,-8.55
16:19:14.171875,-7.81
16:19:14.187500,-6.40
16:19:14.203125,-4.52
16:19:14.218750,-2.46
16:19:14.234375,-0.53
16:19:14.250000,1.06
16:19:14.265625,2.23
16:19:14.281250,2.96
16:19:14.296875,3.29
16:19:14.312500,3.31
16:19:14.328125,3.12
16:19:14.343750,2.91
16:19:14.359375,2.88
16:19:14.375000,3.17
16:19:14.390625,3.82
16:19:14.406250,4.66
16:19:14.421875,5.45
16:19:14.437500,5.98
16:19:14.453125,6.13
16:19:14.468750,6.00
16:19:14.484375,5.75
16:19:14.500000,5.56
16:19:14.515625,5.48
16:19:14.531250,5.43
16:19:14.546875,5.29
16:19:14.562500,4.97
16:19:14.578125,4.46
16:19:14.593750,3.84
16:19:14.609375,3.21
16:19:14.625000,2.65
16:19:14.640625,2.19
16:19:14.656250,1.79
16:19:14.671875,1.43
16:19:14.687500,1.04
16:19:14.703125,0.60
16:19:14.718750,0.10
16:19:14.734375,-0.40
16:19:14.750000,-0.83
16:19:14.765625,-1.07
16:19:14.781250,-1.08
16:19:14.796875,-0.89
16:19:14.812500,-0.60
16:19:14.828125,-0.36
16:19:14.843750,-0.33
16:19:14.859375,-0.60
16:19:14.875000,-1.21
16:19:14.890625,-2.09
16:19:14.906250,-3.13
16:19:14.921875,-4.14
16:19:14.937500,-4.94
16:19:14.953125,-5.43
16:19:14.968750,-5.65
16:19:14.984375,-5.76
16:19:15,-6.00
16:19:15.015625,-6.59
16:19:15.031250,-7.59
16:19:15.046875,-8.86
16:19:15.062500,-10.13
16:19:15.078125,-10.99
16:19:15.093750,-11.11
16:19:15.109375,-10.29
16:19:15.125000,-8.58
16:19:15.140625,-6.28
16:19:15.156250,-3.84
16:19:15.171875,-1.69
16:19:15.187500,-0.09
16:19:15.203125,0.94
16:19:15.218750,1.59
16:19:15.234375,2.11
16:19:15.250000,2.69
16:19:15.265625,3.37
16:19:15.281250,4.06
16:19:15.296875,4.63
16:19:15.312500,4.97
16:19:15.328125,5.10
16:19:15.343750,5.08
16:19:15.359375,5.00
16:19:15.375000,4.93
16:19:15.390625,4.94
16:19:15.406250,5.04
16:19:15.421875,5.23
16:19:15.437500,5.48
16:19:15.453125,5.74
16:19:15.468750,5.97
16:19:15.484375,6.14
16:19:15.500000,6.23
16:19:15.515625,6.23
16:19:15.531250,6.09
16:19:15.546875,5.79
16:19:15.562500,5.29
16:19:15.578125,4.65
16:19:15.593750,3.98
16:19:15.609375,3.42
16:19:15.625000,3.06
16:19:15.640625,2.89
16:19:15.656250,2.81
16:19:15.671875,2.68
16:19:15.687500,2.41
16:19:15.703125,2.02
16:19:15.718750,1.60
16:19:15.734375,1.25
16:19:15.750000,1.00
16:19:15.765625,0.76
16:19:15.781250,0.41
16:19:15.796875,-0.15
16:19:15.812500,-0.90
16:19:15.828125,-1.70
16:19:15.843750,-2.39
16:19:15.859375,-2.88
16:19:15.875000,-3.21
16:19:15.890625,-3.57
16:19:15.906250,-4.14
16:19:15.921875,-4.99
16:19:15.937500,-6.07
16:19:15.953125,-7.21
16:19:15.968750,-8.24
16:19:15.984375,-9.07
16:19:16,-9.64
16:19:16.015625,-9.89
16:19:16.031250,-9.73
16:19:16.046875,-9.05
16:19:16.062500,-7.81
16:19:16.078125,-6.11
16:19:16.093750,-4.22
16:19:16.109375,-2.44
16:19:16.125000,-1.03
16:19:16.140625,-0.08
16:19:16.156250,0.52
16:19:16.171875,0.94
16:19:16.187500,1.37
16:19:16.203125,1.93
16:19:16.218750,2.61
16:19:16.234375,3.38
16:19:16.250000,4.15
16:19:16.265625,4.83
16:19:16.281250,5.31
16:19:16.296875,5.48
16:19:16.312500,5.31
16:19:16.328125,4.89
16:19:16.343750,4.40
16:19:16.359375,4.05
16:19:16.375000,3.99
16:19:16.390625,4.22
16:19:16.406250,4.54
16:19:16.421875,4.70
16:19:16.437500,4.53
16:19:16.453125,4.04
16:19:16.468750,3.43
16:19:16.484375,2.95
16:19:16.500000,2.77
16:19:16.515625,2.93
16:19:16.531250,3.30
16:19:16.546875,3.70
16:19:16.562500,3.99
16:19:16.578125,4.13
16:19:16.593750,4.11
16:19:16.609375,3.96
16:19:16.625000,3.69
16:19:16.640625,3.31
16:19:16.656250,2.81
16:19:16.671875,2.21
16:19:16.687500,1.53
16:19:16.703125,0.78
16:19:16.718750,-0.03
16:19:16.734375,-0.89
16:19:16.750000,-1.77
16:19:16.765625,-2.64
16:19:16.781250,-3.49
16:19:16.796875,-4.34
16:19:16.812500,-5.19
16:19:16.828125,-6.06
16:19:16.843750,-6.96
16:19:16.859375,-7.88
16:19:16.875000,-8.84
16:19:16.890625,-9.82
16:19:16.906250,-10.77
16:19:16.921875,-11.53
16:19:16.937500,-11.85
16:19:16.953125,-11.49
16:19:16.968750,-10.33
16:19:16.984375,-8.40
16:19:17,-5.98
16:19:17.015625,-3.41
16:19:17.031250,-1.06
16:19:17.046875,0.81
16:19:17.062500,2.13
16:19:17.078125,2.98
16:19:17.093750,3.53
16:19:17.109375,3.94
16:19:17.125000,4.33
16:19:17.140625,4.71
16:19:17.156250,5.06
16:19:17.171875,5.31
16:19:17.187500,5.46
16:19:17.203125,5.54
16:19:17.218750,5.62
16:19:17.234375,5.76
16:19:17.250000,5.97
16:19:17.265625,6.21
16:19:17.281250,6.41
16:19:17.296875,6.49
16:19:17.312500,6.44
16:19:17.328125,6.27
16:19:17.343750,6.06
16:19:17.359375,5.83
16:19:17.375000,5.61
16:19:17.390625,5.34
16:19:17.406250,4.98
16:19:17.421875,4.51
16:19:17.437500,3.96
16:19:17.453125,3.44
16:19:17.468750,3.03
16:19:17.484375,2.78
16:19:17.500000,2.60
16:19:17.515625,2.36
16:19:17.531250,1.90
16:19:17.546875,1.18
16:19:17.562500,0.30
16:19:17.578125,-0.53
16:19:17.593750,-1.08
16:19:17.609375,-1.27
16:19:17.625000,-1.19
16:19:17.640625,-1.08
16:19:17.656250,-1.18
16:19:17.671875,-1.68
16:19:17.687500,-2.57
16:19:17.703125,-3.69
16:19:17.718750,-4.79
16:19:17.734375,-5.66
16:19:17.750000,-6.24
16:19:17.765625,-6.61
16:19:17.781250,-6.99
16:19:17.796875,-7.56
16:19:17.812500,-8.42
16:19:17.828125,-9.47
16:19:17.843750,-10.47
16:19:17.859375,-11.10
16:19:17.875000,-11.09
16:19:17.890625,-10.28
16:19:17.906250,-8.73
16:19:17.921875,-6.66
16:19:17.937500,-4.34
16:19:17.953125,-2.07
16:19:17.968750,-0.07
16:19:17.984375,1.54
16:19:18,2.72
16:19:18.015625,3.50
16:19:18.031250,3.96
16:19:18.046875,4.16
16:19:18.062500,4.19
16:19:18.078125,4.11
16:19:18.093750,4.02
16:19:18.109375,3.94
16:19:18.125000,3.88
16:19:18.140625,3.85
16:19:18.156250,3.83
16:19:18.171875,3.88
16:19:18.187500,4.03
16:19:18.203125,4.36
16:19:18.218750,4.86
16:19:18.234375,5.46
16:19:18.250000,6.04
16:19:18.265625,6.48
16:19:18.281250,6.71
16:19:18.296875,6.70
16:19:18.312500,6.54
16:19:18.328125,6.28
16:19:18.343750,5.94
16:19:18.359375,5.45
16:19:18.375000,4.78
16:19:18.390625,3.89
16:19:18.406250,2.89
16:19:18.421875,1.90
16:19:18.437500,1.03
16:19:18.453125,0.34
16:19:18.468750,-0.19
16:19:18.484375,-0.61
16:19:18.500000,-0.96
16:19:18.515625,-1.17
16:19:18.531250,-1.20
16:19:18.546875,-1.01
16:19:18.562500,-0.65
16:19:18.578125,-0.27
16:19:18.593750,-0.00
