13:27:03,-0.00
13:27:03.015625,-0.00
13:27:03.031250,-0.00
13:27:03.046875,-0.00
13:27:03.062500,-0.00
13:27:03.078125,-0.00
13:27:03.093750,-0.00
13:27:03.109375,-0.00
13:27:03.125000,-0.00
13:27:03.140625,-0.01
13:27:03.156250,-0.00
13:27:03.171875,0.00
13:27:03.187500,0.01
13:27:03.203125,0.01
13:27:03.218750,-0.00
13:27:03.234375,-0.03
13:27:03.250000,-0.05
13:27:03.265625,-0.05
13:27:03.281250,-0.00
13:27:03.296875,0.13
13:27:03.312500,0.36
13:27:03.328125,0.66
13:27:03.343750,1.01
13:27:03.359375,1.37
13:27:03.375000,1.72
13:27:03.390625,2.06
13:27:03.406250,2.40
13:27:03.421875,2.77
13:27:03.437500,3.24
13:27:03.453125,3.80
13:27:03.468750,4.42
13:27:03.484375,5.06
13:27:03.500000,5.66
13:27:03.515625,6.20
13:27:03.531250,6.68
13:27:03.546875,7.15
13:27:03.562500,7.64
13:27:03.578125,8.31
13:27:03.593750,9.14
13:27:03.609375,10.09
13:27:03.625000,11.04
13:27:03.640625,11.88
13:27:03.656250,12.56
13:27:03.671875,13.14
13:27:03.687500,13.76
13:27:03.703125,14.58
13:27:03.718750,15.96
13:27:03.734375,17.91
13:27:03.750000,20.32
13:27:03.765625,22.90
13:27:03.781250,25.38
13:27:03.796875,27.58
13:27:03.812500,29.57
13:27:03.828125,31.68
13:27:03.843750,34.20
13:27:03.859375,37.81
13:27:03.875000,42.54
13:27:03.890625,48.15
13:27:03.906250,54.10
13:27:03.921875,59.83
13:27:03.937500,64.97
13:27:03.953125,69.58
13:27:03.968750,74.14
13:27:03.984375,79.19
13:27:04,85.71
13:27:04.015625,93.76
13:27:04.031250,103.00
13:27:04.046875,112.62
13:27:04.062500,121.73
13:27:04.078125,129.77
13:27:04.093750,136.75
13:27:04.109375,144.29
13:27:04.125000,150.58
13:27:04.140625,157.77
13:27:04.156250,166.64
13:27:04.171875,177.95
13:27:04.187500,191.79
13:27:04.203125,206.97
13:27:04.218750,220.57
13:27:04.234375,228.25
13:27:04.250000,225.36
13:27:04.265625,208.37
13:27:04.281250,176.87
13:27:04.296875,132.76
13:27:04.312500,80.05
13:27:04.328125,23.07
13:27:04.343750,-34.94
13:27:04.359375,-92.44
13:27:04.375000,-149.16
13:27:04.390625,-205.23
13:27:04.406250,-260.49
13:27:04.421875,-313.74
13:27:04.437500,-363.87
13:27:04.453125,-409.83
13:27:04.468750,-450.91
13:27:04.484375,-486.50
13:27:04.500000,-515.74
13:27:04.515625,-537.23
13:27:04.531250,-549.22
13:27:04.546875,-550.04
13:27:04.562500,-538.37
13:27:04.578125,-514.20
13:27:04.593750,-478.67
13:27:04.609375,-433.88
13:27:04.625000,-382.45
13:27:04.640625,-327.02
13:27:04.656250,-269.84
13:27:04.671875,-212.63
13:27:04.687500,-156.70
13:27:04.703125,-102.95
13:27:04.718750,-52.37
13:27:04.734375,-5.90
13:27:04.750000,35.58
13:27:04.765625,71.43
13:27:04.781250,101.35
13:27:04.796875,125.50
13:27:04.812500,144.38
13:27:04.828125,158.68
13:27:04.843750,169.15
13:27:04.859375,176.37
13:27:04.875000,180.75
13:27:04.890625,182.57
13:27:04.906250,182.07
13:27:04.921875,179.51
13:27:04.937500,175.23
13:27:04.953125,169.65
13:27:04.968750,163.18
13:27:04.984375,156.15
13:27:05,148.81
13:27:05.015625,141.30
13:27:05.031250,133.69
13:27:05.046875,126.02
13:27:05.062500,118.33
13:27:05.078125,110.69
13:27:05.093750,103.16
13:27:05.109375,95.80
13:27:05.125000,88.68
13:27:05.140625,81.83
13:27:05.156250,75.25
13:27:05.171875,68.95
13:27:05.187500,62.95
13:27:05.203125,57.25
13:27:05.218750,51.86
13:27:05.234375,46.78
13:27:05.250000,42.03
13:27:05.265625,37.59
13:27:05.281250,33.45
13:27:05.296875,29.61
13:27:05.312500,26.07
13:27:05.328125,22.81
13:27:05.343750,19.82
13:27:05.359375,17.11
13:27:05.375000,14.67
13:27:05.390625,12.48
13:27:05.406250,10.54
13:27:05.421875,8.83
13:27:05.437500,7.35
13:27:05.453125,6.07
13:27:05.468750,4.97
13:27:05.484375,4.05
13:27:05.500000,3.27
13:27:05.515625,2.62
13:27:05.531250,2.09
13:27:05.546875,1.65
13:27:05.562500,1.30
13:27:05.578125,1.01
13:27:05.593750,0.79
13:27:05.609375,0.61
13:27:05.625000,0.47
13:27:05.640625,0.37
13:27:05.656250,0.29
13:27:05.671875,0.23
13:27:05.687500,0.18
13:27:05.703125,0.16
13:27:05.718750,0.14
13:27:05.734375,0.13
13:27:05.750000,0.14
13:27:05.765625,0.15
13:27:05.781250,0.17
13:27:05.796875,0.19
13:27:05.812500,0.22
13:27:05.828125,0.26
13:27:05.843750,0.29
13:27:05.859375,0.34
13:27:05.875000,0.38
13:27:05.890625,0.42
13:27:05.906250,0.46
13:27:05.921875,0.51
13:27:05.937500,0.56
13:27:05.953125,0.61
13:27:05.968750,0.66
13:27:05.984375,0.72
13:27:06,0.78
13:27:06.015625,0.85
13:27:06.031250,0.92
13:27:06.046875,1.00
13:27:06.062500,1.09
13:27:06.078125,1.19
13:27:06.093750,1.30
13:27:06.109375,1.42
13:27:06.125000,1.56
13:27:06.140625,1.72
13:27:06.156250,1.89
13:27:06.171875,2.09
13:27:06.187500,2.30
13:27:06.203125,2.54
13:27:06.218750,2.79
13:27:06.234375,3.09
13:27:06.250000,3.40
13:27:06.265625,3.75
13:27:06.281250,4.13
13:27:06.296875,4.55
13:27:06.312500,5.00
13:27:06.328125,5.48
13:27:06.343750,6.00
13:27:06.359375,6.57
13:27:06.375000,7.17
13:27:06.390625,7.82
13:27:06.406250,8.50
13:27:06.421875,9.23
13:27:06.437500,10.00
13:27:06.453125,10.82
13:27:06.468750,11.68
13:27:06.484375,12.59
13:27:06.500000,13.56
13:27:06.515625,14.59
13:27:06.531250,15.67
13:27:06.546875,16.78
13:27:06.562500,17.92
13:27:06.578125,19.06
13:27:06.593750,20.20
13:27:06.609375,21.28
13:27:06.625000,22.27
13:27:06.640625,23.08
13:27:06.656250,23.57
13:27:06.671875,23.60
13:27:06.687500,23.05
13:27:06.703125,21.80
13:27:06.718750,19.81
13:27:06.734375,17.10
13:27:06.750000,13.74
13:27:06.765625,9.84
13:27:06.781250,5.58
13:27:06.796875,1.13
13:27:06.812500,-3.34
13:27:06.828125,-7.67
13:27:06.843750,-11.69
13:27:06.859375,-15.25
13:27:06.875000,-18.19
13:27:06.890625,-20.39
13:27:06.906250,-21.79
13:27:06.921875,-22.41
13:27:06.937500,-22.38
13:27:06.953125,-21.92
13:27:06.968750,-21.26
13:27:06.984375,-20.58
13:27:07,-19.98
13:27:07.015625,-19.41
13:27:07.031250,-18.76
13:27:07.046875,-17.89
13:27:07.062500,-16.75
13:27:07.078125,-15.45
13:27:07.093750,-14.21
13:27:07.109375,-13.28
13:27:07.125000,-12.82
13:27:07.140625,-12.79
13:27:07.156250,-12.97
13:27:07.171875,-13.01
13:27:07.187500,-12.60
13:27:07.203125,-11.61
13:27:07.218750,-10.26
13:27:07.234375,-8.99
13:27:07.250000,-8.25
13:27:07.265625,-8.37
13:27:07.281250,-9.33
13:27:07.296875,-10.79
13:27:07.312500,-12.20
13:27:07.328125,-13.09
13:27:07.343750,-13.25
13:27:07.359375,-12.84
13:27:07.375000,-12.30
13:27:07.390625,-12.07
13:27:07.406250,-12.58
13:27:07.421875,-14.07
13:27:07.437500,-16.68
13:27:07.453125,-20.21
13:27:07.468750,-23.96
13:27:07.484375,-26.55
13:27:07.500000,-26.34
13:27:07.515625,-21.77
13:27:07.531250,-12.28
13:27:07.546875,1.25
13:27:07.562500,16.57
13:27:07.578125,30.87
13:27:07.593750,41.87
13:27:07.609375,48.65
13:27:07.625000,51.82
13:27:07.640625,52.83
13:27:07.656250,53.26
13:27:07.671875,53.98
13:27:07.687500,55.04
13:27:07.703125,55.88
13:27:07.718750,55.90
13:27:07.734375,54.74
13:27:07.750000,52.34
13:27:07.765625,49.63
13:27:07.781250,46.88
13:27:07.796875,44.02
13:27:07.812500,40.72
13:27:07.828125,36.70
13:27:07.843750,32.05
13:27:07.859375,27.35
13:27:07.875000,23.48
13:27:07.890625,21.17
13:27:07.906250,20.55
13:27:07.921875,20.85
13:27:07.937500,20.80
13:27:07.953125,19.12
13:27:07.968750,15.10
13:27:07.984375,8.80
13:27:08,0.96
13:27:08.015625,-7.44
13:27:08.031250,-15.62
13:27:08.046875,-23.21
13:27:08.062500,-30.29
13:27:08.078125,-37.02
13:27:08.093750,-43.43
13:27:08.109375,-49.37
13:27:08.125000,-54.60
13:27:08.140625,-59.06
13:27:08.156250,-62.90
13:27:08.171875,-66.53
13:27:08.187500,-70.34
13:27:08.203125,-74.54
13:27:08.218750,-78.93
13:27:08.234375,-82.91
13:27:08.250000,-85.64
13:27:08.265625,-86.28
13:27:08.281250,-84.24
13:27:08.296875,-79.32
13:27:08.312500,-71.73
13:27:08.328125,-61.99
13:27:08.343750,-50.84
13:27:08.359375,-39.11
13:27:08.375000,-27.58
13:27:08.390625,-17.01
13:27:08.406250,-8.08
13:27:08.421875,-1.43
13:27:08.437500,2.53
13:27:08.453125,3.64
13:27:08.468750,2.18
13:27:08.484375,-1.21
13:27:08.500000,-5.61
13:27:08.515625,-10.09
13:27:08.531250,-13.92
13:27:08.546875,-16.70
13:27:08.562500,-18.24
13:27:08.578125,-18.56
13:27:08.593750,-17.70
13:27:08.609375,-15.83
13:27:08.625000,-13.28
13:27:08.640625,-10.66
13:27:08.656250,-8.71
13:27:08.671875,-8.16
13:27:08.687500,-9.48
13:27:08.703125,-12.68
13:27:08.718750,-17.40
13:27:08.734375,-23.00
13:27:08.750000,-28.84
13:27:08.765625,-34.31
13:27:08.781250,-38.95
13:27:08.796875,-42.40
13:27:08.812500,-44.38
13:27:08.828125,-44.71
13:27:08.843750,-43.43
13:27:08.859375,-40.78
13:27:08.875000,-37.20
13:27:08.890625,-33.22
13:27:08.906250,-29.25
13:27:08.921875,-25.53
13:27:08.937500,-22.05
13:27:08.953125,-18.72
13:27:08.968750,-15.34
13:27:08.984375,-11.73
13:27:09,-7.68
13:27:09.015625,-2.89
13:27:09.031250,2.95
13:27:09.046875,10.14
13:27:09.062500,18.74
13:27:09.078125,28.49
13:27:09.093750,38.69
13:27:09.109375,48.25
13:27:09.125000,56.00
13:27:09.140625,60.92
13:27:09.156250,62.46
13:27:09.171875,60.69
13:27:09.187500,56.25
13:27:09.203125,50.19
13:27:09.218750,43.63
13:27:09.234375,37.55
13:27:09.250000,32.59
13:27:09.265625,29.11
13:27:09.281250,27.23
13:27:09.296875,26.95
13:27:09.312500,28.13
13:27:09.328125,30.33
13:27:09.343750,32.84
13:27:09.359375,34.60
13:27:09.375000,34.60
13:27:09.390625,32.18
13:27:09.406250,27.52
13:27:09.421875,21.61
13:27:09.437500,16.00
13:27:09.453125,12.15
13:27:09.468750,10.82
13:27:09.484375,11.68
13:27:09.500000,13.37
13:27:09.515625,14.00
13:27:09.531250,11.79
13:27:09.546875,5.65
13:27:09.562500,-4.56
13:27:09.578125,-17.96
13:27:09.593750,-32.89
13:27:09.609375,-47.24
13:27:09.625000,-58.92
13:27:09.640625,-66.33
13:27:09.656250,-68.80
13:27:09.671875,-66.66
13:27:09.687500,-61.07
13:27:09.703125,-53.45
13:27:09.718750,-45.02
13:27:09.734375,-36.42
13:27:09.750000,-27.69
13:27:09.765625,-18.62
13:27:09.781250,-9.12
13:27:09.796875,0.47
13:27:09.812500,9.31
13:27:09.828125,16.35
13:27:09.843750,20.67
13:27:09.859375,21.87
13:27:09.875000,20.31
13:27:09.890625,17.00
13:27:09.906250,13.39
13:27:09.921875,10.92
13:27:09.937500,10.63
13:27:09.953125,12.88
13:27:09.968750,17.31
13:27:09.984375,23.09
13:27:10,29.11
13:27:10.015625,34.23
13:27:10.031250,37.34
13:27:10.046875,37.49
13:27:10.062500,33.93
13:27:10.078125,26.49
13:27:10.093750,15.75
13:27:10.109375,3.24
13:27:10.125000,-8.85
13:27:10.140625,-18.23
13:27:10.156250,-23.14
13:27:10.171875,-22.98
13:27:10.187500,-18.50
13:27:10.203125,-11.52
13:27:10.218750,-4.50
13:27:10.234375,0.15
13:27:10.250000,0.72
13:27:10.265625,-3.36
13:27:10.281250,-11.29
13:27:10.296875,-21.08
13:27:10.312500,-30.00
13:27:10.328125,-35.47
13:27:10.343750,-35.83
13:27:10.359375,-30.97
13:27:10.375000,-22.31
13:27:10.390625,-12.32
13:27:10.406250,-3.67
13:27:10.421875,1.60
13:27:10.437500,2.60
13:27:10.453125,-0.27
13:27:10.468750,-5.67
13:27:10.484375,-11.70
13:27:10.500000,-16.49
13:27:10.515625,-18.63
13:27:10.531250,-17.42
13:27:10.546875,-12.98
13:27:10.562500,-6.11
13:27:10.578125,2.13
13:27:10.593750,10.74
13:27:10.609375,19.09
13:27:10.625000,26.97
13:27:10.640625,34.40
13:27:10.656250,41.47
13:27:10.671875,48.21
13:27:10.687500,54.49
13:27:10.703125,60.13
13:27:10.718750,64.92
13:27:10.734375,68.52
13:27:10.750000,70.53
13:27:10.765625,70.54
13:27:10.781250,68.22
13:27:10.796875,63.55
13:27:10.812500,56.94
13:27:10.828125,49.20
13:27:10.843750,41.44
13:27:10.859375,34.78
13:27:10.875000,30.11
13:27:10.890625,27.90
13:27:10.906250,28.01
13:27:10.921875,29.68
13:27:10.937500,31.62
13:27:10.953125,32.40
13:27:10.968750,30.75
13:27:10.984375,26.05
13:27:11,18.49
13:27:11.015625,9.05
13:27:11.031250,-0.78
13:27:11.046875,-9.39
13:27:11.062500,-15.47
13:27:11.078125,-18.27
13:27:11.093750,-17.67
13:27:11.109375,-14.23
13:27:11.125000,-9.08
13:27:11.140625,-3.71
13:27:11.156250,0.31
13:27:11.171875,1.68
13:27:11.187500,-0.26
13:27:11.203125,-5.40
13:27:11.218750,-12.92
13:27:11.234375,-21.55
13:27:11.250000,-30.00
13:27:11.265625,-37.22
13:27:11.281250,-42.49
13:27:11.296875,-45.49
13:27:11.312500,-46.20
13:27:11.328125,-44.82
13:27:11.343750,-41.75
13:27:11.359375,-37.46
13:27:11.375000,-32.39
13:27:11.390625,-26.78
13:27:11.406250,-20.60
13:27:11.421875,-13.62
13:27:11.437500,-5.61
13:27:11.453125,3.45
13:27:11.468750,13.20
13:27:11.484375,22.89
13:27:11.500000,31.66
13:27:11.515625,38.76
13:27:11.531250,43.80
13:27:11.546875,46.80
13:27:11.562500,48.12
13:27:11.578125,48.21
13:27:11.593750,47.46
13:27:11.609375,46.20
13:27:11.625000,44.70
13:27:11.640625,43.29
13:27:11.656250,42.41
13:27:11.671875,42.48
13:27:11.687500,43.70
13:27:11.703125,45.83
13:27:11.718750,48.21
13:27:11.734375,49.92
13:27:11.750000,50.06
13:27:11.765625,48.07
13:27:11.781250,43.83
13:27:11.796875,37.75
13:27:11.812500,30.59
13:27:11.828125,23.34
13:27:11.843750,16.98
13:27:11.859375,12.34
13:27:11.875000,9.91
13:27:11.890625,9.72
13:27:11.906250,11.44
13:27:11.921875,14.42
13:27:11.937500,17.85
13:27:11.953125,20.92
13:27:11.968750,22.91
13:27:11.984375,23.21
13:27:12,21.48
13:27:12.015625,17.66
13:27:12.031250,12.03
13:27:12.046875,5.24
13:27:12.062500,-1.84
13:27:12.078125,-8.32
13:27:12.093750,-13.52
13:27:12.109375,-17.16
13:27:12.125000,-19.49
13:27:12.140625,-21.10
13:27:12.156250,-22.75
13:27:12.171875,-24.96
13:27:12.187500,-27.75
13:27:12.203125,-30.64
13:27:12.218750,-32.86
13:27:12.234375,-33.69
13:27:12.250000,-32.88
13:27:12.265625,-30.71
13:27:12.281250,-27.80
13:27:12.296875,-24.69
13:27:12.312500,-21.50
13:27:12.328125,-17.87
13:27:12.343750,-13.18
13:27:12.359375,-7.01
13:27:12.375000,0.48
13:27:12.390625,8.53
13:27:12.406250,16.05
13:27:12.421875,22.04
13:27:12.437500,25.92
13:27:12.453125,27.73
13:27:12.468750,27.91
13:27:12.484375,26.99
13:27:12.500000,25.40
13:27:12.515625,23.30
13:27:12.531250,20.69
13:27:12.546875,17.54
13:27:12.562500,14.02
13:27:12.578125,10.42
13:27:12.593750,7.15
13:27:12.609375,4.50
13:27:12.625000,2.53
13:27:12.640625,1.12
13:27:12.656250,0.07
13:27:12.671875,-0.72
13:27:12.687500,-1.15
13:27:12.703125,-0.97
13:27:12.718750,0.10
13:27:12.734375,2.09
13:27:12.750000,4.76
13:27:12.765625,7.57
13:27:12.781250,9.80
13:27:12.796875,10.86
13:27:12.812500,10.41
13:27:12.828125,8.50
13:27:12.843750,5.53
13:27:12.859375,2.14
13:27:12.875000,-0.99
13:27:12.890625,-3.34
13:27:12.906250,-4.65
13:27:12.921875,-4.96
13:27:12.937500,-4.62
13:27:12.953125,-4.10
13:27:12.968750,-3.89
13:27:12.984375,-4.31
13:27:13,-5.48
13:27:13.015625,-7.33
13:27:13.031250,-9.73
13:27:13.046875,-12.70
13:27:13.062500,-16.41
13:27:13.078125,-21.12
13:27:13.093750,-26.91
13:27:13.109375,-33.38
13:27:13.125000,-39.52
13:27:13.140625,-43.86
13:27:13.156250,-44.90
13:27:13.171875,-41.71
13:27:13.187500,-34.21
13:27:13.203125,-23.27
13:27:13.218750,-10.37
13:27:13.234375,2.89
13:27:13.250000,15.20
13:27:13.265625,25.86
13:27:13.281250,34.71
13:27:13.296875,42.00
13:27:13.312500,48.18
13:27:13.328125,53.66
13:27:13.343750,58.62
13:27:13.359375,62.96
13:27:13.375000,66.40
13:27:13.390625,68.53
13:27:13.406250,69.05
13:27:13.421875,67.85
13:27:13.437500,65.01
13:27:13.453125,60.71
13:27:13.468750,55.11
13:27:13.484375,48.38
13:27:13.500000,40.70
13:27:13.515625,32.49
13:27:13.531250,24.40
13:27:13.546875,17.29
13:27:13.562500,11.93
13:27:13.578125,8.82
13:27:13.593750,8.06
13:27:13.609375,9.34
13:27:13.625000,12.08
13:27:13.640625,15.58
13:27:13.656250,19.17
13:27:13.671875,22.22
13:27:13.687500,24.17
13:27:13.703125,24.58
13:27:13.718750,23.22
13:27:13.734375,20.07
13:27:13.750000,15.36
13:27:13.765625,9.52
13:27:13.781250,3.06
13:27:13.796875,-3.53
13:27:13.812500,-9.91
13:27:13.828125,-15.80
13:27:13.843750,-21.07
13:27:13.859375,-25.69
13:27:13.875000,-29.78
13:27:13.890625,-33.60
13:27:13.906250,-37.49
13:27:13.921875,-41.82
13:27:13.937500,-46.82
13:27:13.953125,-52.53
13:27:13.968750,-58.71
13:27:13.984375,-64.88
13:27:14,-70.47
13:27:14.015625,-74.99
13:27:14.031250,-78.15
13:27:14.046875,-79.83
13:27:14.062500,-80.06
13:27:14.078125,-78.89
13:27:14.093750,-76.33
13:27:14.109375,-72.42
13:27:14.125000,-67.27
13:27:14.140625,-61.23
13:27:14.156250,-54.85
13:27:14.171875,-48.84
13:27:14.187500,-43.82
13:27:14.203125,-40.16
13:27:14.218750,-37.87
13:27:14.234375,-36.68
13:27:14.250000,-36.21
13:27:14.265625,-36.13
13:27:14.281250,-36.25
13:27:14.296875,-36.47
13:27:14.312500,-36.72
13:27:14.328125,-36.86
13:27:14.343750,-36.69
13:27:14.359375,-36.07
13:27:14.375000,-34.99
13:27:14.390625,-33.63
13:27:14.406250,-32.33
13:27:14.421875,-31.36
13:27:14.437500,-30.85
13:27:14.453125,-30.78
13:27:14.468750,-31.01
13:27:14.484375,-31.24
13:27:14.500000,-31.07
13:27:14.515625,-29.88
13:27:14.531250,-26.87
13:27:14.546875,-21.34
13:27:14.562500,-13.07
13:27:14.578125,-2.76
13:27:14.593750,7.71
13:27:14.609375,15.66
13:27:14.625000,18.43
13:27:14.640625,14.36
13:27:14.656250,3.72
13:27:14.671875,-11.11
13:27:14.687500,-26.33
13:27:14.703125,-37.78
13:27:14.718750,-42.37
13:27:14.734375,-39.05
13:27:14.750000,-29.17
13:27:14.765625,-16.03
13:27:14.781250,-4.18
13:27:14.796875,2.03
13:27:14.812500,-0.47
13:27:14.828125,-12.60
13:27:14.843750,-32.63
13:27:14.859375,-56.49
13:27:14.875000,-78.75
13:27:14.890625,-94.22
13:27:14.906250,-99.51
13:27:14.921875,-94.03
13:27:14.937500,-79.67
13:27:14.953125,-59.70
13:27:14.968750,-37.38
13:27:14.984375,-14.91
13:27:15,6.41
13:27:15.015625,25.70
13:27:15.031250,41.73
13:27:15.046875,53.02
13:27:15.062500,58.41
13:27:15.078125,58.06
13:27:15.093750,53.71
13:27:15.109375,48.23
13:27:15.125000,44.45
13:27:15.140625,44.07
13:27:15.156250,47.17
13:27:15.171875,52.61
13:27:15.187500,58.87
13:27:15.203125,64.75
13:27:15.218750,69.72
13:27:15.234375,73.63
13:27:15.250000,76.39
13:27:15.265625,77.87
13:27:15.281250,77.57
13:27:15.296875,74.93
13:27:15.312500,69.45
13:27:15.328125,61.00
13:27:15.343750,49.93
13:27:15.359375,37.15
13:27:15.375000,23.99
13:27:15.390625,11.89
13:27:15.406250,2.04
13:27:15.421875,-4.96
13:27:15.437500,-9.20
13:27:15.453125,-11.28
13:27:15.468750,-12.05
13:27:15.484375,-12.38
13:27:15.500000,-12.89
13:27:15.515625,-14.02
13:27:15.531250,-15.91
13:27:15.546875,-18.51
13:27:15.562500,-21.49
13:27:15.578125,-24.40
13:27:15.593750,-26.90
13:27:15.609375,-29.01
13:27:15.625000,-31.29
13:27:15.640625,-34.72
13:27:15.656250,-40.30
13:27:15.671875,-48.46
13:27:15.687500,-58.70
13:27:15.703125,-69.50
13:27:15.718750,-78.73
13:27:15.734375,-84.39
13:27:15.750000,-85.31
13:27:15.765625,-81.58
13:27:15.781250,-74.43
13:27:15.796875,-65.67
13:27:15.812500,-56.98
13:27:15.828125,-49.31
13:27:15.843750,-42.69
13:27:15.859375,-36.42
13:27:15.875000,-29.65
13:27:15.890625,-21.82
13:27:15.906250,-13.08
13:27:15.921875,-4.13
13:27:15.937500,4.06
13:27:15.953125,10.65
13:27:15.968750,15.37
13:27:15.984375,18.42
13:27:16,20.43
13:27:16.015625,22.02
13:27:16.031250,23.61
13:27:16.046875,25.29
13:27:16.062500,26.88
13:27:16.078125,28.15
13:27:16.093750,29.01
13:27:16.109375,29.55
13:27:16.125000,30.04
13:27:16.140625,30.77
13:27:16.156250,31.81
13:27:16.171875,33.03
13:27:16.187500,34.01
13:27:16.203125,34.35
13:27:16.218750,33.73
13:27:16.234375,32.16
13:27:16.250000,30.01
13:27:16.265625,27.91
13:27:16.281250,26.54
13:27:16.296875,26.40
13:27:16.312500,27.61
13:27:16.328125,29.81
13:27:16.343750,32.21
13:27:16.359375,33.73
13:27:16.375000,33.23
13:27:16.390625,29.78
13:27:16.406250,23.05
13:27:16.421875,13.46
13:27:16.437500,2.25
13:27:16.453125,-8.94
13:27:16.468750,-18.48
13:27:16.484375,-25.27
13:27:16.500000,-28.98
13:27:16.515625,-30.11
13:27:16.531250,-29.72
13:27:16.546875,-29.14
13:27:16.562500,-29.48
13:27:16.578125,-31.33
13:27:16.593750,-34.47
13:27:16.609375,-37.98
13:27:16.625000,-40.58
13:27:16.640625,-41.14
13:27:16.656250,-39.02
13:27:16.671875,-34.23
13:27:16.687500,-27.27
13:27:16.703125,-18.82
13:27:16.718750,-9.49
13:27:16.734375,0.34
13:27:16.750000,10.44
13:27:16.765625,20.55
13:27:16.781250,30.36
13:27:16.796875,39.54
13:27:16.812500,47.89
13:27:16.828125,55.36
13:27:16.843750,61.99
13:27:16.859375,67.75
13:27:16.875000,72.35
13:27:16.890625,75.36
13:27:16.906250,76.43
13:27:16.921875,75.50
13:27:16.937500,72.97
13:27:16.953125,69.52
13:27:16.968750,65.84
13:27:16.984375,62.37
13:27:17,59.21
13:27:17.015625,56.16
13:27:17.031250,53.01
13:27:17.046875,49.73
13:27:17.062500,46.57
13:27:17.078125,43.92
13:27:17.093750,42.05
13:27:17.109375,40.93
13:27:17.125000,40.21
13:27:17.140625,39.42
13:27:17.156250,38.14
13:27:17.171875,36.15
13:27:17.187500,33.45
13:27:17.203125,30.23
13:27:17.218750,26.66
13:27:17.234375,22.96
13:27:17.250000,19.35
13:27:17.265625,16.06
13:27:17.281250,13.39
13:27:17.296875,11.50
13:27:17.312500,10.23
13:27:17.328125,8.94
13:27:17.343750,6.45
13:27:17.359375,1.38
13:27:17.375000,-7.17
13:27:17.390625,-19.09
13:27:17.406250,-32.95
13:27:17.421875,-46.29
13:27:17.437500,-56.41
13:27:17.453125,-61.30
13:27:17.468750,-60.23
13:27:17.484375,-53.95
13:27:17.500000,-44.23
13:27:17.515625,-33.25
13:27:17.531250,-22.88
13:27:17.546875,-14.23
13:27:17.562500,-7.63
13:27:17.578125,-2.71
13:27:17.593750,1.24
13:27:17.609375,4.94
13:27:17.625000,8.75
13:27:17.640625,12.47
13:27:17.656250,15.48
13:27:17.671875,17.02
13:27:17.687500,16.65
13:27:17.703125,14.55
13:27:17.718750,11.45
13:27:17.734375,8.30
13:27:17.750000,5.71
13:27:17.765625,3.69
13:27:17.781250,1.75
13:27:17.796875,-0.80
13:27:17.812500,-4.41
13:27:17.828125,-9.03
13:27:17.843750,-14.07
13:27:17.859375,-18.70
13:27:17.875000,-22.04
13:27:17.890625,-23.47
13:27:17.906250,-22.73
13:27:17.921875,-20.03
13:27:17.937500,-15.99
13:27:17.953125,-11.52
13:27:17.968750,-7.53
13:27:17.984375,-4.57
13:27:18,-2.50
13:27:18.015625,-0.54
13:27:18.031250,2.34
13:27:18.046875,6.78
13:27:18.062500,12.50
13:27:18.078125,18.18
13:27:18.093750,21.83
13:27:18.109375,21.47
13:27:18.125000,15.94
13:27:18.140625,5.35
13:27:18.156250,-8.76
13:27:18.171875,-23.70
13:27:18.187500,-36.21
13:27:18.203125,-43.23
13:27:18.218750,-42.66
13:27:18.234375,-33.92
13:27:18.250000,-18.30
13:27:18.265625,1.27
13:27:18.281250,20.90
13:27:18.296875,36.91
13:27:18.312500,46.87
13:27:18.328125,50.42
13:27:18.343750,49.30
13:27:18.359375,46.73
13:27:18.375000,46.34
13:27:18.390625,51.06
13:27:18.406250,62.33
13:27:18.421875,79.71
13:27:18.437500,101.13
13:27:18.453125,123.30
13:27:18.468750,142.46
13:27:18.484375,155.05
13:27:18.500000,158.47
13:27:18.515625,151.57
13:27:18.531250,134.93
13:27:18.546875,110.78
13:27:18.562500,82.34
13:27:18.578125,53.19
13:27:18.593750,26.43
13:27:18.609375,4.28
13:27:18.625000,-12.03
13:27:18.640625,-22.07
13:27:18.656250,-25.88
13:27:18.671875,-23.76
13:27:18.687500,-16.21
13:27:18.703125,-4.02
13:27:18.718750,11.53
13:27:18.734375,28.48
13:27:18.750000,44.15
13:27:18.765625,55.39
13:27:18.781250,59.02
13:27:18.796875,52.63
13:27:18.812500,35.24
13:27:18.828125,7.64
13:27:18.843750,-27.73
13:27:18.859375,-67.35
13:27:18.875000,-107.14
13:27:18.890625,-142.73
13:27:18.906250,-169.63
13:27:18.921875,-183.61
13:27:18.937500,-181.61
13:27:18.953125,-162.97
13:27:18.968750,-130.15
13:27:18.984375,-88.08
13:27:19,-42.30
13:27:19.015625,3.34
13:27:19.031250,47.71
13:27:19.046875,91.64
13:27:19.062500,135.45
13:27:19.078125,177.00
13:27:19.093750,211.34
13:27:19.109375,232.59
13:27:19.125000,237.04
13:27:19.140625,225.24
13:27:19.156250,202.21
13:27:19.171875,175.16
13:27:19.187500,150.30
13:27:19.203125,130.56
13:27:19.218750,115.42
13:27:19.234375,102.36
13:27:19.250000,88.90
13:27:19.265625,73.95
13:27:19.281250,57.76
13:27:19.296875,41.25
13:27:19.312500,24.88
13:27:19.328125,8.20
13:27:19.343750,-10.19
13:27:19.359375,-31.76
13:27:19.375000,-57.26
13:27:19.390625,-86.41
13:27:19.406250,-118.27
13:27:19.421875,-152.36
13:27:19.437500,-189.03
13:27:19.453125,-229.27
13:27:19.468750,-273.69
13:27:19.484375,-321.52
13:27:19.500000,-368.92
13:27:19.515625,-409.27
13:27:19.531250,-435.47
13:27:19.546875,-442.69
13:27:19.562500,-431.16
13:27:19.578125,-405.60
13:27:19.593750,-373.11
13:27:19.609375,-340.39
13:27:19.625000,-312.76
13:27:19.640625,-291.92
13:27:19.656250,-276.64
13:27:19.671875,-264.55
13:27:19.687500,-253.46
13:27:19.703125,-242.87
13:27:19.718750,-232.26
13:27:19.734375,-220.45
13:27:19.750000,-206.10
13:27:19.765625,-190.78
13:27:19.781250,-177.07
13:27:19.796875,-167.75
13:27:19.812500,-164.72
13:27:19.828125,-167.51
13:27:19.843750,-174.53
13:27:19.859375,-181.78
13:27:19.875000,-184.29
13:27:19.890625,-178.57
13:27:19.906250,-166.55
13:27:19.921875,-151.92
13:27:19.937500,-137.91
13:27:19.953125,-125.89
13:27:19.968750,-114.80
13:27:19.984375,-104.70
13:27:20,-95.51
13:27:20.015625,-87.44
13:27:20.031250,-66.23
13:27:20.046875,-28.59
13:27:20.062500,18.08
13:27:20.078125,61.52
13:27:20.093750,88.52
13:27:20.109375,105.37
13:27:20.125000,118.93
13:27:20.140625,133.55
13:27:20.156250,151.16
13:27:20.171875,171.06
13:27:20.187500,189.66
13:27:20.203125,205.29
13:27:20.218750,219.22
13:27:20.234375,234.72
13:27:20.250000,255.63
13:27:20.265625,282.19
13:27:20.281250,313.09
13:27:20.296875,346.45
13:27:20.312500,380.36
13:27:20.328125,411.41
13:27:20.343750,437.30
13:27:20.359375,456.98
13:27:20.375000,470.06
13:27:20.390625,476.63
13:27:20.406250,475.23
13:27:20.421875,465.40
13:27:20.437500,448.21
13:27:20.453125,425.74
13:27:20.468750,399.03
13:27:20.484375,368.98
13:27:20.500000,336.77
13:27:20.515625,304.45
13:27:20.531250,275.49
13:27:20.546875,253.19
13:27:20.562500,240.59
13:27:20.578125,238.75
13:27:20.593750,245.38
13:27:20.609375,254.40
13:27:20.625000,258.67
13:27:20.640625,252.96
13:27:20.656250,236.11
13:27:20.671875,211.24
13:27:20.687500,183.32
13:27:20.703125,157.14
13:27:20.718750,135.20
13:27:20.734375,117.24
13:27:20.750000,101.12
13:27:20.765625,84.98
13:27:20.781250,68.67
13:27:20.796875,53.81
13:27:20.812500,42.67
13:27:20.828125,36.36
13:27:20.843750,34.01
13:27:20.859375,32.94
13:27:20.875000,29.60
13:27:20.890625,21.06
13:27:20.906250,6.04
13:27:20.921875,-14.76
13:27:20.937500,-39.43
13:27:20.953125,-65.78
13:27:20.968750,-92.67
13:27:20.984375,-120.52
13:27:21,-151.13
13:27:21.015625,-187.09
13:27:21.031250,-231.10
13:27:21.046875,-285.44
13:27:21.062500,-351.32
13:27:21.078125,-427.93
13:27:21.093750,-511.40
13:27:21.109375,-594.33
13:27:21.125000,-666.86
13:27:21.140625,-719.10
13:27:21.156250,-744.39
13:27:21.171875,-741.62
13:27:21.187500,-715.42
13:27:21.203125,-673.91
13:27:21.218750,-625.38
13:27:21.234375,-575.37
13:27:21.250000,-525.84
13:27:21.265625,-476.26
13:27:21.281250,-425.45
13:27:21.296875,-372.88
13:27:21.312500,-318.80
13:27:21.328125,-263.64
13:27:21.343750,-207.78
13:27:21.359375,-152.07
13:27:21.375000,-98.66
13:27:21.390625,-51.37
13:27:21.406250,-14.86
13:27:21.421875,7.32
13:27:21.437500,14.18
13:27:21.453125,8.00
13:27:21.468750,-6.64
13:27:21.484375,-24.60
13:27:21.500000,-41.64
13:27:21.515625,-54.78
13:27:21.531250,-61.63
13:27:21.546875,-59.76
13:27:21.562500,-46.76
13:27:21.578125,-21.58
13:27:21.593750,13.99
13:27:21.609375,54.65
13:27:21.625000,92.86
13:27:21.640625,121.46
13:27:21.656250,136.32
13:27:21.671875,137.54
13:27:21.687500,128.62
13:27:21.703125,114.17
13:27:21.718750,97.74
13:27:21.734375,81.15
13:27:21.750000,65.29
13:27:21.765625,51.54
13:27:21.781250,42.53
13:27:21.796875,41.40
13:27:21.812500,50.00
13:27:21.828125,67.48
13:27:21.843750,90.08
13:27:21.859375,112.49
13:27:21.875000,130.10
13:27:21.890625,140.65
13:27:21.906250,144.51
13:27:21.921875,143.82
13:27:21.937500,140.90
13:27:21.953125,137.14
13:27:21.968750,132.76
13:27:21.984375,127.26
13:27:22,120.24
13:27:22.015625,111.83
13:27:22.031250,102.77
13:27:22.046875,94.03
13:27:22.062500,86.35
13:27:22.078125,80.03
13:27:22.093750,74.96
13:27:22.109375,70.93
13:27:22.125000,67.79
13:27:22.140625,65.67
13:27:22.156250,64.78
13:27:22.171875,65.18
13:27:22.187500,66.64
13:27:22.203125,68.52
13:27:22.218750,70.03
13:27:22.234375,70.36
13:27:22.250000,69.09
13:27:22.265625,66.17
13:27:22.281250,61.89
13:27:22.296875,56.64
13:27:22.312500,50.60
13:27:22.328125,43.60
13:27:22.343750,35.18
13:27:22.359375,24.73
13:27:22.375000,11.83
13:27:22.390625,-3.41
13:27:22.406250,-20.26
13:27:22.421875,-37.38
13:27:22.437500,-53.06
13:27:22.453125,-65.60
13:27:22.468750,-73.66
13:27:22.484375,-76.58
13:27:22.500000,-74.34
13:27:22.515625,-67.52
13:27:22.531250,-57.03
13:27:22.546875,-43.80
13:27:22.562500,-28.55
13:27:22.578125,-11.53
13:27:22.593750,7.71
13:27:22.609375,30.20
13:27:22.625000,57.34
13:27:22.640625,90.31
13:27:22.656250,129.45
13:27:22.671875,173.65
13:27:22.687500,220.13
13:27:22.703125,264.86
13:27:22.718750,303.41
13:27:22.734375,332.16
13:27:22.750000,349.21
13:27:22.765625,354.92
13:27:22.781250,351.66
13:27:22.796875,343.14
13:27:22.812500,333.32
13:27:22.828125,325.62
13:27:22.843750,322.29
13:27:22.859375,324.18
13:27:22.875000,330.70
13:27:22.890625,339.96
13:27:22.906250,349.00
13:27:22.921875,354.40
13:27:22.937500,353.03
13:27:22.953125,342.79
13:27:22.968750,323.12
13:27:22.984375,294.92
13:27:23,260.05
13:27:23.015625,220.79
13:27:23.031250,179.46
13:27:23.046875,138.51
13:27:23.062500,100.61
13:27:23.078125,68.60
13:27:23.093750,45.01
13:27:23.109375,31.23
13:27:23.125000,26.74
13:27:23.140625,28.88
13:27:23.156250,33.44
13:27:23.171875,35.85
13:27:23.187500,32.36
13:27:23.203125,21.00
13:27:23.218750,1.73
13:27:23.234375,-24.01
13:27:23.250000,-54.20
13:27:23.265625,-87.07
13:27:23.281250,-121.71
13:27:23.296875,-158.26
13:27:23.312500,-197.35
13:27:23.328125,-239.33
13:27:23.343750,-283.37
13:27:23.359375,-327.14
13:27:23.375000,-367.23
13:27:23.390625,-400.26
13:27:23.406250,-423.99
13:27:23.421875,-437.98
13:27:23.437500,-443.33
13:27:23.453125,-441.80
13:27:23.468750,-434.96
13:27:23.484375,-423.75
13:27:23.500000,-408.77
13:27:23.515625,-390.90
13:27:23.531250,-371.52
13:27:23.546875,-352.31
13:27:23.562500,-334.43
13:27:23.578125,-318.06
13:27:23.593750,-302.37
13:27:23.609375,-286.18
13:27:23.625000,-268.67
13:27:23.640625,-249.71
13:27:23.656250,-229.59
13:27:23.671875,-208.44
13:27:23.687500,-186.11
13:27:23.703125,-162.23
13:27:23.718750,-136.60
13:27:23.734375,-109.36
13:27:23.750000,-80.73
13:27:23.765625,-50.69
13:27:23.781250,-18.80
13:27:23.796875,15.42
13:27:23.812500,51.77
13:27:23.828125,88.87
13:27:23.843750,124.29
13:27:23.859375,155.37
13:27:23.875000,180.26
13:27:23.890625,198.60
13:27:23.906250,211.31
13:27:23.921875,219.79
13:27:23.937500,225.23
13:27:23.953125,228.19
13:27:23.968750,228.92
13:27:23.984375,227.85
13:27:24,225.68
13:27:24.015625,223.14
13:27:24.031250,220.30
13:27:24.046875,216.29
13:27:24.062500,209.48
13:27:24.078125,198.29
13:27:24.093750,182.08
13:27:24.109375,161.63
13:27:24.125000,138.90
13:27:24.140625,116.08
13:27:24.156250,94.67
13:27:24.171875,75.01
13:27:24.187500,56.65
13:27:24.203125,39.11
13:27:24.218750,22.52
13:27:24.234375,7.72
13:27:24.250000,-4.34
13:27:24.265625,-13.37
13:27:24.281250,-20.18
13:27:24.296875,-26.45
13:27:24.312500,-33.90
13:27:24.328125,-43.57
13:27:24.343750,-55.30
13:27:24.359375,-68.04
13:27:24.375000,-80.33
13:27:24.390625,-90.99
13:27:24.406250,-99.39
13:27:24.421875,-105.52
13:27:24.437500,-109.76
13:27:24.453125,-112.81
13:27:24.468750,-115.46
13:27:24.484375,-118.32
13:27:24.500000,-121.38
13:27:24.515625,-123.66
13:27:24.531250,-123.08
13:27:24.546875,-117.07
13:27:24.562500,-103.60
13:27:24.578125,-82.22
13:27:24.593750,-54.60
13:27:24.609375,-24.15
13:27:24.625000,5.08
13:27:24.640625,29.74
13:27:24.656250,48.21
13:27:24.671875,60.69
13:27:24.687500,68.75
13:27:24.703125,74.30
13:27:24.718750,78.91
13:27:24.734375,83.53
13:27:24.750000,88.78
13:27:24.765625,95.31
13:27:24.781250,103.99
13:27:24.796875,115.60
13:27:24.812500,130.32
13:27:24.828125,147.34
13:27:24.843750,165.02
13:27:24.859375,181.52
13:27:24.875000,195.71
13:27:24.890625,207.62
13:27:24.906250,218.06
13:27:24.921875,227.80
13:27:24.937500,236.34
13:27:24.953125,241.57
13:27:24.968750,240.23
13:27:24.984375,229.27
13:27:25,207.37
13:27:25.015625,175.72
13:27:25.031250,137.76
13:27:25.046875,97.90
13:27:25.062500,59.94
13:27:25.078125,25.96
13:27:25.093750,-4.00
13:27:25.109375,-31.44
13:27:25.125000,-58.48
13:27:25.140625,-87.08
13:27:25.156250,-118.53
13:27:25.171875,-153.30
13:27:25.187500,-191.09
13:27:25.203125,-230.99
13:27:25.218750,-271.56
13:27:25.234375,-311.09
13:27:25.250000,-347.71
13:27:25.265625,-379.77
13:27:25.281250,-406.12
13:27:25.296875,-426.35
13:27:25.312500,-440.80
13:27:25.328125,-450.32
13:27:25.343750,-455.73
13:27:25.359375,-457.25
13:27:25.375000,-454.21
13:27:25.390625,-445.17
13:27:25.406250,-428.62
13:27:25.421875,-403.77
13:27:25.437500,-371.22
13:27:25.453125,-332.96
13:27:25.468750,-291.76
13:27:25.484375,-250.21
13:27:25.500000,-209.77
13:27:25.515625,-170.50
13:27:25.531250,-131.31
13:27:25.546875,-91.03
13:27:25.562500,-49.53
13:27:25.578125,-8.38
13:27:25.593750,29.36
13:27:25.609375,60.24
13:27:25.625000,81.81
13:27:25.640625,93.64
13:27:25.656250,97.42
13:27:25.671875,96.12
13:27:25.687500,92.69
13:27:25.703125,89.18
13:27:25.718750,86.53
13:27:25.734375,85.11
13:27:25.750000,85.29
13:27:25.765625,87.76
13:27:25.781250,93.22
13:27:25.796875,101.86
13:27:25.812500,113.12
13:27:25.828125,125.97
13:27:25.843750,139.46
13:27:25.859375,153.15
13:27:25.875000,166.96
13:27:25.890625,180.74
13:27:25.906250,193.83
13:27:25.921875,205.09
13:27:25.937500,213.43
13:27:25.953125,218.40
13:27:25.968750,220.67
13:27:25.984375,221.84
13:27:26,224.07
13:27:26.015625,229.26
13:27:26.031250,238.65
13:27:26.046875,252.41
13:27:26.062500,269.62
13:27:26.078125,288.46
13:27:26.093750,306.64
13:27:26.109375,321.91
13:27:26.125000,332.70
13:27:26.140625,338.50
13:27:26.156250,339.94
13:27:26.171875,338.51
13:27:26.187500,336.06
13:27:26.203125,334.38
13:27:26.218750,334.61
13:27:26.234375,336.97
13:27:26.250000,340.50
13:27:26.265625,343.10
13:27:26.281250,341.96
13:27:26.296875,334.39
13:27:26.312500,318.64
13:27:26.328125,294.62
13:27:26.343750,263.88
13:27:26.359375,228.93
13:27:26.375000,192.33
13:27:26.390625,155.92
13:27:26.406250,120.46
13:27:26.421875,85.90
13:27:26.437500,51.84
13:27:26.453125,17.91
13:27:26.468750,-16.12
13:27:26.484375,-50.39
13:27:26.500000,-85.05
13:27:26.515625,-120.05
13:27:26.531250,-154.92
13:27:26.546875,-188.68
13:27:26.562500,-219.96
13:27:26.578125,-247.34
13:27:26.593750,-269.87
13:27:26.609375,-287.36
13:27:26.625000,-300.32
13:27:26.640625,-309.82
13:27:26.656250,-317.09
13:27:26.671875,-323.20
13:27:26.687500,-328.98
13:27:26.703125,-334.95
13:27:26.718750,-341.47
13:27:26.734375,-348.65
13:27:26.750000,-356.34
13:27:26.765625,-363.82
13:27:26.781250,-369.84
13:27:26.796875,-372.59
13:27:26.812500,-370.24
13:27:26.828125,-361.50
13:27:26.843750,-346.28
13:27:26.859375,-325.85
13:27:26.875000,-302.53
13:27:26.890625,-278.77
13:27:26.906250,-256.19
13:27:26.921875,-235.02
13:27:26.937500,-214.12
13:27:26.953125,-191.70
13:27:26.968750,-166.14
13:27:26.984375,-136.72
13:27:27,-103.86
13:27:27.015625,-68.93
13:27:27.031250,-33.82
13:27:27.046875,-0.45
13:27:27.062500,29.58
13:27:27.078125,55.26
13:27:27.093750,76.20
13:27:27.109375,92.66
13:27:27.125000,105.50
13:27:27.140625,115.97
13:27:27.156250,125.35
13:27:27.171875,134.78
13:27:27.187500,144.93
13:27:27.203125,155.95
13:27:27.218750,167.54
13:27:27.234375,179.17
13:27:27.250000,190.26
13:27:27.265625,200.46
13:27:27.281250,209.67
13:27:27.296875,217.98
13:27:27.312500,225.45
13:27:27.328125,231.86
13:27:27.343750,236.61
13:27:27.359375,238.73
13:27:27.375000,237.03
13:27:27.390625,230.34
13:27:27.406250,217.82
13:27:27.421875,199.03
13:27:27.437500,174.33
13:27:27.453125,144.84
13:27:27.468750,112.42
13:27:27.484375,79.33
13:27:27.500000,47.64
13:27:27.515625,18.71
13:27:27.531250,-7.20
13:27:27.546875,-30.78
13:27:27.562500,-53.23
13:27:27.578125,-75.59
13:27:27.593750,-98.23
13:27:27.609375,-120.63
13:27:27.625000,-141.65
13:27:27.640625,-159.90
13:27:27.656250,-174.15
13:27:27.671875,-183.57
13:27:27.687500,-187.66
13:27:27.703125,-186.04
13:27:27.718750,-178.37
13:27:27.734375,-164.35
13:27:27.750000,-143.89
13:27:27.765625,-117.49
13:27:27.781250,-86.39
13:27:27.796875,-52.59
13:27:27.812500,-18.41
13:27:27.828125,14.07
13:27:27.843750,43.51
13:27:27.859375,69.58
13:27:27.875000,92.71
13:27:27.890625,113.61
13:27:27.906250,132.72
13:27:27.921875,149.86
13:27:27.937500,164.37
13:27:27.953125,175.41
13:27:27.968750,182.44
13:27:27.984375,185.47
13:27:28,185.02
13:27:28.015625,181.94
13:27:28.031250,177.07
13:27:28.046875,171.05
13:27:28.062500,164.14
13:27:28.078125,156.28
13:27:28.093750,147.09
13:27:28.109375,136.01
13:27:28.125000,122.48
13:27:28.140625,106.14
13:27:28.156250,87.03
13:27:28.171875,65.60
13:27:28.187500,42.67
13:27:28.203125,19.20
13:27:28.218750,-3.94
13:27:28.234375,-26.16
13:27:28.250000,-47.24
13:27:28.265625,-67.25
13:27:28.281250,-86.49
13:27:28.296875,-105.30
13:27:28.312500,-124.00
13:27:28.328125,-142.72
13:27:28.343750,-161.38
13:27:28.359375,-179.68
13:27:28.375000,-197.07
13:27:28.390625,-213.03
13:27:28.406250,-227.08
13:27:28.421875,-238.98
13:27:28.437500,-248.74
13:27:28.453125,-256.48
13:27:28.468750,-262.28
13:27:28.484375,-265.91
13:27:28.500000,-266.79
13:27:28.515625,-263.96
13:27:28.531250,-256.45
13:27:28.546875,-243.72
13:27:28.562500,-226.11
13:27:28.578125,-205.03
13:27:28.593750,-182.66
13:27:28.609375,-161.39
13:27:28.625000,-143.17
13:27:28.640625,-129.13
13:27:28.656250,-119.49
13:27:28.671875,-113.95
13:27:28.687500,-111.87
13:27:28.703125,-112.40
13:27:28.718750,-114.29
13:27:28.734375,-115.75
13:27:28.750000,-114.60
13:27:28.765625,-108.79
13:27:28.781250,-97.20
13:27:28.796875,-80.22
13:27:28.812500,-59.76
13:27:28.828125,-38.65
13:27:28.843750,-19.72
13:27:28.859375,-4.85
13:27:28.875000,5.45
13:27:28.890625,11.98
13:27:28.906250,16.37
13:27:28.921875,20.48
13:27:28.937500,25.87
13:27:28.953125,33.51
13:27:28.968750,43.69
13:27:28.984375,56.03
13:27:29,69.62
13:27:29.015625,83.15
13:27:29.031250,95.19
13:27:29.046875,104.56
13:27:29.062500,110.57
13:27:29.078125,113.19
13:27:29.093750,112.95
13:27:29.109375,110.72
13:27:29.125000,107.37
13:27:29.140625,103.57
13:27:29.156250,99.75
13:27:29.171875,96.11
13:27:29.187500,92.73
13:27:29.203125,89.66
13:27:29.218750,86.95
13:27:29.234375,84.66
13:27:29.250000,82.72
13:27:29.265625,80.99
13:27:29.281250,79.28
13:27:29.296875,77.45
13:27:29.312500,75.46
13:27:29.328125,73.31
13:27:29.343750,71.07
13:27:29.359375,68.78
13:27:29.375000,66.47
13:27:29.390625,64.19
13:27:29.406250,62.05
13:27:29.421875,60.17
13:27:29.437500,58.73
13:27:29.453125,57.83
13:27:29.468750,57.53
13:27:29.484375,57.75
13:27:29.500000,58.35
13:27:29.515625,59.13
13:27:29.531250,59.75
13:27:29.546875,59.81
13:27:29.562500,58.91
13:27:29.578125,56.88
13:27:29.593750,53.90
13:27:29.609375,50.58
13:27:29.625000,47.77
13:27:29.640625,46.19
13:27:29.656250,46.16
13:27:29.671875,47.48
13:27:29.687500,49.53
13:27:29.703125,51.63
13:27:29.718750,53.36
13:27:29.734375,54.77
13:27:29.750000,56.28
13:27:29.765625,58.50
13:27:29.781250,61.77
13:27:29.796875,65.92
13:27:29.812500,70.15
13:27:29.828125,73.20
13:27:29.843750,73.74
13:27:29.859375,70.81
13:27:29.875000,64.26
13:27:29.890625,54.87
13:27:29.906250,44.27
13:27:29.921875,34.43
13:27:29.937500,27.15
13:27:29.953125,23.52
13:27:29.968750,23.69
13:27:29.984375,26.96
13:27:30,32.13
13:27:30.015625,37.94
13:27:30.031250,43.37
13:27:30.046875,47.70
13:27:30.062500,50.37
13:27:30.078125,50.82
13:27:30.093750,48.49
13:27:30.109375,42.88
13:27:30.125000,33.85
13:27:30.140625,21.78
13:27:30.156250,7.68
13:27:30.171875,-7.13
13:27:30.187500,-21.23
13:27:30.203125,-33.48
13:27:30.218750,-43.21
13:27:30.234375,-50.21
13:27:30.250000,-54.69
13:27:30.265625,-57.07
13:27:30.281250,-57.87
13:27:30.296875,-57.47
13:27:30.312500,-56.03
13:27:30.328125,-53.56
13:27:30.343750,-50.11
13:27:30.359375,-45.97
13:27:30.375000,-41.78
13:27:30.390625,-38.29
13:27:30.406250,-36.19
13:27:30.421875,-35.69
13:27:30.437500,-36.47
13:27:30.453125,-37.75
13:27:30.468750,-38.63
13:27:30.484375,-38.39
13:27:30.500000,-36.77
13:27:30.515625,-33.95
13:27:30.531250,-30.45
13:27:30.546875,-26.81
13:27:30.562500,-23.43
13:27:30.578125,-20.49
13:27:30.593750,-17.91
13:27:30.609375,-15.53
13:27:30.625000,-13.25
13:27:30.640625,-11.05
13:27:30.656250,-9.06
13:27:30.671875,-7.38
13:27:30.687500,-5.98
13:27:30.703125,-4.48
13:27:30.718750,-2.39
13:27:30.734375,0.69
13:27:30.750000,4.73
13:27:30.765625,9.23
13:27:30.781250,13.32
13:27:30.796875,16.15
13:27:30.812500,17.31
13:27:30.828125,16.97
13:27:30.843750,15.83
13:27:30.859375,14.72
13:27:30.875000,14.30
13:27:30.890625,14.72
13:27:30.906250,15.75
13:27:30.921875,16.84
13:27:30.937500,17.39
13:27:30.953125,17.02
13:27:30.968750,15.53
13:27:30.984375,13.00
13:27:31,9.74
13:27:31.015625,6.23
13:27:31.031250,2.99
13:27:31.046875,0.43
13:27:31.062500,-1.27
13:27:31.078125,-2.24
13:27:31.093750,-2.79
13:27:31.109375,-3.25
13:27:31.125000,-3.88
13:27:31.140625,-4.82
13:27:31.156250,-6.18
13:27:31.171875,-8.12
13:27:31.187500,-10.73
13:27:31.203125,-13.96
13:27:31.218750,-17.49
13:27:31.234375,-20.77
13:27:31.250000,-23.26
13:27:31.265625,-24.61
13:27:31.281250,-24.84
13:27:31.296875,-24.24
13:27:31.312500,-23.15
13:27:31.328125,-21.82
13:27:31.343750,-20.24
13:27:31.359375,-18.33
13:27:31.375000,-15.95
13:27:31.390625,-13.16
13:27:31.406250,-10.17
13:27:31.421875,-7.23
13:27:31.437500,-4.56
13:27:31.453125,-2.28
13:27:31.468750,-0.32
13:27:31.484375,1.44
13:27:31.500000,3.13
13:27:31.515625,4.82
13:27:31.531250,6.50
13:27:31.546875,8.10
13:27:31.562500,9.49
13:27:31.578125,10.63
13:27:31.593750,11.64
13:27:31.609375,12.92
13:27:31.625000,15.30
13:27:31.640625,19.95
13:27:31.656250,28.13
13:27:31.671875,40.70
13:27:31.687500,57.54
13:27:31.703125,77.37
13:27:31.718750,97.86
13:27:31.734375,116.37
13:27:31.750000,130.85
13:27:31.765625,140.48
13:27:31.781250,145.81
13:27:31.796875,148.28
13:27:31.812500,149.48
13:27:31.828125,150.60
13:27:31.843750,152.25
13:27:31.859375,154.62
13:27:31.875000,157.78
13:27:31.890625,161.76
13:27:31.906250,166.49
13:27:31.921875,171.48
13:27:31.937500,175.81
13:27:31.953125,178.43
13:27:31.968750,178.68
13:27:31.984375,176.83
13:27:32,174.07
13:27:32.015625,171.90
13:27:32.031250,171.06
13:27:32.046875,170.69
13:27:32.062500,168.16
13:27:32.078125,160.00
13:27:32.093750,143.33
13:27:32.109375,117.20
13:27:32.125000,83.01
13:27:32.140625,43.92
13:27:32.156250,3.42
13:27:32.171875,-36.03
13:27:32.187500,-73.66
13:27:32.203125,-110.27
13:27:32.218750,-147.41
13:27:32.234375,-186.58
13:27:32.250000,-228.59
13:27:32.265625,-273.29
13:27:32.281250,-319.54
13:27:32.296875,-365.22
13:27:32.312500,-407.54
13:27:32.328125,-443.49
13:27:32.343750,-470.56
13:27:32.359375,-487.46
13:27:32.375000,-494.47
13:27:32.390625,-493.35
13:27:32.406250,-486.60
13:27:32.421875,-476.43
13:27:32.437500,-463.97
13:27:32.453125,-448.86
13:27:32.468750,-429.73
13:27:32.484375,-404.85
13:27:32.500000,-373.14
13:27:32.515625,-334.56
13:27:32.531250,-290.14
13:27:32.546875,-241.56
13:27:32.562500,-190.73
13:27:32.578125,-139.47
13:27:32.593750,-89.57
13:27:32.609375,-42.95
13:27:32.625000,-1.60
13:27:32.640625,32.74
13:27:32.656250,59.09
13:27:32.671875,77.56
13:27:32.687500,89.40
13:27:32.703125,96.46
13:27:32.718750,100.57
13:27:32.734375,102.93
13:27:32.750000,104.03
13:27:32.765625,103.81
13:27:32.781250,102.11
13:27:32.796875,99.02
13:27:32.812500,95.01
13:27:32.828125,90.79
13:27:32.843750,87.03
13:27:32.859375,84.11
13:27:32.875000,82.00
13:27:32.890625,80.42
13:27:32.906250,79.06
13:27:32.921875,77.92
13:27:32.937500,77.32
13:27:32.953125,77.73
13:27:32.968750,79.46
13:27:32.984375,82.34
13:27:33,85.67
13:27:33.015625,88.40
13:27:33.031250,89.60
13:27:33.046875,88.71
13:27:33.062500,85.79
13:27:33.078125,81.49
13:27:33.093750,76.73
13:27:33.109375,72.41
13:27:33.125000,69.13
13:27:33.140625,67.01
13:27:33.156250,65.75
13:27:33.171875,64.81
13:27:33.187500,63.68
13:27:33.203125,62.18
13:27:33.218750,60.41
13:27:33.234375,58.81
13:27:33.250000,57.78
13:27:33.265625,57.57
13:27:33.281250,58.19
13:27:33.296875,59.53
13:27:33.312500,61.48
13:27:33.328125,64.04
13:27:33.343750,67.24
13:27:33.359375,71.01
13:27:33.375000,75.09
13:27:33.390625,79.10
13:27:33.406250,82.73
13:27:33.421875,85.96
13:27:33.437500,89.26
13:27:33.453125,93.45
13:27:33.468750,99.41
13:27:33.484375,107.70
13:27:33.500000,118.26
13:27:33.515625,130.30
13:27:33.531250,142.59
13:27:33.546875,153.81
13:27:33.562500,162.97
13:27:33.578125,169.60
13:27:33.593750,173.67
13:27:33.609375,175.49
13:27:33.625000,175.50
13:27:33.640625,174.26
13:27:33.656250,172.38
13:27:33.671875,170.53
13:27:33.687500,169.36
13:27:33.703125,169.26
13:27:33.718750,170.09
13:27:33.734375,171.16
13:27:33.750000,171.36
13:27:33.765625,169.56
13:27:33.781250,165.14
13:27:33.796875,158.33
13:27:33.812500,150.13
13:27:33.828125,141.89
13:27:33.843750,134.59
13:27:33.859375,128.20
13:27:33.875000,121.70
13:27:33.890625,113.50
13:27:33.906250,102.36
13:27:33.921875,88.09
13:27:33.937500,71.73
13:27:33.953125,55.06
13:27:33.968750,39.78
13:27:33.984375,26.68
13:27:34,15.47
13:27:34.015625,5.04
13:27:34.031250,-5.92
13:27:34.046875,-18.38
13:27:34.062500,-32.88
13:27:34.078125,-49.56
13:27:34.093750,-68.38
13:27:34.109375,-89.17
13:27:34.125000,-111.44
13:27:34.140625,-134.35
13:27:34.156250,-156.85
13:27:34.171875,-177.93
13:27:34.187500,-197.02
13:27:34.203125,-214.18
13:27:34.218750,-230.09
13:27:34.234375,-245.65
13:27:34.250000,-261.55
13:27:34.265625,-277.82
13:27:34.281250,-293.63
13:27:34.296875,-307.38
13:27:34.312500,-317.11
13:27:34.328125,-321.07
13:27:34.343750,-318.19
13:27:34.359375,-308.48
13:27:34.375000,-292.95
13:27:34.390625,-273.29
13:27:34.406250,-251.42
13:27:34.421875,-228.91
13:27:34.437500,-206.72
13:27:34.453125,-185.10
13:27:34.468750,-163.75
13:27:34.484375,-142.14
13:27:34.500000,-119.75
13:27:34.515625,-96.30
13:27:34.531250,-71.88
13:27:34.546875,-47.01
13:27:34.562500,-22.56
13:27:34.578125,0.46
13:27:34.593750,21.20
13:27:34.609375,39.29
13:27:34.625000,55.01
13:27:34.640625,69.27
13:27:34.656250,83.27
13:27:34.671875,98.22
13:27:34.687500,114.88
13:27:34.703125,133.39
13:27:34.718750,153.24
13:27:34.734375,173.44
13:27:34.750000,192.80
13:27:34.765625,210.13
13:27:34.781250,224.43
13:27:34.796875,235.03
13:27:34.812500,241.65
13:27:34.828125,244.46
13:27:34.843750,244.04
13:27:34.859375,241.17
13:27:34.875000,236.54
13:27:34.890625,230.55
13:27:34.906250,223.27
13:27:34.921875,214.50
13:27:34.937500,204.07
13:27:34.953125,192.06
13:27:34.968750,178.80
13:27:34.984375,164.83
13:27:35,150.62
13:27:35.015625,136.50
13:27:35.031250,122.57
13:27:35.046875,108.77
13:27:35.062500,94.93
13:27:35.078125,80.81
13:27:35.093750,65.99
13:27:35.109375,49.96
13:27:35.125000,32.25
13:27:35.140625,12.67
13:27:35.156250,-8.43
13:27:35.171875,-30.03
13:27:35.187500,-50.55
13:27:35.203125,-68.25
13:27:35.218750,-81.61
13:27:35.234375,-89.77
13:27:35.250000,-92.77
13:27:35.265625,-91.61
13:27:35.281250,-88.01
13:27:35.296875,-84.05
13:27:35.312500,-81.71
13:27:35.328125,-82.44
13:27:35.343750,-86.85
13:27:35.359375,-94.60
13:27:35.375000,-104.60
13:27:35.390625,-115.16
13:27:35.406250,-124.42
13:27:35.421875,-130.69
13:27:35.437500,-132.88
13:27:35.453125,-130.74
13:27:35.468750,-125.03
13:27:35.484375,-117.26
13:27:35.500000,-109.33
13:27:35.515625,-102.98
13:27:35.531250,-99.32
13:27:35.546875,-98.61
13:27:35.562500,-100.34
13:27:35.578125,-103.55
13:27:35.593750,-107.19
13:27:35.609375,-110.43
13:27:35.625000,-112.86
13:27:35.640625,-114.51
13:27:35.656250,-115.86
13:27:35.671875,-117.74
13:27:35.687500,-121.28
13:27:35.703125,-127.76
13:27:35.718750,-138.29
13:27:35.734375,-153.55
13:27:35.750000,-173.30
13:27:35.765625,-196.19
13:27:35.781250,-219.61
13:27:35.796875,-239.97
13:27:35.812500,-253.15
13:27:35.828125,-255.19
13:27:35.843750,-243.08
13:27:35.859375,-215.51
13:27:35.875000,-173.57
13:27:35.890625,-120.95
13:27:35.906250,-63.44
13:27:35.921875,-7.66
13:27:35.937500,40.79
13:27:35.953125,79.01
13:27:35.968750,107.55
13:27:35.984375,129.74
13:27:36,150.02
13:27:36.015625,171.77
13:27:36.031250,195.91
13:27:36.046875,220.66
13:27:36.062500,242.38
13:27:36.078125,257.00
13:27:36.093750,261.20
13:27:36.109375,253.17
13:27:36.125000,232.80
13:27:36.140625,201.55
13:27:36.156250,162.27
13:27:36.171875,118.69
13:27:36.187500,74.72
13:27:36.203125,33.50
13:27:36.218750,-3.37
13:27:36.234375,-36.02
13:27:36.250000,-65.82
13:27:36.265625,-94.41
13:27:36.281250,-122.73
13:27:36.296875,-150.48
13:27:36.312500,-176.33
13:27:36.328125,-198.48
13:27:36.343750,-215.47
13:27:36.359375,-226.73
13:27:36.375000,-232.71
13:27:36.390625,-234.66
13:27:36.406250,-234.19
13:27:36.421875,-232.75
13:27:36.437500,-231.22
13:27:36.453125,-229.62
13:27:36.468750,-226.95
13:27:36.484375,-221.17
13:27:36.500000,-209.57
13:27:36.515625,-189.60
13:27:36.531250,-159.94
13:27:36.546875,-121.44
13:27:36.562500,-77.35
13:27:36.578125,-32.63
13:27:36.593750,7.68
13:27:36.609375,40.17
13:27:36.625000,64.27
13:27:36.640625,82.09
13:27:36.656250,97.24
13:27:36.671875,112.98
13:27:36.687500,130.96
13:27:36.703125,150.73
13:27:36.718750,170.48
13:27:36.734375,188.17
13:27:36.750000,202.53
13:27:36.765625,213.60
13:27:36.781250,222.53
13:27:36.796875,231.17
13:27:36.812500,241.55
13:27:36.828125,255.55
13:27:36.843750,274.72
13:27:36.859375,299.87
13:27:36.875000,330.55
13:27:36.890625,364.50
13:27:36.906250,397.53
13:27:36.921875,424.05
13:27:36.937500,438.59
13:27:36.953125,437.46
13:27:36.968750,420.04
13:27:36.984375,388.98
13:27:37,349.13
13:27:37.015625,305.78
13:27:37.031250,262.94
13:27:37.046875,222.43
13:27:37.062500,184.16
13:27:37.078125,147.03
13:27:37.093750,110.06
13:27:37.109375,72.86
13:27:37.125000,35.69
13:27:37.140625,-1.02
13:27:37.156250,-37.10
13:27:37.171875,-72.88
13:27:37.187500,-108.99
13:27:37.203125,-146.19
13:27:37.218750,-185.27
13:27:37.234375,-226.92
13:27:37.250000,-271.60
13:27:37.265625,-319.14
13:27:37.281250,-368.34
13:27:37.296875,-416.66
13:27:37.312500,-460.58
13:27:37.328125,-496.52
13:27:37.343750,-522.00
13:27:37.359375,-536.62
13:27:37.375000,-542.16
13:27:37.390625,-541.84
13:27:37.406250,-538.87
13:27:37.421875,-535.17
13:27:37.437500,-530.58
13:27:37.453125,-523.21
13:27:37.468750,-510.46
13:27:37.484375,-490.32
13:27:37.500000,-462.38
13:27:37.515625,-428.01
13:27:37.531250,-389.90
13:27:37.546875,-351.06
13:27:37.562500,-313.81
13:27:37.578125,-279.15
13:27:37.593750,-246.70
13:27:37.609375,-215.16
13:27:37.625000,-183.12
13:27:37.640625,-149.71
13:27:37.656250,-114.93
13:27:37.671875,-79.50
13:27:37.687500,-44.44
13:27:37.703125,-10.54
13:27:37.718750,21.97
13:27:37.734375,53.48
13:27:37.750000,84.90
13:27:37.765625,117.52
13:27:37.781250,152.87
13:27:37.796875,192.52
13:27:37.812500,237.27
13:27:37.828125,286.09
13:27:37.843750,335.16
13:27:37.859375,377.83
13:27:37.875000,406.18
13:27:37.890625,413.76
13:27:37.906250,398.33
13:27:37.921875,363.24
13:27:37.937500,316.51
13:27:37.953125,267.88
13:27:37.968750,225.35
13:27:37.984375,192.77
13:27:38,169.64
13:27:38.015625,152.85
13:27:38.031250,139.14
13:27:38.046875,126.99
13:27:38.062500,117.07
13:27:38.078125,111.48
13:27:38.093750,112.45
13:27:38.109375,121.38
13:27:38.125000,138.35
13:27:38.140625,162.10
13:27:38.156250,190.28
13:27:38.171875,219.72
13:27:38.187500,246.92
13:27:38.203125,268.42
13:27:38.218750,281.33
13:27:38.234375,283.71
13:27:38.250000,275.02
13:27:38.265625,256.29
13:27:38.281250,230.19
13:27:38.296875,200.65
13:27:38.312500,172.09
13:27:38.328125,148.41
13:27:38.343750,131.90
13:27:38.359375,122.68
13:27:38.375000,118.73
13:27:38.390625,116.82
13:27:38.406250,113.75
13:27:38.421875,107.43
13:27:38.437500,97.41
13:27:38.453125,84.63
13:27:38.468750,70.65
13:27:38.484375,56.90
13:27:38.500000,44.18
13:27:38.515625,32.62
13:27:38.531250,21.86
13:27:38.546875,11.48
13:27:38.562500,1.17
13:27:38.578125,-9.12
13:27:38.593750,-19.19
13:27:38.609375,-28.66
13:27:38.625000,-37.12
13:27:38.640625,-44.35
13:27:38.656250,-50.49
13:27:38.671875,-56.16
13:27:38.687500,-62.35
13:27:38.703125,-70.00
13:27:38.718750,-79.60
13:27:38.734375,-90.89
13:27:38.750000,-102.93
13:27:38.765625,-114.57
13:27:38.781250,-124.98
13:27:38.796875,-133.99
13:27:38.812500,-142.06
13:27:38.828125,-149.84
13:27:38.843750,-157.64
13:27:38.859375,-165.01
13:27:38.875000,-170.77
13:27:38.890625,-173.19
13:27:38.906250,-170.60
13:27:38.921875,-161.87
13:27:38.937500,-146.95
13:27:38.953125,-127.03
13:27:38.968750,-104.38
13:27:38.984375,-81.80
13:27:39,-61.88
13:27:39.015625,-46.33
13:27:39.031250,-35.79
13:27:39.046875,-29.88
13:27:39.062500,-27.77
13:27:39.078125,-28.45
13:27:39.093750,-30.96
13:27:39.109375,-34.15
13:27:39.125000,-36.51
13:27:39.140625,-36.22
13:27:39.156250,-31.68
13:27:39.171875,-22.18
13:27:39.187500,-8.41
13:27:39.203125,7.80
13:27:39.218750,24.31
13:27:39.234375,39.65
13:27:39.250000,53.76
13:27:39.265625,67.71
13:27:39.281250,82.93
13:27:39.296875,100.09
13:27:39.312500,118.55
13:27:39.328125,136.75
13:27:39.343750,153.07
13:27:39.359375,166.90
13:27:39.375000,178.94
13:27:39.390625,190.73
13:27:39.406250,203.49
13:27:39.421875,217.38
13:27:39.437500,231.31
13:27:39.453125,243.62
13:27:39.468750,252.90
13:27:39.484375,258.48
13:27:39.500000,260.23
13:27:39.515625,258.01
13:27:39.531250,251.23
13:27:39.546875,238.91
13:27:39.562500,220.52
13:27:39.578125,196.58
13:27:39.593750,169.03
13:27:39.609375,140.68
13:27:39.625000,114.20
13:27:39.640625,91.18
13:27:39.656250,71.62
13:27:39.671875,54.25
13:27:39.687500,37.36
13:27:39.703125,19.49
13:27:39.718750,0.02
13:27:39.734375,-20.84
13:27:39.750000,-42.27
13:27:39.765625,-63.09
13:27:39.781250,-82.14
13:27:39.796875,-98.56
13:27:39.812500,-112.13
13:27:39.828125,-123.31
13:27:39.843750,-133.20
13:27:39.859375,-143.12
13:27:39.875000,-154.09
13:27:39.890625,-166.36
13:27:39.906250,-179.34
13:27:39.921875,-191.92
13:27:39.937500,-202.99
13:27:39.953125,-211.98
13:27:39.968750,-219.06
13:27:39.984375,-224.98
13:27:40,-230.59
13:27:40.015625,-236.25
13:27:40.031250,-241.55
13:27:40.046875,-245.29
13:27:40.062500,-245.86
13:27:40.078125,-241.74
13:27:40.093750,-232.22
13:27:40.109375,-217.90
13:27:40.125000,-200.90
13:27:40.140625,-184.55
13:27:40.156250,-172.74
13:27:40.171875,-168.80
13:27:40.187500,-174.49
13:27:40.203125,-189.31
13:27:40.218750,-210.37
13:27:40.234375,-233.07
13:27:40.250000,-252.20
13:27:40.265625,-263.19
13:27:40.281250,-263.19
13:27:40.296875,-251.52
13:27:40.312500,-229.60
13:27:40.328125,-200.27
13:27:40.343750,-166.92
13:27:40.359375,-132.58
13:27:40.375000,-99.34
13:27:40.390625,-68.29
13:27:40.406250,-39.88
13:27:40.421875,-14.48
13:27:40.437500,7.34
13:27:40.453125,24.84
13:27:40.468750,37.47
13:27:40.484375,45.21
13:27:40.500000,48.74
13:27:40.515625,49.03
13:27:40.531250,46.99
13:27:40.546875,43.07
13:27:40.562500,37.31
13:27:40.578125,29.67
13:27:40.593750,20.39
13:27:40.609375,10.16
13:27:40.625000,-0.13
13:27:40.640625,-9.83
13:27:40.656250,-18.81
13:27:40.671875,-27.60
13:27:40.687500,-37.04
13:27:40.703125,-47.78
13:27:40.718750,-59.78
13:27:40.734375,-72.06
13:27:40.750000,-82.90
13:27:40.765625,-90.43
13:27:40.781250,-93.45
13:27:40.796875,-91.88
13:27:40.812500,-86.79
13:27:40.828125,-79.84
13:27:40.843750,-72.38
13:27:40.859375,-64.88
13:27:40.875000,-56.73
13:27:40.890625,-46.79
13:27:40.906250,-34.04
13:27:40.921875,-18.24
13:27:40.937500,0.06
13:27:40.953125,19.68
13:27:40.968750,39.32
13:27:40.984375,57.85
13:27:41,74.42
13:27:41.015625,88.36
13:27:41.031250,99.20
13:27:41.046875,106.62
13:27:41.062500,110.64
13:27:41.078125,111.70
13:27:41.093750,110.55
13:27:41.109375,108.23
13:27:41.125000,105.73
13:27:41.140625,103.69
13:27:41.156250,102.24
13:27:41.171875,101.07
13:27:41.187500,99.64
13:27:41.203125,97.48
13:27:41.218750,94.42
13:27:41.234375,90.61
13:27:41.250000,86.25
13:27:41.265625,81.46
13:27:41.281250,76.06
13:27:41.296875,69.74
13:27:41.312500,62.22
13:27:41.328125,53.56
13:27:41.343750,44.12
13:27:41.359375,34.45
13:27:41.375000,25.07
13:27:41.390625,16.26
13:27:41.406250,8.10
13:27:41.421875,0.52
13:27:41.437500,-6.56
13:27:41.453125,-13.29
13:27:41.468750,-19.92
13:27:41.484375,-26.78
13:27:41.500000,-34.17
13:27:41.515625,-42.11
13:27:41.531250,-50.06
13:27:41.546875,-56.94
13:27:41.562500,-61.28
13:27:41.578125,-61.65
13:27:41.593750,-57.17
13:27:41.609375,-47.77
13:27:41.625000,-34.19
13:27:41.640625,-17.78
13:27:41.656250,-0.14
13:27:41.671875,17.26
13:27:41.687500,33.30
13:27:41.703125,47.24
13:27:41.718750,58.81
13:27:41.734375,68.09
13:27:41.750000,75.53
13:27:41.765625,81.71
13:27:41.781250,87.20
13:27:41.796875,92.39
13:27:41.812500,97.34
13:27:41.828125,101.82
13:27:41.843750,105.45
13:27:41.859375,107.90
13:27:41.875000,109.03
13:27:41.890625,108.94
13:27:41.906250,107.88
13:27:41.921875,106.06
13:27:41.937500,103.54
13:27:41.953125,100.22
13:27:41.968750,95.91
13:27:41.984375,90.55
13:27:42,84.30
13:27:42.015625,77.48
13:27:42.031250,70.48
13:27:42.046875,63.60
13:27:42.062500,56.99
13:27:42.078125,50.75
13:27:42.093750,44.96
13:27:42.109375,39.72
13:27:42.125000,35.07
13:27:42.140625,30.81
13:27:42.156250,26.62
13:27:42.171875,22.04
13:27:42.187500,16.83
13:27:42.203125,11.05
13:27:42.218750,5.06
13:27:42.234375,-0.68
13:27:42.250000,-5.88
13:27:42.265625,-10.58
13:27:42.281250,-15.00
13:27:42.296875,-19.26
13:27:42.312500,-23.18
13:27:42.328125,-26.17
13:27:42.343750,-27.48
13:27:42.359375,-26.50
13:27:42.375000,-23.01
13:27:42.390625,-17.25
13:27:42.406250,-9.79
13:27:42.421875,-1.34
13:27:42.437500,7.52
13:27:42.453125,16.36
13:27:42.468750,24.97
13:27:42.484375,33.33
13:27:42.500000,41.41
13:27:42.515625,49.11
13:27:42.531250,56.16
13:27:42.546875,62.09
13:27:42.562500,66.36
13:27:42.578125,68.61
13:27:42.593750,68.85
13:27:42.609375,67.52
13:27:42.625000,65.38
13:27:42.640625,63.17
13:27:42.656250,61.33
13:27:42.671875,59.93
13:27:42.687500,58.77
13:27:42.703125,57.69
13:27:42.718750,56.69
13:27:42.734375,56.02
13:27:42.750000,55.96
13:27:42.765625,56.67
13:27:42.781250,58.00
13:27:42.796875,59.57
13:27:42.812500,60.96
13:27:42.828125,61.82
13:27:42.843750,61.95
13:27:42.859375,61.26
13:27:42.875000,59.67
13:27:42.890625,57.17
13:27:42.906250,53.84
13:27:42.921875,49.93
13:27:42.937500,45.85
13:27:42.953125,42.00
13:27:42.968750,38.57
13:27:42.984375,35.39
13:27:43,32.01
13:27:43.015625,27.92
13:27:43.031250,22.83
13:27:43.046875,16.87
13:27:43.062500,10.61
13:27:43.078125,4.89
13:27:43.093750,0.41
13:27:43.109375,-2.47
13:27:43.125000,-3.88
13:27:43.140625,-4.28
13:27:43.156250,-4.23
13:27:43.171875,-3.96
13:27:43.187500,-3.28
13:27:43.203125,-1.64
13:27:43.218750,1.50
13:27:43.234375,6.33
13:27:43.250000,12.54
13:27:43.265625,19.41
13:27:43.281250,26.18
13:27:43.296875,32.41
13:27:43.312500,38.10
13:27:43.328125,43.56
13:27:43.343750,49.11
13:27:43.359375,54.86
13:27:43.375000,60.65
13:27:43.390625,66.17
13:27:43.406250,71.01
13:27:43.421875,74.69
13:27:43.437500,76.60
13:27:43.453125,76.05
13:27:43.468750,72.40
13:27:43.484375,65.38
13:27:43.500000,55.21
13:27:43.515625,42.67
13:27:43.531250,28.86
13:27:43.546875,15.09
13:27:43.562500,2.62
13:27:43.578125,-7.40
13:27:43.593750,-14.06
13:27:43.609375,-16.84
13:27:43.625000,-15.80
13:27:43.640625,-11.71
13:27:43.656250,-5.96
13:27:43.671875,-0.22
13:27:43.687500,4.07
13:27:43.703125,5.96
13:27:43.718750,5.18
13:27:43.734375,1.90
13:27:43.750000,-3.49
13:27:43.765625,-10.56
13:27:43.781250,-18.87
13:27:43.796875,-27.94
13:27:43.812500,-37.20
13:27:43.828125,-46.12
13:27:43.843750,-54.27
13:27:43.859375,-61.41
13:27:43.875000,-67.54
13:27:43.890625,-72.75
13:27:43.906250,-77.12
13:27:43.921875,-80.66
13:27:43.937500,-83.24
13:27:43.953125,-84.77
13:27:43.968750,-85.22
13:27:43.984375,-84.72
13:27:44,-83.49
13:27:44.015625,-81.67
13:27:44.031250,-79.16
13:27:44.046875,-75.66
13:27:44.062500,-70.74
13:27:44.078125,-64.27
13:27:44.093750,-56.64
13:27:44.109375,-48.92
13:27:44.125000,-42.59
13:27:44.140625,-38.98
13:27:44.156250,-38.63
13:27:44.171875,-40.96
13:27:44.187500,-44.31
13:27:44.203125,-46.50
13:27:44.218750,-45.56
13:27:44.234375,-40.38
13:27:44.250000,-31.11
13:27:44.265625,-19.03
13:27:44.281250,-6.29
13:27:44.296875,4.80
13:27:44.312500,12.39
13:27:44.328125,15.66
13:27:44.343750,15.04
13:27:44.359375,12.01
13:27:44.375000,8.50
13:27:44.390625,6.24
13:27:44.406250,6.18
13:27:44.421875,8.23
13:27:44.437500,11.43
13:27:44.453125,14.36
13:27:44.468750,15.59
13:27:44.484375,14.20
13:27:44.500000,10.11
13:27:44.515625,4.13
13:27:44.531250,-2.15
13:27:44.546875,-6.86
13:27:44.562500,-8.56
13:27:44.578125,-6.72
13:27:44.593750,-1.87
13:27:44.609375,4.65
13:27:44.625000,11.31
13:27:44.640625,16.94
13:27:44.656250,21.08
13:27:44.671875,23.90
13:27:44.687500,26.01
13:27:44.703125,28.11
13:27:44.718750,30.90
13:27:44.734375,35.00
13:27:44.750000,40.87
13:27:44.765625,48.90
13:27:44.781250,59.18
13:27:44.796875,71.54
13:27:44.812500,85.50
13:27:44.828125,100.25
13:27:44.843750,114.81
13:27:44.859375,128.13
13:27:44.875000,139.33
13:27:44.890625,147.87
13:27:44.906250,153.72
13:27:44.921875,157.38
13:27:44.937500,159.69
13:27:44.953125,161.59
13:27:44.968750,163.92
13:27:44.984375,167.21
13:27:45,171.59
13:27:45.015625,176.72
13:27:45.031250,181.66
13:27:45.046875,185.06
13:27:45.062500,185.28
13:27:45.078125,181.03
13:27:45.093750,171.70
13:27:45.109375,157.62
13:27:45.125000,139.79
13:27:45.140625,119.45
13:27:45.156250,97.46
13:27:45.171875,74.16
13:27:45.187500,49.50
13:27:45.203125,23.40
13:27:45.218750,-4.03
13:27:45.234375,-32.53
13:27:45.250000,-62.02
13:27:45.265625,-92.63
13:27:45.281250,-124.50
13:27:45.296875,-157.27
13:27:45.312500,-189.62
13:27:45.328125,-219.25
13:27:45.343750,-243.41
13:27:45.359375,-259.67
13:27:45.375000,-266.74
13:27:45.390625,-264.72
13:27:45.406250,-254.92
13:27:45.421875,-239.37
13:27:45.437500,-220.22
13:27:45.453125,-199.46
13:27:45.468750,-178.78
13:27:45.484375,-159.63
13:27:45.500000,-143.17
13:27:45.515625,-130.18
13:27:45.531250,-120.89
13:27:45.546875,-114.89
13:27:45.562500,-111.26
13:27:45.578125,-108.90
13:27:45.593750,-106.90
13:27:45.609375,-104.83
13:27:45.625000,-102.82
13:27:45.640625,-101.24
13:27:45.656250,-100.31
13:27:45.671875,-99.75
13:27:45.687500,-98.70
13:27:45.703125,-96.00
13:27:45.718750,-90.76
13:27:45.734375,-82.80
13:27:45.750000,-72.86
13:27:45.765625,-62.42
13:27:45.781250,-53.18
13:27:45.796875,-46.54
13:27:45.812500,-43.23
13:27:45.828125,-43.16
13:27:45.843750,-45.67
13:27:45.859375,-49.85
13:27:45.875000,-54.78
13:27:45.890625,-59.81
13:27:45.906250,-64.52
13:27:45.921875,-68.61
13:27:45.937500,-71.81
13:27:45.953125,-73.82
13:27:45.968750,-74.38
13:27:45.984375,-73.43
13:27:46,-71.21
13:27:46.015625,-68.23
13:27:46.031250,-65.15
13:27:46.046875,-62.54
13:27:46.062500,-60.72
13:27:46.078125,-59.74
13:27:46.093750,-59.55
13:27:46.109375,-60.16
13:27:46.125000,-61.87
13:27:46.140625,-65.13
13:27:46.156250,-70.21
13:27:46.171875,-76.87
13:27:46.187500,-84.13
13:27:46.203125,-90.44
13:27:46.218750,-94.06
13:27:46.234375,-93.72
13:27:46.250000,-89.03
13:27:46.265625,-80.60
13:27:46.281250,-69.78
13:27:46.296875,-58.12
13:27:46.312500,-46.96
13:27:46.328125,-37.04
13:27:46.343750,-28.58
13:27:46.359375,-21.40
13:27:46.375000,-15.30
13:27:46.390625,-10.09
13:27:46.406250,-5.69
13:27:46.421875,-2.00
13:27:46.437500,1.16
13:27:46.453125,3.97
13:27:46.468750,6.61
13:27:46.484375,9.01
13:27:46.500000,10.84
13:27:46.515625,11.60
13:27:46.531250,10.89
13:27:46.546875,8.60
13:27:46.562500,5.10
13:27:46.578125,1.19
13:27:46.593750,-2.19
13:27:46.609375,-4.21
13:27:46.625000,-4.48
13:27:46.640625,-3.20
13:27:46.656250,-1.00
13:27:46.671875,1.23
13:27:46.687500,2.70
13:27:46.703125,2.81
13:27:46.718750,1.28
13:27:46.734375,-2.00
13:27:46.750000,-6.97
13:27:46.765625,-13.40
13:27:46.781250,-20.79
13:27:46.796875,-28.31
13:27:46.812500,-34.93
13:27:46.828125,-39.61
13:27:46.843750,-41.74
13:27:46.859375,-41.33
13:27:46.875000,-39.10
13:27:46.890625,-36.23
13:27:46.906250,-33.90
13:27:46.921875,-32.78
13:27:46.937500,-32.65
13:27:46.953125,-32.53
13:27:46.968750,-31.00
13:27:46.984375,-26.87
13:27:47,-19.78
13:27:47.015625,-10.51
13:27:47.031250,-0.70
13:27:47.046875,7.71
13:27:47.062500,13.32
13:27:47.078125,15.73
13:27:47.093750,15.66
13:27:47.109375,14.36
13:27:47.125000,13.02
13:27:47.140625,12.18
13:27:47.156250,11.63
13:27:47.171875,10.79
13:27:47.187500,9.15
13:27:47.203125,6.62
13:27:47.218750,3.62
13:27:47.234375,0.69
13:27:47.250000,-1.89
13:27:47.265625,-4.32
13:27:47.281250,-7.12
13:27:47.296875,-10.85
13:27:47.312500,-15.65
13:27:47.328125,-21.10
13:27:47.343750,-26.43
13:27:47.359375,-30.94
13:27:47.375000,-34.43
13:27:47.390625,-37.35
13:27:47.406250,-40.67
13:27:47.421875,-45.36
13:27:47.437500,-51.84
13:27:47.453125,-59.76
13:27:47.468750,-68.03
13:27:47.484375,-75.24
13:27:47.500000,-79.99
13:27:47.515625,-81.15
13:27:47.531250,-77.93
13:27:47.546875,-69.90
13:27:47.562500,-57.04
13:27:47.578125,-39.94
13:27:47.593750,-19.78
13:27:47.609375,1.73
13:27:47.625000,22.80
13:27:47.640625,41.94
13:27:47.656250,58.25
13:27:47.671875,71.57
13:27:47.687500,82.19
13:27:47.703125,90.54
13:27:47.718750,96.92
13:27:47.734375,101.51
13:27:47.750000,104.38
13:27:47.765625,105.60
13:27:47.781250,105.32
13:27:47.796875,103.74
13:27:47.812500,101.06
13:27:47.828125,97.49
13:27:47.843750,93.21
13:27:47.859375,88.40
13:27:47.875000,83.13
13:27:47.890625,77.47
13:27:47.906250,71.38
13:27:47.921875,64.81
13:27:47.937500,57.75
13:27:47.953125,50.19
13:27:47.968750,42.12
13:27:47.984375,33.56
13:27:48,24.47
13:27:48.015625,14.74
13:27:48.031250,4.22
13:27:48.046875,-7.27
13:27:48.062500,-19.69
13:27:48.078125,-32.58
13:27:48.093750,-45.01
13:27:48.109375,-55.62
13:27:48.125000,-62.97
13:27:48.140625,-65.95
13:27:48.156250,-64.12
13:27:48.171875,-57.66
13:27:48.187500,-47.31
13:27:48.203125,-33.86
13:27:48.218750,-17.99
13:27:48.234375,-0.10
13:27:48.250000,19.44
13:27:48.265625,40.17
13:27:48.281250,61.33
13:27:48.296875,81.93
13:27:48.312500,100.98
13:27:48.328125,117.63
13:27:48.343750,131.27
13:27:48.359375,141.56
13:27:48.375000,148.47
13:27:48.390625,152.19
13:27:48.406250,153.27
13:27:48.421875,152.47
13:27:48.437500,150.62
13:27:48.453125,148.39
13:27:48.468750,146.04
13:27:48.484375,143.44
13:27:48.500000,140.29
13:27:48.515625,136.53
13:27:48.531250,132.58
13:27:48.546875,129.27
13:27:48.562500,127.48
13:27:48.578125,127.71
13:27:48.593750,129.65
13:27:48.609375,132.42
13:27:48.625000,134.86
13:27:48.640625,136.22
13:27:48.656250,136.38
13:27:48.671875,135.94
13:27:48.687500,135.73
13:27:48.703125,136.37
13:27:48.718750,137.84
13:27:48.734375,139.39
13:27:48.750000,139.68
13:27:48.765625,137.11
13:27:48.781250,130.06
13:27:48.796875,117.14
13:27:48.812500,97.37
13:27:48.828125,70.42
13:27:48.843750,36.90
13:27:48.859375,-1.39
13:27:48.875000,-41.50
13:27:48.890625,-79.81
13:27:48.906250,-112.86
13:27:48.921875,-138.47
13:27:48.937500,-156.57
13:27:48.953125,-169.17
13:27:48.968750,-179.71
13:27:48.984375,-191.73
13:27:49,-207.61
13:27:49.015625,-227.82
13:27:49.031250,-250.91
13:27:49.046875,-274.21
13:27:49.062500,-294.84
13:27:49.078125,-310.70
13:27:49.093750,-321.10
13:27:49.109375,-326.79
13:27:49.125000,-329.33
13:27:49.140625,-330.16
13:27:49.156250,-329.73
13:27:49.171875,-327.13
13:27:49.187500,-320.51
13:27:49.203125,-307.97
13:27:49.218750,-288.64
13:27:49.234375,-263.10
13:27:49.250000,-233.05
13:27:49.265625,-200.70
13:27:49.281250,-167.98
13:27:49.296875,-136.51
13:27:49.312500,-107.76
13:27:49.328125,-83.38
13:27:49.343750,-64.95
13:27:49.359375,-53.38
13:27:49.375000,-48.35
13:27:49.390625,-48.21
13:27:49.406250,-50.65
13:27:49.421875,-53.67
13:27:49.437500,-56.41
13:27:49.453125,-59.14
13:27:49.468750,-62.71
13:27:49.484375,-67.66
13:27:49.500000,-73.67
13:27:49.515625,-79.50
13:27:49.531250,-83.44
13:27:49.546875,-83.91
13:27:49.562500,-79.84
13:27:49.578125,-70.89
13:27:49.593750,-57.27
13:27:49.609375,-39.64
13:27:49.625000,-18.82
13:27:49.640625,4.38
13:27:49.656250,29.21
13:27:49.671875,54.96
13:27:49.687500,80.80
13:27:49.703125,105.74
13:27:49.718750,128.66
13:27:49.734375,148.44
13:27:49.750000,164.23
13:27:49.765625,175.71
13:27:49.781250,183.00
13:27:49.796875,186.63
13:27:49.812500,187.23
13:27:49.828125,185.45
13:27:49.843750,181.85
13:27:49.859375,177.04
13:27:49.875000,171.78
13:27:49.890625,166.91
13:27:49.906250,163.16
13:27:49.921875,160.81
13:27:49.937500,159.53
13:27:49.953125,158.39
13:27:49.968750,156.22
13:27:49.984375,151.97
13:27:50,145.15
13:27:50.015625,135.88
13:27:50.031250,124.83
13:27:50.046875,112.89
13:27:50.062500,100.76
13:27:50.078125,88.80
13:27:50.093750,76.96
13:27:50.109375,64.86
13:27:50.125000,52.02
13:27:50.140625,38.07
13:27:50.156250,22.96
13:27:50.171875,7.08
13:27:50.187500,-8.62
13:27:50.203125,-22.79
13:27:50.218750,-33.90
13:27:50.234375,-40.69
13:27:50.250000,-42.51
13:27:50.265625,-39.56
13:27:50.281250,-32.82
13:27:50.296875,-23.63
13:27:50.312500,-13.21
13:27:50.328125,-2.24
13:27:50.343750,9.19
13:27:50.359375,21.30
13:27:50.375000,34.23
13:27:50.390625,47.65
13:27:50.406250,60.80
13:27:50.421875,72.77
13:27:50.437500,82.86
13:27:50.453125,90.86
13:27:50.468750,96.94
13:27:50.484375,101.44
13:27:50.500000,104.59
13:27:50.515625,106.44
13:27:50.531250,106.91
13:27:50.546875,106.04
13:27:50.562500,104.02
13:27:50.578125,101.21
13:27:50.593750,98.02
13:27:50.609375,94.74
13:27:50.625000,91.56
13:27:50.640625,88.57
13:27:50.656250,85.81
13:27:50.671875,83.25
13:27:50.687500,80.83
13:27:50.703125,78.38
13:27:50.718750,75.74
13:27:50.734375,72.78
13:27:50.750000,69.41
13:27:50.765625,65.58
13:27:50.781250,61.23
13:27:50.796875,56.27
13:27:50.812500,50.61
13:27:50.828125,44.29
13:27:50.843750,37.38
13:27:50.859375,29.99
13:27:50.875000,22.24
13:27:50.890625,14.14
13:27:50.906250,5.78
13:27:50.921875,-2.57
13:27:50.937500,-10.33
13:27:50.953125,-16.62
13:27:50.968750,-20.43
13:27:50.984375,-20.94
13:27:51,-17.76
13:27:51.015625,-11.12
13:27:51.031250,-1.80
13:27:51.046875,9.13
13:27:51.062500,20.58
13:27:51.078125,31.64
13:27:51.093750,41.67
13:27:51.109375,50.23
13:27:51.125000,57.01
13:27:51.140625,61.87
13:27:51.156250,64.81
13:27:51.171875,66.10
13:27:51.187500,66.23
13:27:51.203125,65.81
13:27:51.218750,65.39
13:27:51.234375,65.31
13:27:51.250000,65.60
13:27:51.265625,66.08
13:27:51.281250,66.45
13:27:51.296875,66.47
13:27:51.312500,65.98
13:27:51.328125,64.90
13:27:51.343750,63.16
13:27:51.359375,60.67
13:27:51.375000,57.36
13:27:51.390625,53.22
13:27:51.406250,48.37
13:27:51.421875,43.04
13:27:51.437500,37.52
13:27:51.453125,31.98
13:27:51.468750,26.50
13:27:51.484375,20.94
13:27:51.500000,15.10
13:27:51.515625,8.80
13:27:51.531250,1.89
13:27:51.546875,-5.65
13:27:51.562500,-13.82
13:27:51.578125,-22.44
13:27:51.593750,-31.18
13:27:51.609375,-39.35
13:27:51.625000,-46.03
13:27:51.640625,-50.20
13:27:51.656250,-51.09
13:27:51.671875,-48.47
13:27:51.687500,-42.69
13:27:51.703125,-34.57
13:27:51.718750,-25.07
13:27:51.734375,-15.00
13:27:51.750000,-4.85
13:27:51.765625,5.10
13:27:51.781250,14.61
13:27:51.796875,23.38
13:27:51.812500,31.04
13:27:51.828125,37.30
13:27:51.843750,42.10
13:27:51.859375,45.60
13:27:51.875000,48.05
13:27:51.890625,49.66
13:27:51.906250,50.45
13:27:51.921875,50.30
13:27:51.937500,49.14
13:27:51.953125,47.03
13:27:51.968750,44.26
13:27:51.984375,41.23
13:27:52,38.28
13:27:52.015625,35.61
13:27:52.031250,33.16
13:27:52.046875,30.74
13:27:52.062500,28.07
13:27:52.078125,24.92
13:27:52.093750,21.12
13:27:52.109375,16.67
13:27:52.125000,11.72
13:27:52.140625,6.61
13:27:52.156250,1.70
13:27:52.171875,-2.66
13:27:52.187500,-6.39
13:27:52.203125,-9.60
13:27:52.218750,-12.63
13:27:52.234375,-15.83
13:27:52.250000,-19.51
13:27:52.265625,-23.87
13:27:52.281250,-29.01
13:27:52.296875,-34.95
13:27:52.312500,-41.50
13:27:52.328125,-48.22
13:27:52.343750,-54.29
13:27:52.359375,-58.66
13:27:52.375000,-60.31
13:27:52.390625,-58.64
13:27:52.406250,-53.64
13:27:52.421875,-45.90
13:27:52.437500,-36.34
13:27:52.453125,-25.88
13:27:52.468750,-15.23
13:27:52.484375,-4.82
13:27:52.500000,5.08
13:27:52.515625,14.27
13:27:52.531250,22.53
13:27:52.546875,29.67
13:27:52.562500,35.60
13:27:52.578125,40.28
13:27:52.593750,43.77
13:27:52.609375,46.08
13:27:52.625000,47.24
13:27:52.640625,47.31
13:27:52.656250,46.45
13:27:52.671875,44.96
13:27:52.687500,43.14
13:27:52.703125,41.26
13:27:52.718750,39.37
13:27:52.734375,37.35
13:27:52.750000,34.99
13:27:52.765625,32.16
13:27:52.781250,28.87
13:27:52.796875,25.32
13:27:52.812500,21.75
13:27:52.828125,18.35
13:27:52.843750,15.10
13:27:52.859375,11.86
13:27:52.875000,8.41
13:27:52.890625,4.54
13:27:52.906250,0.20
13:27:52.921875,-4.58
13:27:52.937500,-9.62
13:27:52.953125,-14.76
13:27:52.968750,-19.80
13:27:52.984375,-24.66
13:27:53,-29.35
13:27:53.015625,-33.97
13:27:53.031250,-38.71
13:27:53.046875,-43.75
13:27:53.062500,-49.22
13:27:53.078125,-55.16
13:27:53.093750,-61.47
13:27:53.109375,-67.83
13:27:53.125000,-73.70
13:27:53.140625,-78.32
13:27:53.156250,-80.87
13:27:53.171875,-80.64
13:27:53.187500,-77.28
13:27:53.203125,-70.93
13:27:53.218750,-62.17
13:27:53.234375,-51.85
13:27:53.250000,-40.82
13:27:53.265625,-29.76
13:27:53.281250,-19.12
13:27:53.296875,-9.19
13:27:53.312500,-0.17
13:27:53.328125,7.74
13:27:53.343750,14.44
13:27:53.359375,19.90
13:27:53.375000,24.26
13:27:53.390625,27.66
13:27:53.406250,30.21
13:27:53.421875,32.01
13:27:53.437500,33.07
13:27:53.453125,33.44
13:27:53.468750,33.25
13:27:53.484375,32.64
13:27:53.500000,31.66
13:27:53.515625,30.27
13:27:53.531250,28.35
13:27:53.546875,25.80
13:27:53.562500,22.65
13:27:53.578125,19.13
13:27:53.593750,15.52
13:27:53.609375,12.06
13:27:53.625000,8.90
13:27:53.640625,6.03
13:27:53.656250,3.46
13:27:53.671875,1.20
13:27:53.687500,-0.69
13:27:53.703125,-2.22
13:27:53.718750,-3.58
13:27:53.734375,-5.12
13:27:53.750000,-7.25
13:27:53.765625,-10.20
13:27:53.781250,-13.94
13:27:53.796875,-18.14
13:27:53.812500,-22.32
13:27:53.828125,-26.03
13:27:53.843750,-29.05
13:27:53.859375,-31.39
13:27:53.875000,-33.29
13:27:53.890625,-35.12
13:27:53.906250,-37.25
13:27:53.921875,-40.07
13:27:53.937500,-43.85
13:27:53.953125,-48.63
13:27:53.968750,-54.16
13:27:53.984375,-59.80
13:27:54,-64.65
13:27:54.015625,-67.71
13:27:54.031250,-68.21
13:27:54.046875,-65.76
13:27:54.062500,-60.55
13:27:54.078125,-53.14
13:27:54.093750,-44.30
13:27:54.109375,-34.74
13:27:54.125000,-24.99
13:27:54.140625,-15.33
13:27:54.156250,-5.94
13:27:54.171875,3.02
13:27:54.187500,11.30
13:27:54.203125,18.63
13:27:54.218750,24.72
13:27:54.234375,29.41
13:27:54.250000,32.66
13:27:54.265625,34.60
13:27:54.281250,35.42
13:27:54.296875,35.45
13:27:54.312500,35.02
13:27:54.328125,34.41
13:27:54.343750,33.77
13:27:54.359375,33.17
13:27:54.375000,32.50
13:27:54.390625,31.67
13:27:54.406250,30.67
13:27:54.421875,29.55
13:27:54.437500,28.31
13:27:54.453125,26.95
13:27:54.468750,25.34
13:27:54.484375,23.33
13:27:54.500000,20.87
13:27:54.515625,18.06
13:27:54.531250,15.17
13:27:54.546875,12.48
13:27:54.562500,10.14
13:27:54.578125,8.11
13:27:54.593750,6.15
13:27:54.609375,3.96
13:27:54.625000,1.32
13:27:54.640625,-1.84
13:27:54.656250,-5.46
13:27:54.671875,-9.39
13:27:54.687500,-13.50
13:27:54.703125,-17.76
13:27:54.718750,-22.16
13:27:54.734375,-26.80
13:27:54.750000,-31.80
13:27:54.765625,-37.29
13:27:54.781250,-43.36
13:27:54.796875,-49.96
13:27:54.812500,-56.82
13:27:54.828125,-63.36
13:27:54.843750,-68.76
13:27:54.859375,-72.10
13:27:54.875000,-72.65
13:27:54.890625,-70.08
13:27:54.906250,-64.62
13:27:54.921875,-56.95
13:27:54.937500,-47.94
13:27:54.953125,-38.32
13:27:54.968750,-28.58
13:27:54.984375,-18.95
13:27:55,-9.56
13:27:55.015625,-0.68
13:27:55.031250,7.32
13:27:55.046875,14.04
13:27:55.062500,19.23
13:27:55.078125,22.91
13:27:55.093750,25.38
13:27:55.109375,27.03
13:27:55.125000,28.15
13:27:55.140625,28.88
13:27:55.156250,29.22
13:27:55.171875,29.11
13:27:55.187500,28.60
13:27:55.203125,27.90
13:27:55.218750,27.29
13:27:55.234375,27.01
13:27:55.250000,27.12
13:27:55.265625,27.42
13:27:55.281250,27.55
13:27:55.296875,27.06
13:27:55.312500,25.71
13:27:55.328125,23.47
13:27:55.343750,20.59
13:27:55.359375,17.48
13:27:55.375000,14.46
13:27:55.390625,11.68
13:27:55.406250,9.08
13:27:55.421875,6.46
13:27:55.437500,3.63
13:27:55.453125,0.51
13:27:55.468750,-2.85
13:27:55.484375,-6.35
13:27:55.500000,-9.89
13:27:55.515625,-13.42
13:27:55.531250,-16.98
13:27:55.546875,-20.62
13:27:55.562500,-24.43
13:27:55.578125,-28.51
13:27:55.593750,-32.99
13:27:55.609375,-37.97
13:27:55.625000,-43.51
13:27:55.640625,-49.50
13:27:55.656250,-55.58
13:27:55.671875,-61.13
13:27:55.687500,-65.28
13:27:55.703125,-67.15
13:27:55.718750,-66.12
13:27:55.734375,-62.05
13:27:55.750000,-55.35
13:27:55.765625,-46.84
13:27:55.781250,-37.47
13:27:55.796875,-27.99
13:27:55.812500,-18.84
13:27:55.828125,-10.18
13:27:55.843750,-2.07
13:27:55.859375,5.37
13:27:55.875000,11.93
13:27:55.890625,17.39
13:27:55.906250,21.64
13:27:55.921875,24.77
13:27:55.937500,26.99
13:27:55.953125,28.55
13:27:55.968750,29.61
13:27:55.984375,30.27
13:27:56,30.50
13:27:56.015625,30.31
13:27:56.031250,29.71
13:27:56.046875,28.82
13:27:56.062500,27.75
13:27:56.078125,26.66
13:27:56.093750,25.69
13:27:56.109375,24.87
13:27:56.125000,24.09
13:27:56.140625,23.13
13:27:56.156250,21.75
13:27:56.171875,19.78
13:27:56.187500,17.20
13:27:56.203125,14.20
13:27:56.218750,11.02
13:27:56.234375,7.84
13:27:56.250000,4.69
13:27:56.265625,1.47
13:27:56.281250,-1.99
13:27:56.296875,-5.77
13:27:56.312500,-9.84
13:27:56.328125,-14.03
13:27:56.343750,-18.14
13:27:56.359375,-22.07
13:27:56.375000,-25.83
13:27:56.390625,-29.55
13:27:56.406250,-33.39
13:27:56.421875,-37.50
13:27:56.437500,-42.02
13:27:56.453125,-46.93
13:27:56.468750,-52.11
13:27:56.484375,-57.13
13:27:56.500000,-61.40
13:27:56.515625,-64.15
13:27:56.531250,-64.67
13:27:56.546875,-62.46
13:27:56.562500,-57.49
13:27:56.578125,-50.19
13:27:56.593750,-41.34
13:27:56.609375,-31.84
13:27:56.625000,-22.48
13:27:56.640625,-13.77
13:27:56.656250,-5.92
13:27:56.671875,1.05
13:27:56.687500,7.16
13:27:56.703125,12.44
13:27:56.718750,16.84
13:27:56.734375,20.34
13:27:56.750000,22.97
13:27:56.765625,24.85
13:27:56.781250,26.18
13:27:56.796875,27.16
13:27:56.812500,27.95
13:27:56.828125,28.62
13:27:56.843750,29.18
13:27:56.859375,29.62
13:27:56.875000,29.90
13:27:56.890625,29.94
13:27:56.906250,29.66
13:27:56.921875,28.96
13:27:56.937500,27.80
13:27:56.953125,26.19
13:27:56.968750,24.25
13:27:56.984375,22.13
13:27:57,19.94
13:27:57.015625,17.71
13:27:57.031250,15.37
13:27:57.046875,12.75
13:27:57.062500,9.74
13:27:57.078125,6.29
13:27:57.093750,2.47
13:27:57.109375,-1.58
13:27:57.125000,-5.71
13:27:57.140625,-9.83
13:27:57.156250,-13.95
13:27:57.171875,-18.14
13:27:57.187500,-22.56
13:27:57.203125,-27.33
13:27:57.218750,-32.57
13:27:57.234375,-38.35
13:27:57.250000,-44.61
13:27:57.265625,-51.15
13:27:57.281250,-57.47
13:27:57.296875,-62.87
13:27:57.312500,-66.48
13:27:57.328125,-67.57
13:27:57.343750,-65.70
13:27:57.359375,-60.92
13:27:57.375000,-53.78
13:27:57.390625,-45.03
13:27:57.406250,-35.48
13:27:57.421875,-25.71
13:27:57.437500,-16.10
13:27:57.453125,-6.84
13:27:57.468750,1.83
13:27:57.484375,9.65
13:27:57.500000,16.30
13:27:57.515625,21.53
13:27:57.531250,25.31
13:27:57.546875,27.81
13:27:57.562500,29.34
13:27:57.578125,30.22
13:27:57.593750,30.77
13:27:57.609375,31.16
13:27:57.625000,31.52
13:27:57.640625,31.86
13:27:57.656250,32.17
13:27:57.671875,32.35
13:27:57.687500,32.29
13:27:57.703125,31.87
13:27:57.718750,31.01
13:27:57.734375,29.69
13:27:57.750000,27.95
13:27:57.765625,25.85
13:27:57.781250,23.46
13:27:57.796875,20.85
13:27:57.812500,18.05
13:27:57.828125,15.08
13:27:57.843750,11.94
13:27:57.859375,8.60
13:27:57.875000,5.08
13:27:57.890625,1.39
13:27:57.906250,-2.42
13:27:57.921875,-6.30
13:27:57.937500,-10.20
13:27:57.953125,-14.10
13:27:57.968750,-18.05
13:27:57.984375,-22.15
13:27:58,-26.59
13:27:58.015625,-31.59
13:27:58.031250,-37.28
13:27:58.046875,-43.54
13:27:58.062500,-49.91
13:27:58.078125,-55.56
13:27:58.093750,-59.48
13:27:58.109375,-60.78
13:27:58.125000,-58.97
13:27:58.140625,-54.15
13:27:58.156250,-46.98
13:27:58.171875,-38.43
13:27:58.187500,-29.39
13:27:58.203125,-20.49
13:27:58.218750,-12.03
13:27:58.234375,-4.10
13:27:58.250000,3.18
13:27:58.265625,9.65
13:27:58.281250,15.08
13:27:58.296875,19.38
13:27:58.312500,22.62
13:27:58.328125,25.12
13:27:58.343750,27.20
13:27:58.359375,29.09
13:27:58.375000,30.79
13:27:58.390625,32.11
13:27:58.406250,32.84
13:27:58.421875,32.86
13:27:58.437500,32.25
13:27:58.453125,31.26
13:27:58.468750,30.14
13:27:58.484375,29.06
13:27:58.500000,28.03
13:27:58.515625,26.95
13:27:58.531250,25.69
13:27:58.546875,24.18
13:27:58.562500,22.43
13:27:58.578125,20.50
13:27:58.593750,18.40
13:27:58.609375,16.08
13:27:58.625000,13.42
13:27:58.640625,10.33
13:27:58.656250,6.81
13:27:58.671875,2.95
13:27:58.687500,-1.06
13:27:58.703125,-5.08
13:27:58.718750,-9.03
13:27:58.734375,-12.94
13:27:58.750000,-16.92
13:27:58.765625,-21.09
13:27:58.781250,-25.57
13:27:58.796875,-30.47
13:27:58.812500,-35.91
13:27:58.828125,-41.89
13:27:58.843750,-48.17
13:27:58.859375,-54.15
13:27:58.875000,-58.90
13:27:58.890625,-61.42
13:27:58.906250,-60.91
13:27:58.921875,-57.14
13:27:58.937500,-50.45
13:27:58.953125,-41.75
13:27:58.968750,-32.07
13:27:58.984375,-22.31
13:27:59,-13.03
13:27:59.015625,-4.44
13:27:59.031250,3.40
13:27:59.046875,10.45
13:27:59.062500,16.57
13:27:59.078125,21.63
13:27:59.093750,25.52
13:27:59.109375,28.33
13:27:59.125000,30.25
13:27:59.140625,31.53
13:27:59.156250,32.40
13:27:59.171875,33.01
13:27:59.187500,33.44
13:27:59.203125,33.68
13:27:59.218750,33.67
13:27:59.234375,33.38
13:27:59.250000,32.75
13:27:59.265625,31.79
13:27:59.281250,30.52
13:27:59.296875,28.99
13:27:59.312500,27.22
13:27:59.328125,25.25
13:27:59.343750,23.11
13:27:59.359375,20.83
13:27:59.375000,18.48
13:27:59.390625,16.11
13:27:59.406250,13.72
13:27:59.421875,11.24
13:27:59.437500,8.51
13:27:59.453125,5.41
13:27:59.468750,1.91
13:27:59.484375,-1.87
13:27:59.500000,-5.78
13:27:59.515625,-9.62
13:27:59.531250,-13.38
13:27:59.546875,-17.13
13:27:59.562500,-21.13
13:27:59.578125,-25.63
13:27:59.593750,-30.86
13:27:59.609375,-36.88
13:27:59.625000,-43.56
13:27:59.640625,-50.54
13:27:59.656250,-57.24
13:27:59.671875,-62.96
13:27:59.687500,-66.94
13:27:59.703125,-68.56
13:27:59.718750,-67.45
13:27:59.734375,-63.60
13:27:59.750000,-57.37
13:27:59.765625,-49.42
13:27:59.781250,-40.52
13:27:59.796875,-31.41
13:27:59.812500,-22.64
13:27:59.828125,-14.51
13:27:59.843750,-7.13
13:27:59.859375,-0.51
13:27:59.875000,5.33
13:27:59.890625,10.30
13:27:59.906250,14.31
13:27:59.921875,17.28
13:27:59.937500,19.29
13:27:59.953125,20.54
13:27:59.968750,21.31
13:27:59.984375,21.83
13:28:00,22.23
13:28:00.015625,22.47
13:28:00.031250,22.48
13:28:00.046875,22.21
13:28:00.062500,21.72
13:28:00.078125,21.17
13:28:00.093750,20.67
13:28:00.109375,20.25
13:28:00.125000,19.80
13:28:00.140625,19.09
13:28:00.156250,17.93
13:28:00.171875,16.25
13:28:00.187500,14.19
13:28:00.203125,11.99
13:28:00.218750,9.85
13:28:00.234375,7.84
13:28:00.250000,5.80
13:28:00.265625,3.49
13:28:00.281250,0.68
13:28:00.296875,-2.66
13:28:00.312500,-6.41
13:28:00.328125,-10.29
13:28:00.343750,-14.07
13:28:00.359375,-17.62
13:28:00.375000,-21.01
13:28:00.390625,-24.38
13:28:00.406250,-27.98
13:28:00.421875,-32.01
13:28:00.437500,-36.58
13:28:00.453125,-41.58
13:28:00.468750,-46.68
13:28:00.484375,-51.26
13:28:00.500000,-54.56
13:28:00.515625,-55.85
13:28:00.531250,-54.64
13:28:00.546875,-50.85
13:28:00.562500,-44.76
13:28:00.578125,-36.91
13:28:00.593750,-27.96
13:28:00.609375,-18.53
13:28:00.625000,-9.13
13:28:00.640625,-0.18
13:28:00.656250,8.01
13:28:00.671875,15.19
13:28:00.687500,21.27
13:28:00.703125,26.24
13:28:00.718750,30.19
13:28:00.734375,33.26
13:28:00.750000,35.63
13:28:00.765625,37.39
13:28:00.781250,38.61
13:28:00.796875,39.30
13:28:00.812500,39.46
13:28:00.828125,39.17
13:28:00.843750,38.54
13:28:00.859375,37.76
13:28:00.875000,37.02
13:28:00.890625,36.43
13:28:00.906250,35.93
13:28:00.921875,35.33
13:28:00.937500,34.33
13:28:00.953125,32.72
13:28:00.968750,30.39
13:28:00.984375,27.37
13:28:01,23.80
13:28:01.015625,19.82
13:28:01.031250,15.53
13:28:01.046875,10.97
13:28:01.062500,6.17
13:28:01.078125,1.20
13:28:01.093750,-3.87
13:28:01.109375,-8.95
13:28:01.125000,-13.94
13:28:01.140625,-18.86
13:28:01.156250,-23.73
13:28:01.171875,-28.64
13:28:01.187500,-33.72
13:28:01.203125,-39.03
13:28:01.218750,-44.65
13:28:01.234375,-50.54
13:28:01.250000,-56.56
13:28:01.265625,-62.36
13:28:01.281250,-67.32
13:28:01.296875,-70.72
13:28:01.312500,-71.78
13:28:01.328125,-69.97
13:28:01.343750,-65.18
13:28:01.359375,-57.77
13:28:01.375000,-48.50
13:28:01.390625,-38.31
13:28:01.406250,-28.04
13:28:01.421875,-18.27
13:28:01.437500,-9.32
13:28:01.453125,-1.31
13:28:01.468750,5.63
13:28:01.484375,11.30
13:28:01.500000,15.48
13:28:01.515625,18.00
13:28:01.531250,18.96
13:28:01.546875,18.68
13:28:01.562500,17.64
13:28:01.578125,16.29
13:28:01.593750,14.83
13:28:01.609375,13.21
13:28:01.625000,11.16
13:28:01.640625,8.35
13:28:01.656250,4.67
13:28:01.671875,0.25
13:28:01.687500,-4.43
13:28:01.703125,-8.70
13:28:01.718750,-11.83
13:28:01.734375,-13.22
13:28:01.750000,-12.55
13:28:01.765625,-9.79
13:28:01.781250,-5.27
13:28:01.796875,0.37
13:28:01.812500,6.26
13:28:01.828125,11.50
13:28:01.843750,15.32
13:28:01.859375,17.34
13:28:01.875000,17.74
13:28:01.890625,17.12
13:28:01.906250,16.33
13:28:01.921875,16.07
13:28:01.937500,16.59
13:28:01.953125,17.54
13:28:01.968750,18.21
13:28:01.984375,17.71
13:28:02,15.34
13:28:02.015625,10.83
13:28:02.031250,4.29
13:28:02.046875,-3.76
13:28:02.062500,-12.46
13:28:02.078125,-20.68
13:28:02.093750,-27.16
13:28:02.109375,-30.71
13:28:02.125000,-30.61
13:28:02.140625,-26.86
13:28:02.156250,-20.19
13:28:02.171875,-11.93
13:28:02.187500,-3.48
13:28:02.203125,4.13
13:28:02.218750,10.45
13:28:02.234375,15.54
13:28:02.250000,19.68
13:28:02.265625,23.08
13:28:02.281250,25.75
13:28:02.296875,27.58
13:28:02.312500,28.48
13:28:02.328125,28.53
13:28:02.343750,27.91
13:28:02.359375,26.86
13:28:02.375000,25.55
13:28:02.390625,24.01
13:28:02.406250,22.20
13:28:02.421875,20.14
13:28:02.437500,17.95
13:28:02.453125,15.88
13:28:02.468750,14.21
13:28:02.484375,13.12
13:28:02.500000,12.65
13:28:02.515625,12.68
13:28:02.531250,12.95
13:28:02.546875,13.12
13:28:02.562500,12.83
13:28:02.578125,11.78
13:28:02.593750,9.76
13:28:02.609375,6.73
13:28:02.625000,2.84
13:28:02.640625,-1.58
13:28:02.656250,-6.14
13:28:02.671875,-10.56
13:28:02.687500,-14.77
13:28:02.703125,-18.95
13:28:02.718750,-23.42
13:28:02.734375,-28.47
13:28:02.750000,-34.23
13:28:02.765625,-40.65
13:28:02.781250,-47.59
13:28:02.796875,-54.93
13:28:02.812500,-62.58
13:28:02.828125,-70.37
13:28:02.843750,-77.91
13:28:02.859375,-84.50
13:28:02.875000,-89.20
13:28:02.890625,-91.20
13:28:02.906250,-90.05
13:28:02.921875,-85.85
13:28:02.937500,-79.21
13:28:02.953125,-70.94
13:28:02.968750,-61.70
13:28:02.984375,-51.84
13:28:03,-41.42
13:28:03.015625,-30.48
13:28:03.031250,-19.23
13:28:03.046875,-8.18
13:28:03.062500,1.99
13:28:03.078125,10.73
13:28:03.093750,17.85
13:28:03.109375,23.62
13:28:03.125000,28.61
13:28:03.140625,33.44
13:28:03.156250,38.47
13:28:03.171875,43.73
13:28:03.187500,48.99
13:28:03.203125,53.83
13:28:03.218750,57.93
13:28:03.234375,61.04
13:28:03.250000,63.11
13:28:03.265625,64.23
13:28:03.281250,64.60
13:28:03.296875,64.52
13:28:03.312500,64.27
13:28:03.328125,64.06
13:28:03.343750,63.85
13:28:03.359375,63.39
13:28:03.375000,62.29
13:28:03.390625,60.18
13:28:03.406250,56.92
13:28:03.421875,52.69
13:28:03.437500,47.92
13:28:03.453125,43.07
13:28:03.468750,38.47
13:28:03.484375,34.21
13:28:03.500000,30.10
13:28:03.515625,25.78
13:28:03.531250,20.93
13:28:03.546875,15.24
13:28:03.562500,8.54
13:28:03.578125,0.82
13:28:03.593750,-7.66
13:28:03.609375,-16.31
13:28:03.625000,-24.17
13:28:03.640625,-30.15
13:28:03.656250,-33.23
13:28:03.671875,-32.94
13:28:03.687500,-29.42
13:28:03.703125,-23.45
13:28:03.718750,-16.08
13:28:03.734375,-8.33
13:28:03.750000,-0.85
13:28:03.765625,6.07
13:28:03.781250,12.35
13:28:03.796875,17.96
13:28:03.812500,22.75
13:28:03.828125,26.45
13:28:03.843750,28.77
13:28:03.859375,29.55
13:28:03.875000,28.82
13:28:03.890625,26.89
13:28:03.906250,24.35
13:28:03.921875,21.97
13:28:03.937500,20.54
13:28:03.953125,20.70
13:28:03.968750,22.65
13:28:03.984375,26.15
13:28:04,30.44
13:28:04.015625,34.51
13:28:04.031250,37.36
13:28:04.046875,38.19
13:28:04.062500,36.71
13:28:04.078125,33.15
13:28:04.093750,28.20
13:28:04.109375,22.86
13:28:04.125000,18.17
13:28:04.140625,14.88
13:28:04.156250,13.30
13:28:04.171875,13.18
13:28:04.187500,13.94
13:28:04.203125,14.87
13:28:04.218750,15.38
13:28:04.234375,15.15
13:28:04.250000,14.00
13:28:04.265625,11.87
13:28:04.281250,8.68
13:28:04.296875,4.37
13:28:04.312500,-1.06
13:28:04.328125,-7.44
13:28:04.343750,-14.42
13:28:04.359375,-21.48
13:28:04.375000,-28.02
13:28:04.390625,-33.41
13:28:04.406250,-37.09
13:28:04.421875,-38.58
13:28:04.437500,-37.62
13:28:04.453125,-34.22
13:28:04.468750,-28.68
13:28:04.484375,-21.54
13:28:04.500000,-13.49
13:28:04.515625,-5.16
13:28:04.531250,2.88
13:28:04.546875,10.26
13:28:04.562500,16.74
13:28:04.578125,22.20
13:28:04.593750,26.62
13:28:04.609375,30.06
13:28:04.625000,32.68
13:28:04.640625,34.68
13:28:04.656250,36.16
13:28:04.671875,37.15
13:28:04.687500,37.49
13:28:04.703125,37.06
13:28:04.718750,35.80
13:28:04.734375,33.86
13:28:04.750000,31.58
13:28:04.765625,29.36
13:28:04.781250,27.48
13:28:04.796875,26.03
13:28:04.812500,24.88
13:28:04.828125,23.75
13:28:04.843750,22.40
13:28:04.859375,20.63
13:28:04.875000,18.30
13:28:04.890625,15.26
13:28:04.906250,11.35
13:28:04.921875,6.43
13:28:04.937500,0.52
13:28:04.953125,-6.10
13:28:04.968750,-12.94
13:28:04.984375,-19.43
13:28:05,-25.22
13:28:05.015625,-30.44
13:28:05.031250,-35.69
13:28:05.046875,-41.89
13:28:05.062500,-49.76
13:28:05.078125,-59.30
13:28:05.093750,-69.56
13:28:05.109375,-78.71
13:28:05.125000,-84.62
13:28:05.140625,-85.63
13:28:05.156250,-81.22
13:28:05.171875,-72.18
13:28:05.187500,-60.46
13:28:05.203125,-48.52
13:28:05.218750,-38.64
13:28:05.234375,-32.52
13:28:05.250000,-31.13
13:28:05.265625,-34.68
13:28:05.281250,-42.39
13:28:05.296875,-52.43
13:28:05.312500,-61.92
13:28:05.328125,-67.74
13:28:05.343750,-67.62
13:28:05.359375,-61.04
13:28:05.375000,-49.43
13:28:05.390625,-35.51
13:28:05.406250,-22.00
13:28:05.421875,-10.64
13:28:05.437500,-1.76
13:28:05.453125,5.39
13:28:05.468750,11.73
13:28:05.484375,17.77
13:28:05.500000,23.43
13:28:05.515625,28.35
13:28:05.531250,32.36
13:28:05.546875,35.59
13:28:05.562500,38.20
13:28:05.578125,40.11
13:28:05.593750,40.91
13:28:05.609375,40.05
13:28:05.625000,37.23
13:28:05.640625,32.57
13:28:05.656250,26.72
13:28:05.671875,20.63
13:28:05.687500,15.38
13:28:05.703125,11.79
13:28:05.718750,10.18
13:28:05.734375,10.27
13:28:05.750000,11.34
13:28:05.765625,12.55
13:28:05.781250,13.36
13:28:05.796875,13.75
13:28:05.812500,14.16
13:28:05.828125,15.21
13:28:05.843750,17.26
13:28:05.859375,20.15
13:28:05.875000,23.25
13:28:05.890625,25.73
13:28:05.906250,27.04
13:28:05.921875,27.18
13:28:05.937500,26.67
13:28:05.953125,26.27
13:28:05.968750,26.56
13:28:05.984375,27.70
13:28:06,29.45
13:28:06.015625,31.46
13:28:06.031250,33.49
13:28:06.046875,35.55
13:28:06.062500,37.80
13:28:06.078125,40.23
13:28:06.093750,42.48
13:28:06.109375,43.86
13:28:06.125000,43.65
13:28:06.140625,41.41
13:28:06.156250,37.27
13:28:06.171875,31.88
13:28:06.187500,26.13
13:28:06.203125,20.82
13:28:06.218750,16.48
13:28:06.234375,13.30
13:28:06.250000,11.27
13:28:06.265625,10.35
13:28:06.281250,10.44
13:28:06.296875,11.35
13:28:06.312500,12.71
13:28:06.328125,13.94
13:28:06.343750,14.45
13:28:06.359375,13.85
13:28:06.375000,12.11
13:28:06.390625,9.60
13:28:06.406250,6.91
13:28:06.421875,4.63
13:28:06.437500,3.11
13:28:06.453125,2.37
13:28:06.468750,2.23
13:28:06.484375,2.55
13:28:06.500000,3.40
13:28:06.515625,5.25
13:28:06.531250,8.80
13:28:06.546875,14.70
13:28:06.562500,23.25
13:28:06.578125,34.21
13:28:06.593750,46.92
13:28:06.609375,60.49
13:28:06.625000,74.11
13:28:06.640625,87.10
13:28:06.656250,98.95
13:28:06.671875,109.25
13:28:06.687500,117.61
13:28:06.703125,123.70
13:28:06.718750,127.27
13:28:06.734375,128.16
13:28:06.750000,126.37
13:28:06.765625,121.94
13:28:06.781250,115.00
13:28:06.796875,105.57
13:28:06.812500,93.61
13:28:06.828125,79.04
13:28:06.843750,61.91
13:28:06.859375,42.63
13:28:06.875000,22.16
13:28:06.890625,1.86
13:28:06.906250,-16.82
13:28:06.921875,-32.77
13:28:06.937500,-45.60
13:28:06.953125,-55.66
13:28:06.968750,-63.74
13:28:06.984375,-70.60
13:28:07,-76.62
13:28:07.015625,-81.78
13:28:07.031250,-85.88
13:28:07.046875,-88.92
13:28:07.062500,-91.23
13:28:07.078125,-93.33
13:28:07.093750,-95.60
13:28:07.109375,-98.01
13:28:07.125000,-100.04
13:28:07.140625,-100.74
13:28:07.156250,-99.19
13:28:07.171875,-94.77
13:28:07.187500,-87.37
13:28:07.203125,-77.42
13:28:07.218750,-65.62
13:28:07.234375,-52.73
13:28:07.250000,-39.33
13:28:07.265625,-25.81
13:28:07.281250,-12.44
13:28:07.296875,0.40
13:28:07.312500,12.30
13:28:07.328125,22.93
13:28:07.343750,32.35
13:28:07.359375,41.31
13:28:07.375000,51.21
13:28:07.390625,63.70
13:28:07.406250,79.97
13:28:07.421875,99.95
13:28:07.437500,121.85
13:28:07.453125,142.23
13:28:07.468750,156.73
13:28:07.484375,161.13
13:28:07.500000,152.51
13:28:07.515625,130.21
13:28:07.531250,96.01
13:28:07.546875,53.66
13:28:07.562500,7.92
13:28:07.578125,-36.76
13:28:07.593750,-77.22
13:28:07.609375,-111.96
13:28:07.625000,-140.90
13:28:07.640625,-164.82
13:28:07.656250,-184.75
13:28:07.671875,-201.94
13:28:07.687500,-217.92
13:28:07.703125,-234.34
13:28:07.718750,-252.31
13:28:07.734375,-271.34
13:28:07.750000,-288.65
13:28:07.765625,-299.75
13:28:07.781250,-300.25
13:28:07.796875,-288.30
13:28:07.812500,-265.85
13:28:07.828125,-237.98
13:28:07.843750,-210.34
13:28:07.859375,-186.18
13:28:07.875000,-164.87
13:28:07.890625,-142.62
13:28:07.906250,-114.77
13:28:07.921875,-78.50
13:28:07.937500,-34.01
13:28:07.953125,15.91
13:28:07.968750,67.57
13:28:07.984375,117.79
13:28:08,164.52
13:28:08.015625,206.45
13:28:08.031250,242.40
13:28:08.046875,271.07
13:28:08.062500,291.53
13:28:08.078125,303.91
13:28:08.093750,309.77
13:28:08.109375,311.79
13:28:08.125000,312.73
13:28:08.140625,314.40
13:28:08.156250,316.99
13:28:08.171875,319.13
13:28:08.187500,318.56
13:28:08.203125,313.02
13:28:08.218750,301.03
13:28:08.234375,282.16
13:28:08.250000,256.79
13:28:08.265625,225.96
13:28:08.281250,191.34
13:28:08.296875,155.33
13:28:08.312500,121.04
13:28:08.328125,91.88
13:28:08.343750,70.59
13:28:08.359375,58.47
13:28:08.375000,54.85
13:28:08.390625,57.44
13:28:08.406250,63.33
13:28:08.421875,69.84
13:28:08.437500,75.23
13:28:08.453125,78.56
13:28:08.468750,79.50
13:28:08.484375,77.85
13:28:08.500000,73.35
13:28:08.515625,65.81
13:28:08.531250,55.20
13:28:08.546875,41.64
13:28:08.562500,25.52
13:28:08.578125,7.50
13:28:08.593750,-11.33
13:28:08.609375,-29.32
13:28:08.625000,-44.44
13:28:08.640625,-54.45
13:28:08.656250,-57.54
13:28:08.671875,-52.90
13:28:08.687500,-41.27
13:28:08.703125,-25.11
13:28:08.718750,-8.15
13:28:08.734375,5.66
13:28:08.750000,13.46
13:28:08.765625,14.45
13:28:08.781250,10.38
13:28:08.796875,4.75
13:28:08.812500,1.47
13:28:08.828125,3.31
13:28:08.843750,10.82
13:28:08.859375,22.33
13:28:08.875000,34.78
13:28:08.890625,45.05
13:28:08.906250,51.04
13:28:08.921875,52.12
13:28:08.937500,48.95
13:28:08.953125,42.74
13:28:08.968750,34.74
13:28:08.984375,26.02
13:28:09,17.50
13:28:09.015625,10.21
13:28:09.031250,5.43
13:28:09.046875,4.23
13:28:09.062500,7.12
13:28:09.078125,13.46
13:28:09.093750,21.55
13:28:09.109375,29.14
13:28:09.125000,34.27
13:28:09.140625,36.05
13:28:09.156250,35.01
13:28:09.171875,32.55
13:28:09.187500,30.16
13:28:09.203125,28.47
13:28:09.218750,26.77
13:28:09.234375,23.21
13:28:09.250000,15.65
13:28:09.265625,2.73
13:28:09.281250,-15.39
13:28:09.296875,-37.02
13:28:09.312500,-59.67
13:28:09.328125,-81.04
13:28:09.343750,-100.09
13:28:09.359375,-117.37
13:28:09.375000,-134.70
13:28:09.390625,-154.39
13:28:09.406250,-178.48
13:28:09.421875,-208.15
13:28:09.437500,-243.19
13:28:09.453125,-281.65
13:28:09.468750,-319.60
13:28:09.484375,-351.62
13:28:09.500000,-372.07
13:28:09.515625,-377.11
13:28:09.531250,-366.52
13:28:09.546875,-344.20
13:28:09.562500,-317.00
13:28:09.578125,-292.00
13:28:09.593750,-273.80
13:28:09.609375,-262.92
13:28:09.625000,-256.30
13:28:09.640625,-249.40
13:28:09.656250,-238.66
13:28:09.671875,-223.11
13:28:09.687500,-204.17
13:28:09.703125,-184.34
13:28:09.718750,-165.53
13:28:09.734375,-148.28
13:28:09.750000,-131.95
13:28:09.765625,-115.85
13:28:09.781250,-100.15
13:28:09.796875,-86.36
13:28:09.812500,-76.82
13:28:09.828125,-73.61
13:28:09.843750,-77.41
13:28:09.859375,-87.03
13:28:09.875000,-99.86
13:28:09.890625,-113.07
13:28:09.906250,-124.87
13:28:09.921875,-135.34
13:28:09.937500,-146.09
13:28:09.953125,-159.15
13:28:09.968750,-175.52
13:28:09.984375,-194.23
13:28:10,-212.36
13:28:10.015625,-226.10
13:28:10.031250,-232.45
13:28:10.046875,-230.62
13:28:10.062500,-222.69
13:28:10.078125,-212.87
13:28:10.093750,-205.89
13:28:10.109375,-205.02
13:28:10.125000,-210.86
13:28:10.140625,-220.82
13:28:10.156250,-230.15
13:28:10.171875,-233.51
13:28:10.187500,-226.51
13:28:10.203125,-206.88
13:28:10.218750,-175.07
13:28:10.234375,-134.65
13:28:10.250000,-92.09
13:28:10.265625,-55.50
13:28:10.281250,-32.22
13:28:10.296875,-25.75
13:28:10.312500,-33.56
13:28:10.328125,-47.31
13:28:10.343750,-56.24
13:28:10.359375,-52.11
13:28:10.375000,-33.55
13:28:10.390625,-6.87
13:28:10.406250,17.08
13:28:10.421875,28.65
13:28:10.437500,24.23
13:28:10.453125,7.74
13:28:10.468750,-11.94
13:28:10.484375,-25.88
13:28:10.500000,-29.25
13:28:10.515625,-22.79
13:28:10.531250,-10.94
13:28:10.546875,1.25
13:28:10.562500,10.79
13:28:10.578125,17.42
13:28:10.593750,22.98
13:28:10.609375,29.84
13:28:10.625000,39.94
13:28:10.640625,54.77
13:28:10.656250,75.71
13:28:10.671875,103.81
13:28:10.687500,138.60
13:28:10.703125,176.82
13:28:10.718750,212.04
13:28:10.734375,236.17
13:28:10.750000,242.39
13:28:10.765625,228.19
13:28:10.781250,196.83
13:28:10.796875,156.24
13:28:10.812500,116.02
13:28:10.828125,84.00
13:28:10.843750,64.17
13:28:10.859375,56.65
13:28:10.875000,59.15
13:28:10.890625,68.80
13:28:10.906250,83.22
13:28:10.921875,100.81
13:28:10.937500,120.55
13:28:10.953125,142.02
13:28:10.968750,165.71
13:28:10.984375,193.37
13:28:11,227.58
13:28:11.015625,270.71
13:28:11.031250,323.52
13:28:11.046875,383.98
13:28:11.062500,447.16
13:28:11.078125,505.87
13:28:11.093750,552.35
13:28:11.109375,580.19
13:28:11.125000,585.93
13:28:11.140625,569.83
13:28:11.156250,535.63
13:28:11.171875,489.34
13:28:11.187500,437.55
13:28:11.203125,385.86
13:28:11.218750,337.97
13:28:11.234375,295.58
13:28:11.250000,258.88
13:28:11.265625,227.23
13:28:11.281250,199.60
13:28:11.296875,174.80
13:28:11.312500,151.41
13:28:11.328125,127.93
13:28:11.343750,102.89
13:28:11.359375,75.23
13:28:11.375000,44.34
13:28:11.390625,10.24
13:28:11.406250,-26.70
13:28:11.421875,-66.06
13:28:11.437500,-107.51
13:28:11.453125,-151.05
13:28:11.468750,-197.32
13:28:11.484375,-247.83
13:28:11.500000,-304.52
13:28:11.515625,-368.59
13:28:11.531250,-438.73
13:28:11.546875,-509.81
13:28:11.562500,-573.03
13:28:11.578125,-618.01
13:28:11.593750,-636.11
13:28:11.609375,-623.56
13:28:11.625000,-582.82
13:28:11.640625,-521.70
13:28:11.656250,-450.63
13:28:11.671875,-379.46
13:28:11.687500,-315.32
13:28:11.703125,-262.04
13:28:11.718750,-220.79
13:28:11.734375,-190.98
13:28:11.750000,-170.55
13:28:11.765625,-155.86
13:28:11.781250,-141.75
13:28:11.796875,-122.62
13:28:11.812500,-94.34
13:28:11.828125,-56.24
13:28:11.843750,-11.93
13:28:11.859375,31.73
13:28:11.875000,67.14
13:28:11.890625,89.04
13:28:11.906250,96.49
13:28:11.921875,92.89
13:28:11.937500,84.06
13:28:11.953125,75.57
13:28:11.968750,70.63
13:28:11.984375,69.47
13:28:12,70.35
13:28:12.015625,71.09
13:28:12.031250,70.37
13:28:12.046875,67.95
13:28:12.062500,64.36
13:28:12.078125,60.17
13:28:12.093750,55.62
13:28:12.109375,50.64
13:28:12.125000,45.29
13:28:12.140625,39.98
13:28:12.156250,35.52
13:28:12.171875,32.75
13:28:12.187500,32.12
13:28:12.203125,33.48
13:28:12.218750,35.97
13:28:12.234375,38.46
13:28:12.250000,39.88
13:28:12.265625,39.68
13:28:12.281250,37.97
13:28:12.296875,35.44
13:28:12.312500,33.08
13:28:12.328125,31.77
13:28:12.343750,31.95
13:28:12.359375,33.45
13:28:12.375000,35.51
13:28:12.390625,37.09
13:28:12.406250,37.30
13:28:12.421875,35.68
13:28:12.437500,32.37
13:28:12.453125,27.93
13:28:12.468750,22.99
13:28:12.484375,17.98
13:28:12.500000,13.04
13:28:12.515625,8.11
13:28:12.531250,3.20
13:28:12.546875,-1.55
13:28:12.562500,-5.76
13:28:12.578125,-9.03
13:28:12.593750,-11.08
13:28:12.609375,-11.90
13:28:12.625000,-11.71
13:28:12.640625,-10.85
13:28:12.656250,-9.75
13:28:12.671875,-8.80
13:28:12.687500,-8.26
13:28:12.703125,-8.25
13:28:12.718750,-8.61
13:28:12.734375,-9.01
13:28:12.750000,-8.97
13:28:12.765625,-8.13
13:28:12.781250,-6.43
13:28:12.796875,-4.19
13:28:12.812500,-1.93
13:28:12.828125,-0.13
13:28:12.843750,0.98
13:28:12.859375,1.57
13:28:12.875000,2.04
13:28:12.890625,2.78
13:28:12.906250,4.00
13:28:12.921875,5.58
13:28:12.937500,7.18
13:28:12.953125,8.45
13:28:12.968750,9.17
13:28:12.984375,9.36
13:28:13,9.28
13:28:13.015625,9.27
13:28:13.031250,9.58
13:28:13.046875,10.26
13:28:13.062500,11.03
13:28:13.078125,11.45
13:28:13.093750,11.07
13:28:13.109375,9.66
13:28:13.125000,7.37
13:28:13.140625,4.71
13:28:13.156250,2.35
13:28:13.171875,0.85
13:28:13.187500,0.35
13:28:13.203125,0.45
13:28:13.218750,0.30
13:28:13.234375,-1.03
13:28:13.250000,-4.10
13:28:13.265625,-8.77
13:28:13.281250,-14.17
13:28:13.296875,-19.04
13:28:13.312500,-22.28
13:28:13.328125,-23.51
13:28:13.343750,-23.20
13:28:13.359375,-22.40
13:28:13.375000,-22.09
13:28:13.390625,-22.63
13:28:13.406250,-23.52
13:28:13.421875,-23.60
13:28:13.437500,-21.47
13:28:13.453125,-15.87
13:28:13.468750,-5.69
13:28:13.484375,9.97
13:28:13.500000,31.33
13:28:13.515625,57.26
13:28:13.531250,84.68
13:28:13.546875,108.88
13:28:13.562500,124.96
13:28:13.578125,129.96
13:28:13.593750,124.47
13:28:13.609375,112.75
13:28:13.625000,101.10
13:28:13.640625,95.24
13:28:13.656250,98.24
13:28:13.671875,109.97
13:28:13.687500,128.12
13:28:13.703125,149.92
13:28:13.718750,173.39
13:28:13.734375,197.64
13:28:13.750000,222.09
13:28:13.765625,245.65
13:28:13.781250,266.37
13:28:13.796875,281.77
13:28:13.812500,289.68
13:28:13.828125,288.95
13:28:13.843750,279.81
13:28:13.859375,263.80
13:28:13.875000,243.23
13:28:13.890625,220.31
13:28:13.906250,196.42
13:28:13.921875,171.64
13:28:13.937500,145.14
13:28:13.953125,115.98
13:28:13.968750,84.22
13:28:13.984375,51.56
13:28:14,20.81
13:28:14.015625,-5.34
13:28:14.031250,-25.88
13:28:14.046875,-42.34
13:28:14.062500,-58.53
13:28:14.078125,-79.10
13:28:14.093750,-107.99
13:28:14.109375,-147.10
13:28:14.125000,-195.96
13:28:14.140625,-252.09
13:28:14.156250,-311.46
13:28:14.171875,-368.99
13:28:14.187500,-418.98
13:28:14.203125,-455.84
13:28:14.218750,-475.10
13:28:14.234375,-474.77
13:28:14.250000,-456.01
13:28:14.265625,-422.91
13:28:14.281250,-381.19
13:28:14.296875,-336.31
13:28:14.312500,-291.90
13:28:14.328125,-249.24
13:28:14.343750,-207.93
13:28:14.359375,-167.18
13:28:14.375000,-127.02
13:28:14.390625,-88.65
13:28:14.406250,-53.91
13:28:14.421875,-24.24
13:28:14.437500,0.03
13:28:14.453125,19.74
13:28:14.468750,36.22
13:28:14.484375,50.42
13:28:14.500000,62.37
13:28:14.515625,71.23
13:28:14.531250,76.06
13:28:14.546875,76.61
13:28:14.562500,73.75
13:28:14.578125,69.28
13:28:14.593750,65.09
13:28:14.609375,62.40
13:28:14.625000,61.32
13:28:14.640625,61.08
13:28:14.656250,60.54
13:28:14.671875,58.95
13:28:14.687500,56.18
13:28:14.703125,52.73
13:28:14.718750,49.43
13:28:14.734375,46.98
13:28:14.750000,45.64
13:28:14.765625,45.21
13:28:14.781250,45.16
13:28:14.796875,44.89
13:28:14.812500,44.05
13:28:14.828125,42.59
13:28:14.843750,40.74
13:28:14.859375,38.71
13:28:14.875000,36.62
13:28:14.890625,34.34
13:28:14.906250,31.68
13:28:14.921875,28.57
13:28:14.937500,25.23
13:28:14.953125,22.16
13:28:14.968750,19.92
13:28:14.984375,18.98
13:28:15,19.46
13:28:15.015625,21.21
13:28:15.031250,23.91
13:28:15.046875,27.20
13:28:15.062500,30.84
13:28:15.078125,34.65
13:28:15.093750,38.46
13:28:15.109375,42.09
13:28:15.125000,45.30
13:28:15.140625,47.81
13:28:15.156250,49.33
13:28:15.171875,49.68
13:28:15.187500,48.88
13:28:15.203125,47.25
13:28:15.218750,45.49
13:28:15.234375,44.53
13:28:15.250000,45.33
13:28:15.265625,48.55
13:28:15.281250,54.25
13:28:15.296875,61.79
13:28:15.312500,70.00
13:28:15.328125,77.55
13:28:15.343750,83.44
13:28:15.359375,87.24
13:28:15.375000,89.16
13:28:15.390625,89.74
13:28:15.406250,89.49
13:28:15.421875,88.61
13:28:15.437500,87.03
13:28:15.453125,84.57
13:28:15.468750,81.30
13:28:15.484375,77.67
13:28:15.500000,74.54
13:28:15.515625,72.94
13:28:15.531250,73.75
13:28:15.546875,77.34
13:28:15.562500,83.24
13:28:15.578125,90.08
13:28:15.593750,95.81
13:28:15.609375,98.21
13:28:15.625000,95.73
13:28:15.640625,88.21
13:28:15.656250,77.13
13:28:15.671875,65.22
13:28:15.687500,55.48
13:28:15.703125,50.10
13:28:15.718750,49.73
13:28:15.734375,53.32
13:28:15.750000,58.61
13:28:15.765625,62.84
13:28:15.781250,63.18
13:28:15.796875,57.20
13:28:15.812500,43.24
13:28:15.828125,21.08
13:28:15.843750,-7.41
13:28:15.859375,-38.18
13:28:15.875000,-65.72
13:28:15.890625,-84.84
13:28:15.906250,-92.56
13:28:15.921875,-89.38
13:28:15.937500,-78.93
13:28:15.953125,-66.30
13:28:15.968750,-55.77
13:28:15.984375,-49.26
13:28:16,-46.20
13:28:16.015625,-44.66
13:28:16.031250,-42.94
13:28:16.046875,-40.57
13:28:16.062500,-38.17
13:28:16.078125,-36.57
13:28:16.093750,-35.75
13:28:16.109375,-34.59
13:28:16.125000,-31.51
13:28:16.140625,-25.50
13:28:16.156250,-16.95
13:28:16.171875,-7.67
13:28:16.187500,-0.15
13:28:16.203125,3.69
13:28:16.218750,3.40
13:28:16.234375,0.19
13:28:16.250000,-3.75
13:28:16.265625,-6.38
13:28:16.281250,-6.95
13:28:16.296875,-6.35
13:28:16.312500,-6.68
13:28:16.328125,-10.18
13:28:16.343750,-18.06
13:28:16.359375,-29.94
13:28:16.375000,-43.95
13:28:16.390625,-57.72
13:28:16.406250,-69.35
13:28:16.421875,-78.16
13:28:16.437500,-84.69
13:28:16.453125,-90.10
13:28:16.468750,-95.46
13:28:16.484375,-101.15
13:28:16.500000,-106.80
13:28:16.515625,-111.50
13:28:16.531250,-114.22
13:28:16.546875,-114.09
13:28:16.562500,-110.48
13:28:16.578125,-103.10
13:28:16.593750,-92.01
13:28:16.609375,-77.74
13:28:16.625000,-61.36
13:28:16.640625,-44.42
13:28:16.656250,-28.73
13:28:16.671875,-16.06
13:28:16.687500,-7.62
13:28:16.703125,-3.73
13:28:16.718750,-3.81
13:28:16.734375,-6.55
13:28:16.750000,-10.33
13:28:16.765625,-13.67
13:28:16.781250,-15.49
13:28:16.796875,-15.10
13:28:16.812500,-12.13
13:28:16.828125,-6.41
13:28:16.843750,1.95
13:28:16.859375,12.38
13:28:16.875000,23.73
13:28:16.890625,34.45
13:28:16.906250,43.01
13:28:16.921875,48.42
13:28:16.937500,50.52
13:28:16.953125,49.88
13:28:16.968750,47.23
13:28:16.984375,43.05
13:28:17,37.32
13:28:17.015625,29.87
13:28:17.031250,20.99
13:28:17.046875,11.72
13:28:17.062500,3.71
13:28:17.078125,-1.45
13:28:17.093750,-2.98
13:28:17.109375,-1.38
13:28:17.125000,1.77
13:28:17.140625,4.54
13:28:17.156250,5.49
13:28:17.171875,4.15
13:28:17.187500,1.03
13:28:17.203125,-2.95
13:28:17.218750,-7.06
13:28:17.234375,-11.08
13:28:17.250000,-15.19
13:28:17.265625,-19.57
13:28:17.281250,-23.93
13:28:17.296875,-27.54
13:28:17.312500,-29.50
13:28:17.328125,-29.28
13:28:17.343750,-27.06
13:28:17.359375,-23.81
13:28:17.375000,-20.91
13:28:17.390625,-19.54
13:28:17.406250,-20.16
13:28:17.421875,-22.42
13:28:17.437500,-25.39
13:28:17.453125,-27.99
13:28:17.468750,-29.40
13:28:17.484375,-29.19
13:28:17.500000,-27.30
13:28:17.515625,-23.79
13:28:17.531250,-18.80
13:28:17.546875,-12.62
13:28:17.562500,-5.78
13:28:17.578125,0.94
13:28:17.593750,6.64
13:28:17.609375,10.65
13:28:17.625000,12.79
13:28:17.640625,13.40
13:28:17.656250,13.17
13:28:17.671875,12.83
13:28:17.687500,12.87
13:28:17.703125,13.43
13:28:17.718750,14.32
13:28:17.734375,15.17
13:28:17.750000,15.57
13:28:17.765625,15.25
13:28:17.781250,14.07
13:28:17.796875,12.11
13:28:17.812500,9.64
13:28:17.828125,7.05
13:28:17.843750,4.73
13:28:17.859375,3.00
13:28:17.875000,2.04
13:28:17.890625,1.90
13:28:17.906250,2.56
13:28:17.921875,3.97
13:28:17.937500,6.04
13:28:17.953125,8.67
13:28:17.968750,11.74
13:28:17.984375,15.12
13:28:18,18.64
13:28:18.015625,22.11
13:28:18.031250,25.30
13:28:18.046875,27.98
13:28:18.062500,29.96
13:28:18.078125,31.21
13:28:18.093750,31.83
13:28:18.109375,32.05
13:28:18.125000,32.10
13:28:18.140625,32.15
13:28:18.156250,32.20
13:28:18.171875,32.13
13:28:18.187500,31.81
13:28:18.203125,31.16
13:28:18.218750,30.24
13:28:18.234375,29.25
13:28:18.250000,28.47
13:28:18.265625,28.09
13:28:18.281250,28.21
13:28:18.296875,28.71
13:28:18.312500,29.27
13:28:18.328125,29.53
13:28:18.343750,29.26
13:28:18.359375,28.54
13:28:18.375000,27.80
13:28:18.390625,27.65
13:28:18.406250,28.63
13:28:18.421875,30.94
13:28:18.437500,34.28
13:28:18.453125,38.02
13:28:18.468750,41.37
13:28:18.484375,43.68
13:28:18.500000,44.63
13:28:18.515625,44.24
13:28:18.531250,42.81
13:28:18.546875,40.92
13:28:18.562500,39.32
13:28:18.578125,38.88
13:28:18.593750,40.30
13:28:18.609375,43.71
13:28:18.625000,48.25
13:28:18.640625,52.01
13:28:18.656250,52.49
13:28:18.671875,47.49
13:28:18.687500,36.02
13:28:18.703125,18.75
13:28:18.718750,-2.21
13:28:18.734375,-24.16
13:28:18.750000,-44.77
13:28:18.765625,-62.79
13:28:18.781250,-78.09
13:28:18.796875,-91.32
13:28:18.812500,-103.27
13:28:18.828125,-114.43
13:28:18.843750,-124.91
13:28:18.859375,-134.40
13:28:18.875000,-142.39
13:28:18.890625,-148.19
13:28:18.906250,-151.02
13:28:18.921875,-150.09
13:28:18.937500,-144.87
13:28:18.953125,-135.23
13:28:18.968750,-121.60
13:28:18.984375,-104.89
13:28:19,-86.30
13:28:19.015625,-67.08
13:28:19.031250,-48.31
13:28:19.046875,-30.81
13:28:19.062500,-15.15
13:28:19.078125,-1.63
13:28:19.093750,9.76
13:28:19.109375,19.26
13:28:19.125000,27.32
13:28:19.140625,34.41
13:28:19.156250,40.85
13:28:19.171875,46.61
13:28:19.187500,51.38
13:28:19.203125,54.71
13:28:19.218750,56.25
13:28:19.234375,56.02
13:28:19.250000,54.32
13:28:19.265625,51.67
13:28:19.281250,48.55
13:28:19.296875,45.21
13:28:19.312500,41.65
13:28:19.328125,37.73
13:28:19.343750,33.35
13:28:19.359375,28.54
13:28:19.375000,23.52
13:28:19.390625,18.61
13:28:19.406250,14.10
13:28:19.421875,10.18
13:28:19.437500,6.90
13:28:19.453125,4.15
13:28:19.468750,1.73
13:28:19.484375,-0.55
13:28:19.500000,-2.75
13:28:19.515625,-4.79
13:28:19.531250,-6.42
13:28:19.546875,-7.30
13:28:19.562500,-7.14
13:28:19.578125,-5.85
13:28:19.593750,-3.59
13:28:19.609375,-0.74
13:28:19.625000,2.13
13:28:19.640625,4.49
13:28:19.656250,5.94
13:28:19.671875,6.38
13:28:19.687500,5.93
13:28:19.703125,4.89
13:28:19.718750,3.58
13:28:19.734375,2.25
13:28:19.750000,1.07
13:28:19.765625,0.18
13:28:19.781250,-0.30
13:28:19.796875,-0.31
13:28:19.812500,0.13
13:28:19.828125,0.79
13:28:19.843750,1.32
13:28:19.859375,1.37
13:28:19.875000,0.74
13:28:19.890625,-0.52
13:28:19.906250,-2.09
13:28:19.921875,-3.63
13:28:19.937500,-4.84
13:28:19.953125,-5.66
13:28:19.968750,-6.19
13:28:19.984375,-6.63
13:28:20,-7.13
13:28:20.015625,-7.71
13:28:20.031250,-8.24
13:28:20.046875,-8.52
13:28:20.062500,-8.34
13:28:20.078125,-7.57
13:28:20.093750,-6.19
13:28:20.109375,-4.29
13:28:20.125000,-2.07
13:28:20.140625,0.29
13:28:20.156250,2.59
13:28:20.171875,4.75
13:28:20.187500,6.79
13:28:20.203125,8.78
13:28:20.218750,10.80
13:28:20.234375,12.83
13:28:20.250000,14.78
13:28:20.265625,16.46
13:28:20.281250,17.67
13:28:20.296875,18.34
13:28:20.312500,18.62
13:28:20.328125,18.84
13:28:20.343750,19.35
13:28:20.359375,20.40
13:28:20.375000,21.94
13:28:20.390625,23.68
13:28:20.406250,25.21
13:28:20.421875,26.20
13:28:20.437500,26.54
13:28:20.453125,26.31
13:28:20.468750,25.64
13:28:20.484375,24.61
13:28:20.500000,23.15
13:28:20.515625,21.18
13:28:20.531250,18.68
13:28:20.546875,15.82
13:28:20.562500,12.98
13:28:20.578125,10.59
13:28:20.593750,8.99
13:28:20.609375,8.28
13:28:20.625000,8.30
13:28:20.640625,8.74
13:28:20.656250,9.25
13:28:20.671875,9.56
13:28:20.687500,9.50
13:28:20.703125,8.99
13:28:20.718750,7.94
13:28:20.734375,6.28
13:28:20.750000,3.97
13:28:20.765625,1.04
13:28:20.781250,-2.35
13:28:20.796875,-5.89
13:28:20.812500,-9.15
13:28:20.828125,-11.62
13:28:20.843750,-12.78
13:28:20.859375,-12.19
13:28:20.875000,-9.62
13:28:20.890625,-5.20
13:28:20.906250,0.57
13:28:20.921875,6.83
13:28:20.937500,12.56
13:28:20.953125,16.88
13:28:20.968750,19.29
13:28:20.984375,19.75
13:28:21,18.68
13:28:21.015625,16.73
13:28:21.031250,14.53
13:28:21.046875,12.53
13:28:21.062500,10.88
13:28:21.078125,9.61
13:28:21.093750,8.68
13:28:21.109375,8.20
13:28:21.125000,8.29
13:28:21.140625,9.10
13:28:21.156250,10.60
13:28:21.171875,12.52
13:28:21.187500,14.30
13:28:21.203125,15.41
13:28:21.218750,15.46
13:28:21.234375,14.36
13:28:21.250000,12.42
13:28:21.265625,10.11
13:28:21.281250,7.85
13:28:21.296875,5.94
13:28:21.312500,4.42
13:28:21.328125,3.22
13:28:21.343750,2.30
13:28:21.359375,1.72
13:28:21.375000,1.58
13:28:21.390625,1.94
13:28:21.406250,2.70
13:28:21.421875,3.62
13:28:21.437500,4.40
13:28:21.453125,4.78
13:28:21.468750,4.60
13:28:21.484375,3.80
13:28:21.500000,2.37
13:28:21.515625,0.36
13:28:21.531250,-2.07
13:28:21.546875,-4.68
13:28:21.562500,-7.09
13:28:21.578125,-8.96
13:28:21.593750,-10.07
13:28:21.609375,-10.41
13:28:21.625000,-10.15
13:28:21.640625,-9.43
13:28:21.656250,-8.29
13:28:21.671875,-6.61
13:28:21.687500,-4.20
13:28:21.703125,-0.98
13:28:21.718750,2.94
13:28:21.734375,7.20
13:28:21.750000,11.33
13:28:21.765625,14.90
13:28:21.781250,17.61
13:28:21.796875,19.41
13:28:21.812500,20.42
13:28:21.828125,20.86
13:28:21.843750,20.95
13:28:21.859375,20.78
13:28:21.875000,20.39
13:28:21.890625,19.75
13:28:21.906250,18.93
13:28:21.921875,18.15
13:28:21.937500,17.76
13:28:21.953125,18.11
13:28:21.968750,19.37
13:28:21.984375,21.48
13:28:22,24.06
13:28:22.015625,26.56
13:28:22.031250,28.41
13:28:22.046875,29.23
13:28:22.062500,28.91
13:28:22.078125,27.63
13:28:22.093750,25.78
13:28:22.109375,23.78
13:28:22.125000,21.94
13:28:22.140625,20.37
13:28:22.156250,19.00
13:28:22.171875,17.73
13:28:22.187500,16.56
13:28:22.203125,15.62
13:28:22.218750,15.15
13:28:22.234375,15.36
13:28:22.250000,16.30
13:28:22.265625,17.71
13:28:22.281250,19.12
13:28:22.296875,19.92
13:28:22.312500,19.57
13:28:22.328125,17.77
13:28:22.343750,14.56
13:28:22.359375,10.39
13:28:22.375000,5.94
13:28:22.390625,1.94
13:28:22.406250,-1.10
13:28:22.421875,-2.97
13:28:22.437500,-3.85
13:28:22.453125,-3.99
13:28:22.468750,-3.54
13:28:22.484375,-2.44
13:28:22.500000,-0.47
13:28:22.515625,2.49
13:28:22.531250,6.20
13:28:22.546875,9.99
13:28:22.562500,12.88
13:28:22.578125,14.04
13:28:22.593750,13.06
13:28:22.609375,10.16
13:28:22.625000,6.09
13:28:22.640625,1.80
13:28:22.656250,-1.95
13:28:22.671875,-4.78
13:28:22.687500,-6.67
13:28:22.703125,-7.75
13:28:22.718750,-8.10
13:28:22.734375,-7.62
13:28:22.750000,-6.11
13:28:22.765625,-3.45
13:28:22.781250,0.21
13:28:22.796875,4.29
13:28:22.812500,7.95
13:28:22.828125,10.27
13:28:22.843750,10.56
13:28:22.859375,8.59
13:28:22.875000,4.64
13:28:22.890625,-0.57
13:28:22.906250,-6.14
13:28:22.921875,-11.22
13:28:22.937500,-15.16
13:28:22.953125,-17.59
13:28:22.968750,-18.37
13:28:22.984375,-17.48
13:28:23,-15.02
13:28:23.015625,-11.22
13:28:23.031250,-6.50
13:28:23.046875,-1.53
13:28:23.062500,2.84
13:28:23.078125,5.76
13:28:23.093750,6.67
13:28:23.109375,5.43
13:28:23.125000,2.37
13:28:23.140625,-1.87
13:28:23.156250,-6.56
13:28:23.171875,-11.16
13:28:23.187500,-15.22
13:28:23.203125,-18.42
13:28:23.218750,-20.38
13:28:23.234375,-20.69
13:28:23.250000,-19.03
13:28:23.265625,-15.41
13:28:23.281250,-10.28
13:28:23.296875,-4.53
13:28:23.312500,0.74
13:28:23.328125,4.59
13:28:23.343750,6.48
13:28:23.359375,6.42
13:28:23.375000,4.91
13:28:23.390625,2.71
13:28:23.406250,0.56
13:28:23.421875,-0.99
13:28:23.437500,-1.74
13:28:23.453125,-1.73
13:28:23.468750,-1.19
13:28:23.484375,-0.37
13:28:23.500000,0.59
13:28:23.515625,1.68
13:28:23.531250,2.87
13:28:23.546875,4.07
13:28:23.562500,5.02
13:28:23.578125,5.29
13:28:23.593750,4.44
13:28:23.609375,2.27
13:28:23.625000,-1.20
13:28:23.640625,-5.53
13:28:23.656250,-10.10
13:28:23.671875,-14.20
13:28:23.687500,-17.19
13:28:23.703125,-18.60
13:28:23.718750,-18.23
13:28:23.734375,-16.09
13:28:23.750000,-12.46
13:28:23.765625,-7.77
13:28:23.781250,-2.62
13:28:23.796875,2.41
13:28:23.812500,6.76
13:28:23.828125,9.99
13:28:23.843750,11.82
13:28:23.859375,12.09
13:28:23.875000,10.77
13:28:23.890625,7.95
13:28:23.906250,3.83
13:28:23.921875,-1.27
13:28:23.937500,-6.96
13:28:23.953125,-12.82
13:28:23.968750,-18.42
13:28:23.984375,-23.31
13:28:24,-27.06
13:28:24.015625,-29.34
13:28:24.031250,-29.95
13:28:24.046875,-28.99
13:28:24.062500,-26.85
13:28:24.078125,-24.08
13:28:24.093750,-21.28
13:28:24.109375,-18.92
13:28:24.125000,-17.25
13:28:24.140625,-16.30
13:28:24.156250,-16.03
13:28:24.171875,-16.34
13:28:24.187500,-17.22
13:28:24.203125,-18.72
13:28:24.218750,-20.85
13:28:24.234375,-23.64
13:28:24.250000,-26.99
13:28:24.265625,-30.72
13:28:24.281250,-34.57
13:28:24.296875,-38.30
13:28:24.312500,-41.67
13:28:24.328125,-44.62
13:28:24.343750,-47.17
13:28:24.359375,-49.43
13:28:24.375000,-51.41
13:28:24.390625,-52.97
13:28:24.406250,-53.74
13:28:24.421875,-53.03
13:28:24.437500,-49.98
13:28:24.453125,-43.66
13:28:24.468750,-33.40
13:28:24.484375,-19.07
13:28:24.500000,-1.33
13:28:24.515625,18.39
13:28:24.531250,38.18
13:28:24.546875,56.09
13:28:24.562500,70.65
13:28:24.578125,81.16
13:28:24.593750,87.68
13:28:24.609375,90.64
13:28:24.625000,90.55
13:28:24.640625,87.73
13:28:24.656250,82.37
13:28:24.671875,74.75
13:28:24.687500,65.41
13:28:24.703125,55.20
13:28:24.718750,45.08
13:28:24.734375,35.83
13:28:24.750000,27.81
13:28:24.765625,21.03
13:28:24.781250,15.20
13:28:24.796875,10.06
13:28:24.812500,5.52
13:28:24.828125,1.62
13:28:24.843750,-1.56
13:28:24.859375,-4.17
13:28:24.875000,-6.56
13:28:24.890625,-9.18
13:28:24.906250,-12.40
13:28:24.921875,-16.23
13:28:24.937500,-20.28
13:28:24.953125,-23.85
13:28:24.968750,-26.25
13:28:24.984375,-27.04
13:28:25,-26.24
13:28:25.015625,-24.24
13:28:25.031250,-21.67
13:28:25.046875,-19.07
13:28:25.062500,-16.65
13:28:25.078125,-14.28
13:28:25.093750,-11.67
13:28:25.109375,-8.68
13:28:25.125000,-5.44
13:28:25.140625,-2.32
13:28:25.156250,0.43
13:28:25.171875,2.91
13:28:25.187500,5.93
13:28:25.203125,10.80
13:28:25.218750,18.84
13:28:25.234375,30.78
13:28:25.250000,46.30
13:28:25.265625,63.87
13:28:25.281250,81.07
13:28:25.296875,95.16
13:28:25.312500,103.70
13:28:25.328125,104.96
13:28:25.343750,98.29
13:28:25.359375,84.33
13:28:25.375000,65.24
13:28:25.390625,44.87
13:28:25.406250,28.43
13:28:25.421875,21.56
13:28:25.437500,28.41
13:28:25.453125,49.73
13:28:25.468750,81.91
13:28:25.484375,117.84
13:28:25.500000,149.57
13:28:25.515625,171.59
13:28:25.531250,182.80
13:28:25.546875,186.36
13:28:25.562500,187.38
13:28:25.578125,190.20
13:28:25.593750,196.66
13:28:25.609375,206.28
13:28:25.625000,217.76
13:28:25.640625,230.27
13:28:25.656250,243.76
13:28:25.671875,257.88
13:28:25.687500,270.92
13:28:25.703125,279.64
13:28:25.718750,280.63
13:28:25.734375,272.14
13:28:25.750000,255.41
13:28:25.765625,234.35
13:28:25.781250,213.89
13:28:25.796875,198.02
13:28:25.812500,188.50
13:28:25.828125,184.74
13:28:25.843750,184.68
13:28:25.859375,186.05
13:28:25.875000,187.17
13:28:25.890625,187.30
13:28:25.906250,186.37
13:28:25.921875,184.63
13:28:25.937500,182.30
13:28:25.953125,179.35
13:28:25.968750,175.48
13:28:25.984375,170.18
13:28:26,162.86
13:28:26.015625,153.01
13:28:26.031250,140.35
13:28:26.046875,124.99
13:28:26.062500,107.35
13:28:26.078125,88.16
13:28:26.093750,68.16
13:28:26.109375,47.86
13:28:26.125000,27.39
13:28:26.140625,6.45
13:28:26.156250,-15.42
13:28:26.171875,-38.64
13:28:26.187500,-63.26
13:28:26.203125,-88.86
13:28:26.218750,-114.75
13:28:26.234375,-140.17
13:28:26.250000,-164.65
13:28:26.265625,-188.18
13:28:26.281250,-211.12
13:28:26.296875,-234.10
13:28:26.312500,-257.88
13:28:26.328125,-283.27
13:28:26.343750,-310.98
13:28:26.359375,-341.22
13:28:26.375000,-373.08
13:28:26.390625,-404.16
13:28:26.406250,-430.75
13:28:26.421875,-448.84
13:28:26.437500,-455.58
13:28:26.453125,-450.44
13:28:26.468750,-435.47
13:28:26.484375,-414.39
13:28:26.500000,-390.99
13:28:26.515625,-367.74
13:28:26.531250,-345.37
13:28:26.546875,-323.48
13:28:26.562500,-301.69
13:28:26.578125,-280.51
13:28:26.593750,-261.31
13:28:26.609375,-245.61
13:28:26.625000,-234.16
13:28:26.640625,-226.45
