9:23:35,-0.00
9:23:35.015625,-0.00
9:23:35.031250,-0.00
9:23:35.046875,-0.00
9:23:35.062500,-0.00
9:23:35.078125,-0.00
9:23:35.093750,-0.00
9:23:35.109375,-0.00
9:23:35.125000,-0.00
9:23:35.140625,-0.01
9:23:35.156250,-0.00
9:23:35.171875,0.00
9:23:35.187500,0.01
9:23:35.203125,0.01
9:23:35.218750,-0.00
9:23:35.234375,-0.03
9:23:35.250000,-0.05
9:23:35.265625,-0.05
9:23:35.281250,-0.00
9:23:35.296875,0.13
9:23:35.312500,0.36
9:23:35.328125,0.66
9:23:35.343750,1.01
9:23:35.359375,1.37
9:23:35.375000,1.72
9:23:35.390625,2.06
9:23:35.406250,2.40
9:23:35.421875,2.77
9:23:35.437500,3.24
9:23:35.453125,3.80
9:23:35.468750,4.42
9:23:35.484375,5.06
9:23:35.500000,5.66
9:23:35.515625,6.20
9:23:35.531250,6.68
9:23:35.546875,7.15
9:23:35.562500,7.64
9:23:35.578125,8.31
9:23:35.593750,9.14
9:23:35.609375,10.09
9:23:35.625000,11.04
9:23:35.640625,11.88
9:23:35.656250,12.56
9:23:35.671875,13.14
9:23:35.687500,13.76
9:23:35.703125,14.58
9:23:35.718750,15.96
9:23:35.734375,17.91
9:23:35.750000,20.32
9:23:35.765625,22.90
9:23:35.781250,25.38
9:23:35.796875,27.58
9:23:35.812500,29.57
9:23:35.828125,31.68
9:23:35.843750,34.20
9:23:35.859375,37.81
9:23:35.875000,42.54
9:23:35.890625,48.15
9:23:35.906250,54.10
9:23:35.921875,59.83
9:23:35.937500,64.97
9:23:35.953125,69.58
9:23:35.968750,74.14
9:23:35.984375,79.19
9:23:36,85.71
9:23:36.015625,93.76
9:23:36.031250,103.00
9:23:36.046875,112.62
9:23:36.062500,121.73
9:23:36.078125,129.77
9:23:36.093750,136.75
9:23:36.109375,144.29
9:23:36.125000,150.58
9:23:36.140625,157.77
9:23:36.156250,166.64
9:23:36.171875,177.95
9:23:36.187500,191.79
9:23:36.203125,206.97
9:23:36.218750,220.57
9:23:36.234375,228.25
9:23:36.250000,225.36
9:23:36.265625,208.37
9:23:36.281250,176.87
9:23:36.296875,132.76
9:23:36.312500,80.05
9:23:36.328125,23.07
9:23:36.343750,-34.94
9:23:36.359375,-92.44
9:23:36.375000,-149.16
9:23:36.390625,-205.23
9:23:36.406250,-260.49
9:23:36.421875,-313.74
9:23:36.437500,-363.87
9:23:36.453125,-409.83
9:23:36.468750,-450.91
9:23:36.484375,-486.50
9:23:36.500000,-515.74
9:23:36.515625,-537.23
9:23:36.531250,-549.22
9:23:36.546875,-550.04
9:23:36.562500,-538.37
9:23:36.578125,-514.20
9:23:36.593750,-478.67
9:23:36.609375,-433.88
9:23:36.625000,-382.45
9:23:36.640625,-327.02
9:23:36.656250,-269.84
9:23:36.671875,-212.63
9:23:36.687500,-156.70
9:23:36.703125,-102.95
9:23:36.718750,-52.37
9:23:36.734375,-5.90
9:23:36.750000,35.58
9:23:36.765625,71.43
9:23:36.781250,101.35
9:23:36.796875,125.50
9:23:36.812500,144.38
9:23:36.828125,158.68
9:23:36.843750,169.15
9:23:36.859375,176.37
9:23:36.875000,180.75
9:23:36.890625,182.57
9:23:36.906250,182.07
9:23:36.921875,179.51
9:23:36.937500,175.23
9:23:36.953125,169.65
9:23:36.968750,163.18
9:23:36.984375,156.15
9:23:37,148.81
9:23:37.015625,141.30
9:23:37.031250,133.69
9:23:37.046875,126.02
9:23:37.062500,118.33
9:23:37.078125,110.69
9:23:37.093750,103.16
9:23:37.109375,95.80
9:23:37.125000,88.68
9:23:37.140625,81.83
9:23:37.156250,75.25
9:23:37.171875,68.95
9:23:37.187500,62.95
9:23:37.203125,57.25
9:23:37.218750,51.86
9:23:37.234375,46.78
9:23:37.250000,42.03
9:23:37.265625,37.59
9:23:37.281250,33.45
9:23:37.296875,29.61
9:23:37.312500,26.07
9:23:37.328125,22.81
9:23:37.343750,19.82
9:23:37.359375,17.11
9:23:37.375000,14.67
9:23:37.390625,12.48
9:23:37.406250,10.54
9:23:37.421875,8.83
9:23:37.437500,7.35
9:23:37.453125,6.07
9:23:37.468750,4.97
9:23:37.484375,4.05
9:23:37.500000,3.27
9:23:37.515625,2.62
9:23:37.531250,2.09
9:23:37.546875,1.65
9:23:37.562500,1.30
9:23:37.578125,1.01
9:23:37.593750,0.79
9:23:37.609375,0.61
9:23:37.625000,0.48
9:23:37.640625,0.37
9:23:37.656250,0.28
9:23:37.671875,0.22
9:23:37.687500,0.18
9:23:37.703125,0.14
9:23:37.718750,0.11
9:23:37.734375,0.09
9:23:37.750000,0.08
9:23:37.765625,0.07
9:23:37.781250,0.06
9:23:37.796875,0.05
9:23:37.812500,0.05
9:23:37.828125,0.04
9:23:37.843750,0.04
9:23:37.859375,0.04
9:23:37.875000,0.03
9:23:37.890625,0.03
9:23:37.906250,0.03
9:23:37.921875,0.03
9:23:37.937500,0.03
9:23:37.953125,0.04
9:23:37.968750,0.05
9:23:37.984375,0.05
9:23:38,0.07
9:23:38.015625,0.09
9:23:38.031250,0.11
9:23:38.046875,0.13
9:23:38.062500,0.16
9:23:38.078125,0.19
9:23:38.093750,0.23
9:23:38.109375,0.27
9:23:38.125000,0.30
9:23:38.140625,0.35
9:23:38.156250,0.39
9:23:38.171875,0.43
9:23:38.187500,0.48
9:23:38.203125,0.53
9:23:38.218750,0.57
9:23:38.234375,0.63
9:23:38.250000,0.69
9:23:38.265625,0.75
9:23:38.281250,0.82
9:23:38.296875,0.89
9:23:38.312500,0.98
9:23:38.328125,1.06
9:23:38.343750,1.16
9:23:38.359375,1.28
9:23:38.375000,1.40
9:23:38.390625,1.54
9:23:38.406250,1.69
9:23:38.421875,1.86
9:23:38.437500,2.05
9:23:38.453125,2.27
9:23:38.468750,2.50
9:23:38.484375,2.76
9:23:38.500000,3.04
9:23:38.515625,3.35
9:23:38.531250,3.69
9:23:38.546875,4.06
9:23:38.562500,4.46
9:23:38.578125,4.90
9:23:38.593750,5.38
9:23:38.609375,5.88
9:23:38.625000,6.43
9:23:38.640625,7.02
9:23:38.656250,7.65
9:23:38.671875,8.32
9:23:38.687500,9.04
9:23:38.703125,9.79
9:23:38.718750,10.60
9:23:38.734375,11.44
9:23:38.750000,12.32
9:23:38.765625,13.27
9:23:38.781250,14.27
9:23:38.796875,15.33
9:23:38.812500,16.44
9:23:38.828125,17.60
9:23:38.843750,18.77
9:23:38.859375,19.92
9:23:38.875000,21.01
9:23:38.890625,21.93
9:23:38.906250,22.61
9:23:38.921875,22.96
9:23:38.937500,22.87
9:23:38.953125,22.26
9:23:38.968750,21.07
9:23:38.984375,19.27
9:23:39,16.89
9:23:39.015625,13.99
9:23:39.031250,10.64
9:23:39.046875,7.00
9:23:39.062500,3.25
9:23:39.078125,-0.48
9:23:39.093750,-4.01
9:23:39.109375,-7.19
9:23:39.125000,-9.91
9:23:39.140625,-12.11
9:23:39.156250,-13.75
9:23:39.171875,-14.82
9:23:39.187500,-15.37
9:23:39.203125,-15.46
9:23:39.218750,-15.19
9:23:39.234375,-14.62
9:23:39.250000,-13.82
9:23:39.265625,-12.84
9:23:39.281250,-11.71
9:23:39.296875,-10.45
9:23:39.312500,-9.05
9:23:39.328125,-7.48
9:23:39.343750,-5.78
9:23:39.359375,-3.97
9:23:39.375000,-2.05
9:23:39.390625,-0.03
9:23:39.406250,2.09
9:23:39.421875,4.31
9:23:39.437500,6.64
9:23:39.453125,9.13
9:23:39.468750,11.82
9:23:39.484375,14.61
9:23:39.500000,17.45
9:23:39.515625,20.31
9:23:39.531250,23.21
9:23:39.546875,26.13
9:23:39.562500,29.13
9:23:39.578125,32.25
9:23:39.593750,35.58
9:23:39.609375,39.31
9:23:39.625000,43.27
9:23:39.640625,47.38
9:23:39.656250,51.65
9:23:39.671875,56.07
9:23:39.687500,60.63
9:23:39.703125,65.30
9:23:39.718750,70.10
9:23:39.734375,75.11
9:23:39.750000,80.57
9:23:39.765625,86.12
9:23:39.781250,91.66
9:23:39.796875,97.16
9:23:39.812500,102.62
9:23:39.828125,108.02
9:23:39.843750,113.41
9:23:39.859375,118.88
9:23:39.875000,124.57
9:23:39.890625,130.83
9:23:39.906250,137.20
9:23:39.921875,143.46
9:23:39.937500,149.39
9:23:39.953125,154.67
9:23:39.968750,158.80
9:23:39.984375,160.99
9:23:40,160.05
9:23:40.015625,154.05
9:23:40.031250,146.34
9:23:40.046875,137.75
9:23:40.062500,128.73
9:23:40.078125,119.54
9:23:40.093750,109.90
9:23:40.109375,99.47
9:23:40.125000,88.17
9:23:40.140625,76.17
9:23:40.156250,63.97
9:23:40.171875,52.06
9:23:40.187500,40.21
9:23:40.203125,28.57
9:23:40.218750,17.16
9:23:40.234375,5.51
9:23:40.250000,-7.05
9:23:40.265625,-21.02
9:23:40.281250,-36.55
9:23:40.296875,-53.27
9:23:40.312500,-70.64
9:23:40.328125,-88.35
9:23:40.343750,-105.66
9:23:40.359375,-122.00
9:23:40.375000,-137.85
9:23:40.390625,-153.86
9:23:40.406250,-170.25
9:23:40.421875,-186.89
9:23:40.437500,-203.17
9:23:40.453125,-219.21
9:23:40.468750,-235.70
9:23:40.484375,-253.14
9:23:40.500000,-272.13
9:23:40.515625,-295.20
9:23:40.531250,-323.62
9:23:40.546875,-356.33
9:23:40.562500,-391.11
9:23:40.578125,-425.77
9:23:40.593750,-461.48
9:23:40.609375,-499.60
9:23:40.625000,-538.85
9:23:40.640625,-574.01
9:23:40.656250,-599.96
9:23:40.671875,-608.05
9:23:40.687500,-587.59
9:23:40.703125,-530.55
9:23:40.718750,-434.64
9:23:40.734375,-309.25
9:23:40.750000,-168.30
9:23:40.765625,-26.04
9:23:40.781250,104.53
9:23:40.796875,206.34
9:23:40.812500,267.98
9:23:40.828125,287.89
9:23:40.843750,273.09
9:23:40.859375,236.72
9:23:40.875000,186.01
9:23:40.890625,127.21
9:23:40.906250,65.22
9:23:40.921875,1.49
9:23:40.937500,-73.80
9:23:40.953125,-168.39
9:23:40.968750,-281.38
9:23:40.984375,-403.68
9:23:41,-520.28
9:23:41.015625,-624.55
9:23:41.031250,-710.44
9:23:41.046875,-772.13
9:23:41.062500,-752.94
9:23:41.078125,-633.56
9:23:41.093750,-447.52
9:23:41.109375,-255.99
9:23:41.125000,-126.37
9:23:41.140625,-45.24
9:23:41.156250,5.97
9:23:41.171875,40.65
9:23:41.187500,71.00
9:23:41.203125,100.21
9:23:41.218750,120.32
9:23:41.234375,126.43
9:23:41.250000,122.37
9:23:41.265625,118.22
9:23:41.281250,126.24
9:23:41.296875,146.09
9:23:41.312500,173.79
9:23:41.328125,204.95
9:23:41.343750,234.91
9:23:41.359375,254.09
9:23:41.375000,257.54
9:23:41.390625,248.47
9:23:41.406250,235.78
9:23:41.421875,230.52
9:23:41.437500,234.28
9:23:41.453125,245.69
9:23:41.468750,262.52
9:23:41.484375,281.65
9:23:41.500000,296.36
9:23:41.515625,302.59
9:23:41.531250,301.49
9:23:41.546875,298.25
9:23:41.562500,299.91
9:23:41.578125,307.93
9:23:41.593750,322.07
9:23:41.609375,341.57
9:23:41.625000,364.83
9:23:41.640625,388.12
9:23:41.656250,408.26
9:23:41.671875,423.76
9:23:41.687500,434.43
9:23:41.703125,441.07
9:23:41.718750,442.85
9:23:41.734375,440.22
9:23:41.750000,435.73
9:23:41.765625,433.19
9:23:41.781250,435.51
9:23:41.796875,443.67
9:23:41.812500,455.84
9:23:41.828125,467.39
9:23:41.843750,472.44
9:23:41.859375,465.25
9:23:41.875000,443.15
9:23:41.890625,407.45
9:23:41.906250,362.39
9:23:41.921875,313.14
9:23:41.937500,263.89
9:23:41.953125,216.94
9:23:41.968750,172.86
9:23:41.984375,131.52
9:23:42,92.85
9:23:42.015625,56.97
9:23:42.031250,23.79
9:23:42.046875,-7.54
9:23:42.062500,-38.80
9:23:42.078125,-72.37
9:23:42.093750,-110.19
9:23:42.109375,-152.88
9:23:42.125000,-198.96
9:23:42.140625,-244.84
9:23:42.156250,-285.69
9:23:42.171875,-317.09
9:23:42.187500,-336.49
9:23:42.203125,-344.01
9:23:42.218750,-341.83
9:23:42.234375,-332.66
9:23:42.250000,-318.21
9:23:42.265625,-298.47
9:23:42.281250,-272.31
9:23:42.296875,-238.81
9:23:42.312500,-198.43
9:23:42.328125,-153.30
9:23:42.343750,-106.53
9:23:42.359375,-61.34
9:23:42.375000,-20.30
9:23:42.390625,14.57
9:23:42.406250,41.63
9:23:42.421875,59.47
9:23:42.437500,67.27
9:23:42.453125,65.40
9:23:42.468750,55.72
9:23:42.484375,41.36
9:23:42.500000,26.01
9:23:42.515625,13.10
9:23:42.531250,5.18
9:23:42.546875,3.45
9:23:42.562500,7.50
9:23:42.578125,14.96
9:23:42.593750,21.96
9:23:42.609375,23.91
9:23:42.625000,16.96
9:23:42.640625,-0.73
9:23:42.656250,-28.43
9:23:42.671875,-63.31
9:23:42.687500,-101.92
9:23:42.703125,-141.55
9:23:42.718750,-181.21
9:23:42.734375,-221.40
9:23:42.750000,-263.23
9:23:42.765625,-307.27
9:23:42.781250,-352.79
9:23:42.796875,-397.41
9:23:42.812500,-437.60
9:23:42.828125,-469.24
9:23:42.843750,-488.62
9:23:42.859375,-493.30
9:23:42.875000,-482.89
9:23:42.890625,-459.34
9:23:42.906250,-426.43
9:23:42.921875,-388.78
9:23:42.937500,-350.54
9:23:42.953125,-314.48
9:23:42.968750,-281.65
9:23:42.984375,-251.83
9:23:43,-224.22
9:23:43.015625,-198.08
9:23:43.031250,-173.01
9:23:43.046875,-148.73
9:23:43.062500,-124.89
9:23:43.078125,-100.87
9:23:43.093750,-75.96
9:23:43.109375,-49.57
9:23:43.125000,-21.40
9:23:43.140625,8.64
9:23:43.156250,40.64
9:23:43.171875,74.76
9:23:43.187500,110.94
9:23:43.203125,148.37
9:23:43.218750,184.98
9:23:43.234375,217.61
9:23:43.250000,242.75
9:23:43.265625,257.76
9:23:43.281250,261.91
9:23:43.296875,256.66
9:23:43.312500,245.03
9:23:43.328125,230.33
9:23:43.343750,215.03
9:23:43.359375,200.33
9:23:43.375000,186.32
9:23:43.390625,172.72
9:23:43.406250,159.43
9:23:43.421875,146.67
9:23:43.437500,134.68
9:23:43.453125,123.41
9:23:43.468750,112.37
9:23:43.484375,100.81
9:23:43.500000,88.11
9:23:43.515625,74.10
9:23:43.531250,59.14
9:23:43.546875,44.10
9:23:43.562500,30.08
9:23:43.578125,18.21
9:23:43.593750,9.40
9:23:43.609375,4.20
9:23:43.625000,2.68
9:23:43.640625,4.42
9:23:43.656250,8.68
9:23:43.671875,14.55
9:23:43.687500,21.25
9:23:43.703125,28.20
9:23:43.718750,35.01
9:23:43.734375,41.38
9:23:43.750000,46.94
9:23:43.765625,51.19
9:23:43.781250,53.64
9:23:43.796875,53.95
9:23:43.812500,52.11
9:23:43.828125,48.43
9:23:43.843750,43.48
9:23:43.859375,37.86
9:23:43.875000,32.06
9:23:43.890625,26.29
9:23:43.906250,20.53
9:23:43.921875,14.58
9:23:43.937500,8.19
9:23:43.953125,1.25
9:23:43.968750,-6.19
9:23:43.984375,-13.95
9:23:44,-21.83
9:23:44.015625,-29.68
9:23:44.031250,-37.54
9:23:44.046875,-45.49
9:23:44.062500,-53.53
9:23:44.078125,-61.54
9:23:44.093750,-69.24
9:23:44.109375,-76.39
9:23:44.125000,-82.86
9:23:44.140625,-88.64
9:23:44.156250,-93.68
9:23:44.171875,-97.72
9:23:44.187500,-100.10
9:23:44.203125,-99.91
9:23:44.218750,-96.28
9:23:44.234375,-88.81
9:23:44.250000,-77.88
9:23:44.265625,-64.60
9:23:44.281250,-50.59
9:23:44.296875,-37.35
9:23:44.312500,-25.79
9:23:44.328125,-16.00
9:23:44.343750,-7.43
9:23:44.359375,0.61
9:23:44.375000,8.43
9:23:44.390625,15.57
9:23:44.406250,20.89
9:23:44.421875,23.00
9:23:44.437500,20.83
9:23:44.453125,14.07
9:23:44.468750,3.29
9:23:44.484375,-10.20
9:23:44.500000,-24.70
9:23:44.515625,-38.53
9:23:44.531250,-50.47
9:23:44.546875,-60.03
9:23:44.562500,-67.65
9:23:44.578125,-74.43
9:23:44.593750,-81.65
9:23:44.609375,-90.06
9:23:44.625000,-99.17
9:23:44.640625,-107.16
9:23:44.656250,-111.25
9:23:44.671875,-108.61
9:23:44.687500,-97.25
9:23:44.703125,-76.61
9:23:44.718750,-47.75
9:23:44.734375,-13.30
9:23:44.750000,22.98
9:23:44.765625,56.76
9:23:44.781250,84.12
9:23:44.796875,102.61
9:23:44.812500,112.09
9:23:44.828125,114.74
9:23:44.843750,114.20
9:23:44.859375,113.97
9:23:44.875000,116.00
9:23:44.890625,120.12
9:23:44.906250,124.64
9:23:44.921875,127.66
9:23:44.937500,128.39
9:23:44.953125,127.52
9:23:44.968750,126.62
9:23:44.984375,126.84
9:23:45,128.10
9:23:45.015625,128.97
9:23:45.031250,127.50
9:23:45.046875,122.17
9:23:45.062500,112.59
9:23:45.078125,99.53
9:23:45.093750,84.35
9:23:45.109375,68.35
9:23:45.125000,52.48
9:23:45.140625,37.52
9:23:45.156250,24.43
9:23:45.171875,14.53
9:23:45.187500,9.17
9:23:45.203125,9.10
9:23:45.218750,13.90
9:23:45.234375,21.84
9:23:45.250000,30.41
9:23:45.265625,37.00
9:23:45.281250,39.83
9:23:45.296875,38.20
9:23:45.312500,32.56
9:23:45.328125,24.17
9:23:45.343750,14.75
9:23:45.359375,6.08
9:23:45.375000,-0.29
9:23:45.390625,-3.25
9:23:45.406250,-2.43
9:23:45.421875,1.85
9:23:45.437500,8.67
9:23:45.453125,16.88
9:23:45.468750,25.47
9:23:45.484375,33.77
9:23:45.500000,41.40
9:23:45.515625,48.14
9:23:45.531250,53.78
9:23:45.546875,57.98
9:23:45.562500,60.47
9:23:45.578125,61.08
9:23:45.593750,59.95
9:23:45.609375,57.48
9:23:45.625000,54.22
9:23:45.640625,50.65
9:23:45.656250,46.99
9:23:45.671875,43.25
9:23:45.687500,39.21
9:23:45.703125,34.69
9:23:45.718750,29.70
9:23:45.734375,24.42
9:23:45.750000,19.14
9:23:45.765625,14.13
9:23:45.781250,9.47
9:23:45.796875,5.05
9:23:45.812500,0.66
9:23:45.828125,-3.99
9:23:45.843750,-9.14
9:23:45.859375,-14.93
9:23:45.875000,-21.38
9:23:45.890625,-28.27
9:23:45.906250,-35.06
9:23:45.921875,-40.91
9:23:45.937500,-44.86
9:23:45.953125,-46.12
9:23:45.968750,-44.26
9:23:45.984375,-39.33
9:23:46,-31.78
9:23:46.015625,-22.30
9:23:46.031250,-11.66
9:23:46.046875,-0.59
9:23:46.062500,10.22
9:23:46.078125,20.14
9:23:46.093750,28.59
9:23:46.109375,35.10
9:23:46.125000,39.45
9:23:46.140625,41.68
9:23:46.156250,42.07
9:23:46.171875,41.14
9:23:46.187500,39.42
9:23:46.203125,37.39
9:23:46.218750,35.31
9:23:46.234375,33.27
9:23:46.250000,31.09
9:23:46.265625,28.61
9:23:46.281250,25.69
9:23:46.296875,22.37
9:23:46.312500,18.83
9:23:46.328125,15.30
9:23:46.343750,11.92
9:23:46.359375,8.65
9:23:46.375000,5.29
9:23:46.390625,1.52
9:23:46.406250,-2.91
9:23:46.421875,-8.16
9:23:46.437500,-14.15
9:23:46.453125,-20.58
9:23:46.468750,-26.92
9:23:46.484375,-32.39
9:23:46.500000,-36.22
9:23:46.515625,-37.74
9:23:46.531250,-36.65
9:23:46.546875,-33.07
9:23:46.562500,-27.53
9:23:46.578125,-20.75
9:23:46.593750,-13.39
9:23:46.609375,-5.92
9:23:46.625000,1.43
9:23:46.640625,8.52
9:23:46.656250,15.15
9:23:46.671875,21.11
9:23:46.687500,26.10
9:23:46.703125,29.95
9:23:46.718750,32.65
9:23:46.734375,34.34
9:23:46.750000,35.21
9:23:46.765625,35.48
9:23:46.781250,35.25
9:23:46.796875,34.57
9:23:46.812500,33.42
9:23:46.828125,31.70
9:23:46.843750,29.34
9:23:46.859375,26.31
9:23:46.875000,22.71
9:23:46.890625,18.76
9:23:46.906250,14.76
9:23:46.921875,10.93
9:23:46.937500,7.30
9:23:46.953125,3.74
9:23:46.968750,-0.03
9:23:46.984375,-4.30
9:23:47,-9.28
9:23:47.015625,-15.00
9:23:47.031250,-21.29
9:23:47.046875,-27.75
9:23:47.062500,-33.69
9:23:47.078125,-38.27
9:23:47.093750,-40.64
9:23:47.109375,-40.23
9:23:47.125000,-37.01
9:23:47.140625,-31.46
9:23:47.156250,-24.43
9:23:47.171875,-16.79
9:23:47.187500,-9.19
9:23:47.203125,-1.92
9:23:47.218750,4.94
9:23:47.234375,11.33
9:23:47.250000,17.05
9:23:47.265625,21.77
9:23:47.281250,25.20
9:23:47.296875,27.22
9:23:47.312500,27.95
9:23:47.328125,27.72
9:23:47.343750,26.91
9:23:47.359375,25.80
9:23:47.375000,24.56
9:23:47.390625,23.24
9:23:47.406250,21.83
9:23:47.421875,20.29
9:23:47.437500,18.62
9:23:47.453125,16.78
9:23:47.468750,14.74
9:23:47.484375,12.43
9:23:47.500000,9.80
9:23:47.515625,6.83
9:23:47.531250,3.51
9:23:47.546875,-0.11
9:23:47.562500,-3.97
9:23:47.578125,-8.02
9:23:47.593750,-12.23
9:23:47.609375,-16.60
9:23:47.625000,-21.14
9:23:47.640625,-25.69
9:23:47.656250,-29.90
9:23:47.671875,-33.13
9:23:47.687500,-34.67
9:23:47.703125,-33.93
9:23:47.718750,-30.69
9:23:47.734375,-25.29
9:23:47.750000,-18.44
9:23:47.765625,-11.06
9:23:47.781250,-3.90
9:23:47.796875,2.59
9:23:47.812500,8.33
9:23:47.828125,13.42
9:23:47.843750,17.97
9:23:47.859375,21.95
9:23:47.875000,25.20
9:23:47.890625,27.48
9:23:47.906250,28.62
9:23:47.921875,28.66
9:23:47.937500,27.77
9:23:47.953125,26.30
9:23:47.968750,24.61
9:23:47.984375,22.95
9:23:48,21.48
9:23:48.015625,20.13
9:23:48.031250,18.75
9:23:48.046875,17.16
9:23:48.062500,15.22
9:23:48.078125,12.86
9:23:48.093750,10.09
9:23:48.109375,6.95
9:23:48.125000,3.49
9:23:48.140625,-0.19
9:23:48.156250,-4.02
9:23:48.171875,-7.87
9:23:48.187500,-11.67
9:23:48.203125,-15.41
9:23:48.218750,-19.24
9:23:48.234375,-23.39
9:23:48.250000,-28.04
9:23:48.265625,-33.14
9:23:48.281250,-38.23
9:23:48.296875,-42.45
9:23:48.312500,-44.77
9:23:48.328125,-44.39
9:23:48.343750,-41.08
9:23:48.359375,-35.34
9:23:48.375000,-28.17
9:23:48.390625,-20.74
9:23:48.406250,-13.95
9:23:48.421875,-8.18
9:23:48.437500,-3.33
9:23:48.453125,0.97
9:23:48.468750,5.04
9:23:48.484375,8.95
9:23:48.500000,12.51
9:23:48.515625,15.36
9:23:48.531250,17.18
9:23:48.546875,17.85
9:23:48.562500,17.47
9:23:48.578125,16.39
9:23:48.593750,15.01
9:23:48.609375,13.64
9:23:48.625000,12.40
9:23:48.640625,11.21
9:23:48.656250,9.92
9:23:48.671875,8.38
9:23:48.687500,6.56
9:23:48.703125,4.48
9:23:48.718750,2.23
9:23:48.734375,-0.14
9:23:48.750000,-2.70
9:23:48.765625,-5.51
9:23:48.781250,-8.66
9:23:48.796875,-12.19
9:23:48.812500,-16.09
9:23:48.828125,-20.34
9:23:48.843750,-24.84
9:23:48.859375,-29.42
9:23:48.875000,-33.66
9:23:48.890625,-36.95
9:23:48.906250,-38.58
9:23:48.921875,-37.98
9:23:48.937500,-34.92
9:23:48.953125,-29.67
9:23:48.968750,-22.93
9:23:48.984375,-15.60
9:23:49,-8.49
9:23:49.015625,-2.10
9:23:49.031250,3.41
9:23:49.046875,8.11
9:23:49.062500,12.04
9:23:49.078125,15.13
9:23:49.093750,17.21
9:23:49.109375,18.11
9:23:49.125000,17.84
9:23:49.140625,16.65
9:23:49.156250,14.98
9:23:49.171875,13.29
9:23:49.187500,11.92
9:23:49.203125,10.99
9:23:49.218750,10.43
9:23:49.234375,10.08
9:23:49.250000,9.70
9:23:49.265625,9.12
9:23:49.281250,8.20
9:23:49.296875,6.85
9:23:49.312500,5.05
9:23:49.328125,2.83
9:23:49.343750,0.29
9:23:49.359375,-2.45
9:23:49.375000,-5.31
9:23:49.390625,-8.30
9:23:49.406250,-11.51
9:23:49.421875,-15.09
9:23:49.437500,-19.16
9:23:49.453125,-23.69
9:23:49.468750,-28.47
9:23:49.484375,-32.98
9:23:49.500000,-36.49
9:23:49.515625,-38.23
9:23:49.531250,-37.59
9:23:49.546875,-34.41
9:23:49.562500,-29.07
9:23:49.578125,-22.39
9:23:49.593750,-15.32
9:23:49.609375,-8.61
9:23:49.625000,-2.61
9:23:49.640625,2.79
9:23:49.656250,7.87
9:23:49.671875,12.81
9:23:49.687500,17.52
9:23:49.703125,21.69
9:23:49.718750,24.95
9:23:49.734375,27.05
9:23:49.750000,27.95
9:23:49.765625,27.82
9:23:49.781250,26.91
9:23:49.796875,25.43
9:23:49.812500,23.50
9:23:49.828125,21.24
9:23:49.843750,18.73
9:23:49.859375,16.10
9:23:49.875000,13.47
9:23:49.890625,10.94
9:23:49.906250,8.51
9:23:49.921875,6.09
9:23:49.937500,3.51
9:23:49.953125,0.60
9:23:49.968750,-2.78
9:23:49.984375,-6.66
9:23:50,-10.96
9:23:50.015625,-15.46
9:23:50.031250,-20.00
9:23:50.046875,-24.53
9:23:50.062500,-29.16
9:23:50.078125,-34.04
9:23:50.093750,-39.17
9:23:50.109375,-44.23
9:23:50.125000,-48.49
9:23:50.140625,-51.05
9:23:50.156250,-51.13
9:23:50.171875,-48.39
9:23:50.187500,-42.99
9:23:50.203125,-35.50
9:23:50.218750,-26.63
9:23:50.234375,-17.08
9:23:50.250000,-7.38
9:23:50.265625,1.99
9:23:50.281250,10.59
9:23:50.296875,18.00
9:23:50.312500,23.86
9:23:50.328125,28.01
9:23:50.343750,30.42
9:23:50.359375,31.30
9:23:50.375000,30.91
9:23:50.390625,29.58
9:23:50.406250,27.64
9:23:50.421875,25.40
9:23:50.437500,23.11
9:23:50.453125,20.92
9:23:50.468750,18.82
9:23:50.484375,16.73
9:23:50.500000,14.49
9:23:50.515625,12.05
9:23:50.531250,9.39
9:23:50.546875,6.58
9:23:50.562500,3.65
9:23:50.578125,0.63
9:23:50.593750,-2.50
9:23:50.609375,-5.76
9:23:50.625000,-9.14
9:23:50.640625,-12.61
9:23:50.656250,-16.19
9:23:50.671875,-19.96
9:23:50.687500,-24.07
9:23:50.703125,-28.61
9:23:50.718750,-33.39
9:23:50.734375,-37.89
9:23:50.750000,-41.22
9:23:50.765625,-42.45
9:23:50.781250,-40.95
9:23:50.796875,-36.67
9:23:50.812500,-30.24
9:23:50.828125,-22.67
9:23:50.843750,-14.98
9:23:50.859375,-7.88
9:23:50.875000,-1.58
9:23:50.890625,4.03
9:23:50.906250,9.15
9:23:50.921875,13.82
9:23:50.937500,17.79
9:23:50.953125,20.73
9:23:50.968750,22.33
9:23:50.984375,22.53
9:23:51,21.56
9:23:51.015625,19.80
9:23:51.031250,17.72
9:23:51.046875,15.72
9:23:51.062500,14.05
9:23:51.078125,12.78
9:23:51.093750,11.84
9:23:51.109375,11.02
9:23:51.125000,10.07
9:23:51.140625,8.79
9:23:51.156250,7.08
9:23:51.171875,4.98
9:23:51.187500,2.59
9:23:51.203125,0.03
9:23:51.218750,-2.61
9:23:51.234375,-5.34
9:23:51.250000,-8.23
9:23:51.265625,-11.38
9:23:51.281250,-14.88
9:23:51.296875,-18.84
9:23:51.312500,-23.31
9:23:51.328125,-28.25
9:23:51.343750,-33.37
9:23:51.359375,-38.07
9:23:51.375000,-41.47
9:23:51.390625,-42.62
9:23:51.406250,-40.90
9:23:51.421875,-36.28
9:23:51.437500,-29.34
9:23:51.453125,-21.15
9:23:51.468750,-12.78
9:23:51.484375,-5.00
9:23:51.500000,1.92
9:23:51.515625,8.06
9:23:51.531250,13.66
9:23:51.546875,18.86
9:23:51.562500,23.57
9:23:51.578125,27.58
9:23:51.593750,30.65
9:23:51.609375,32.65
9:23:51.625000,33.58
9:23:51.640625,33.57
9:23:51.656250,32.79
9:23:51.671875,31.41
9:23:51.687500,29.60
9:23:51.703125,27.55
9:23:51.718750,25.37
9:23:51.734375,23.20
9:23:51.750000,21.07
9:23:51.765625,18.99
9:23:51.781250,16.90
9:23:51.796875,14.68
9:23:51.812500,12.22
9:23:51.828125,9.45
9:23:51.843750,6.31
9:23:51.859375,2.85
9:23:51.875000,-0.85
9:23:51.890625,-4.68
9:23:51.906250,-8.55
9:23:51.921875,-12.45
9:23:51.937500,-16.50
9:23:51.953125,-20.91
9:23:51.968750,-25.87
9:23:51.984375,-31.40
9:23:52,-37.13
9:23:52.015625,-42.33
9:23:52.031250,-46.01
9:23:52.046875,-47.19
9:23:52.062500,-45.30
9:23:52.078125,-40.37
9:23:52.093750,-33.08
9:23:52.109375,-24.52
9:23:52.125000,-15.79
9:23:52.140625,-7.72
9:23:52.156250,-0.71
9:23:52.171875,5.22
9:23:52.187500,10.28
9:23:52.203125,14.64
9:23:52.218750,18.39
9:23:52.234375,21.46
9:23:52.250000,23.72
9:23:52.265625,25.05
9:23:52.281250,25.39
9:23:52.296875,24.82
9:23:52.312500,23.52
9:23:52.328125,21.79
9:23:52.343750,19.89
9:23:52.359375,18.01
9:23:52.375000,16.18
9:23:52.390625,14.34
9:23:52.406250,12.39
9:23:52.421875,10.25
9:23:52.437500,7.94
9:23:52.453125,5.56
9:23:52.468750,3.15
9:23:52.484375,0.66
9:23:52.500000,-2.01
9:23:52.515625,-4.99
9:23:52.531250,-8.36
9:23:52.546875,-12.13
9:23:52.562500,-16.27
9:23:52.578125,-20.74
9:23:52.593750,-25.51
9:23:52.609375,-30.44
9:23:52.625000,-35.23
9:23:52.640625,-39.32
9:23:52.656250,-41.95
9:23:52.671875,-42.35
9:23:52.687500,-40.08
9:23:52.703125,-35.16
9:23:52.718750,-28.14
9:23:52.734375,-19.92
9:23:52.750000,-11.47
9:23:52.765625,-3.55
9:23:52.781250,3.42
9:23:52.796875,9.33
9:23:52.812500,14.22
9:23:52.828125,18.18
9:23:52.843750,21.22
9:23:52.859375,23.34
9:23:52.875000,24.53
9:23:52.890625,24.87
9:23:52.906250,24.52
9:23:52.921875,23.69
9:23:52.937500,22.60
9:23:52.953125,21.41
9:23:52.968750,20.19
9:23:52.984375,18.93
9:23:53,17.54
9:23:53.015625,15.89
9:23:53.031250,13.90
9:23:53.046875,11.51
9:23:53.062500,8.78
9:23:53.078125,5.81
9:23:53.093750,2.68
9:23:53.109375,-0.52
9:23:53.125000,-3.76
9:23:53.140625,-7.02
9:23:53.156250,-10.33
9:23:53.171875,-13.77
9:23:53.187500,-17.49
9:23:53.203125,-21.71
9:23:53.218750,-26.56
9:23:53.234375,-31.96
9:23:53.250000,-37.48
9:23:53.265625,-42.34
9:23:53.281250,-45.55
9:23:53.296875,-46.23
9:23:53.312500,-43.93
9:23:53.328125,-38.77
9:23:53.343750,-31.44
9:23:53.359375,-22.97
9:23:53.375000,-14.34
9:23:53.390625,-6.20
9:23:53.406250,1.16
9:23:53.421875,7.79
9:23:53.437500,13.82
9:23:53.453125,19.29
9:23:53.468750,24.08
9:23:53.484375,27.95
9:23:53.500000,30.70
9:23:53.515625,32.23
9:23:53.531250,32.66
9:23:53.546875,32.18
9:23:53.562500,31.04
9:23:53.578125,29.43
9:23:53.593750,27.54
9:23:53.609375,25.53
9:23:53.625000,23.57
9:23:53.640625,21.73
9:23:53.656250,20.02
9:23:53.671875,18.25
9:23:53.687500,16.13
9:23:53.703125,13.41
9:23:53.718750,9.94
9:23:53.734375,5.86
9:23:53.750000,1.45
9:23:53.765625,-2.95
9:23:53.781250,-7.12
9:23:53.796875,-11.00
9:23:53.812500,-14.76
9:23:53.828125,-18.63
9:23:53.843750,-22.87
9:23:53.859375,-27.63
9:23:53.875000,-32.84
9:23:53.890625,-38.17
9:23:53.906250,-42.95
9:23:53.921875,-46.27
9:23:53.937500,-47.22
9:23:53.953125,-45.18
9:23:53.968750,-40.15
9:23:53.984375,-32.75
9:23:54,-24.07
9:23:54.015625,-15.28
9:23:54.031250,-7.19
9:23:54.046875,-0.14
9:23:54.062500,5.96
9:23:54.078125,11.39
9:23:54.093750,16.37
9:23:54.109375,20.84
9:23:54.125000,24.58
9:23:54.140625,27.34
9:23:54.156250,29.00
9:23:54.171875,29.61
9:23:54.187500,29.36
9:23:54.203125,28.51
9:23:54.218750,27.31
9:23:54.234375,25.93
9:23:54.250000,24.47
9:23:54.265625,22.91
9:23:54.281250,21.18
9:23:54.296875,19.20
9:23:54.312500,16.86
9:23:54.328125,14.13
9:23:54.343750,11.06
9:23:54.359375,7.74
9:23:54.375000,4.28
9:23:54.390625,0.76
9:23:54.406250,-2.76
9:23:54.421875,-6.31
9:23:54.437500,-9.91
9:23:54.453125,-13.62
9:23:54.468750,-17.57
9:23:54.484375,-21.91
9:23:54.500000,-26.76
9:23:54.515625,-32.13
9:23:54.531250,-37.69
9:23:54.546875,-42.77
9:23:54.562500,-46.44
9:23:54.578125,-47.83
9:23:54.593750,-46.38
9:23:54.609375,-42.17
9:23:54.625000,-35.78
9:23:54.640625,-28.13
9:23:54.656250,-20.13
9:23:54.671875,-12.38
9:23:54.687500,-5.18
9:23:54.703125,1.40
9:23:54.718750,7.30
9:23:54.734375,12.36
9:23:54.750000,16.34
9:23:54.765625,19.01
9:23:54.781250,20.31
9:23:54.796875,20.41
9:23:54.812500,19.67
9:23:54.828125,18.53
9:23:54.843750,17.36
9:23:54.859375,16.39
9:23:54.875000,15.56
9:23:54.890625,14.63
9:23:54.906250,13.19
9:23:54.921875,10.85
9:23:54.937500,7.46
9:23:54.953125,3.16
9:23:54.968750,-1.64
9:23:54.984375,-6.38
9:23:55,-10.66
9:23:55.015625,-14.38
9:23:55.031250,-17.74
9:23:55.046875,-21.15
9:23:55.062500,-25.01
9:23:55.078125,-29.53
9:23:55.093750,-34.67
9:23:55.109375,-40.14
9:23:55.125000,-45.43
9:23:55.140625,-49.76
9:23:55.156250,-52.19
9:23:55.171875,-51.72
9:23:55.187500,-47.64
9:23:55.203125,-39.76
9:23:55.218750,-28.65
9:23:55.234375,-15.49
9:23:55.250000,-1.73
9:23:55.265625,11.32
9:23:55.281250,22.83
9:23:55.296875,32.55
9:23:55.312500,40.64
9:23:55.328125,47.36
9:23:55.343750,52.85
9:23:55.359375,56.94
9:23:55.375000,59.30
9:23:55.390625,59.67
9:23:55.406250,58.11
9:23:55.421875,55.12
9:23:55.437500,51.53
9:23:55.453125,48.23
9:23:55.468750,45.82
9:23:55.484375,44.37
9:23:55.500000,43.40
9:23:55.515625,42.16
9:23:55.531250,39.98
9:23:55.546875,36.54
9:23:55.562500,31.92
9:23:55.578125,26.51
9:23:55.593750,20.67
9:23:55.609375,14.70
9:23:55.625000,8.69
9:23:55.640625,2.72
9:23:55.656250,-3.13
9:23:55.671875,-8.69
9:23:55.687500,-13.85
9:23:55.703125,-18.62
9:23:55.718750,-23.22
9:23:55.734375,-27.98
9:23:55.750000,-33.00
9:23:55.765625,-38.02
9:23:55.781250,-42.27
9:23:55.796875,-44.72
9:23:55.812500,-44.44
9:23:55.828125,-41.13
9:23:55.843750,-35.26
9:23:55.859375,-27.88
9:23:55.875000,-20.18
9:23:55.890625,-12.95
9:23:55.906250,-6.31
9:23:55.921875,0.07
9:23:55.937500,6.65
9:23:55.953125,13.53
9:23:55.968750,20.34
9:23:55.984375,26.35
9:23:56,30.85
9:23:56.015625,33.45
9:23:56.031250,34.22
9:23:56.046875,33.59
9:23:56.062500,32.13
9:23:56.078125,30.33
9:23:56.093750,28.48
9:23:56.109375,26.71
9:23:56.125000,25.04
9:23:56.140625,23.43
9:23:56.156250,21.79
9:23:56.171875,20.03
9:23:56.187500,18.07
9:23:56.203125,15.85
9:23:56.218750,13.40
9:23:56.234375,10.78
9:23:56.250000,8.07
9:23:56.265625,5.32
9:23:56.281250,2.54
9:23:56.296875,-0.37
9:23:56.312500,-3.61
9:23:56.328125,-7.42
9:23:56.343750,-11.98
9:23:56.359375,-17.33
9:23:56.375000,-23.14
9:23:56.390625,-28.65
9:23:56.406250,-32.80
9:23:56.421875,-34.44
9:23:56.437500,-32.72
9:23:56.453125,-27.43
9:23:56.468750,-19.10
9:23:56.484375,-8.84
9:23:56.500000,2.08
9:23:56.515625,12.64
9:23:56.531250,22.36
9:23:56.546875,31.25
9:23:56.562500,39.58
9:23:56.578125,47.54
9:23:56.593750,55.09
9:23:56.609375,61.97
9:23:56.625000,67.85
9:23:56.640625,72.50
9:23:56.656250,75.87
9:23:56.671875,78.07
9:23:56.687500,79.25
9:23:56.703125,79.62
9:23:56.718750,79.35
9:23:56.734375,78.60
9:23:56.750000,77.46
9:23:56.765625,75.82
9:23:56.781250,73.43
9:23:56.796875,69.93
9:23:56.812500,64.99
9:23:56.828125,58.50
9:23:56.843750,50.64
9:23:56.859375,41.77
9:23:56.875000,32.37
9:23:56.890625,22.85
9:23:56.906250,13.62
9:23:56.921875,4.99
9:23:56.937500,-2.74
9:23:56.953125,-9.40
9:23:56.968750,-14.89
9:23:56.984375,-19.02
9:23:57,-21.46
9:23:57.015625,-21.56
9:23:57.031250,-18.63
9:23:57.046875,-12.34
9:23:57.062500,-3.14
9:23:57.078125,7.55
9:23:57.093750,17.67
9:23:57.109375,25.17
9:23:57.125000,28.78
9:23:57.140625,28.32
9:23:57.156250,24.62
9:23:57.171875,18.93
9:23:57.187500,12.40
9:23:57.203125,5.56
9:23:57.218750,-1.75
9:23:57.234375,-10.17
9:23:57.250000,-20.29
9:23:57.265625,-32.27
9:23:57.281250,-45.67
9:23:57.296875,-59.59
9:23:57.312500,-73.01
9:23:57.328125,-85.12
9:23:57.343750,-95.59
9:23:57.359375,-104.67
9:23:57.375000,-113.05
9:23:57.390625,-121.53
9:23:57.406250,-130.70
9:23:57.421875,-140.77
9:23:57.437500,-151.53
9:23:57.453125,-162.43
9:23:57.468750,-172.59
9:23:57.484375,-181.21
9:23:57.500000,-187.95
9:23:57.515625,-193.27
9:23:57.531250,-198.42
9:23:57.546875,-205.01
9:23:57.562500,-214.32
9:23:57.578125,-226.49
9:23:57.593750,-240.10
9:23:57.609375,-251.75
9:23:57.625000,-257.33
9:23:57.640625,-253.44
9:23:57.656250,-238.75
9:23:57.671875,-214.40
9:23:57.687500,-183.38
9:23:57.703125,-149.11
9:23:57.718750,-113.97
9:23:57.734375,-78.49
9:23:57.750000,-40.88
9:23:57.765625,0.78
9:23:57.781250,46.37
9:23:57.796875,92.60
9:23:57.812500,133.76
9:23:57.828125,163.99
9:23:57.843750,179.44
9:23:57.859375,179.48
9:23:57.875000,166.66
9:23:57.890625,147.61
9:23:57.906250,130.51
9:23:57.921875,123.75
9:23:57.937500,133.68
9:23:57.953125,163.05
9:23:57.968750,209.73
9:23:57.984375,266.07
9:23:58,319.72
9:23:58.015625,356.66
9:23:58.031250,367.74
9:23:58.046875,350.81
9:23:58.062500,311.72
9:23:58.078125,261.80
9:23:58.093750,214.08
9:23:58.109375,179.62
9:23:58.125000,164.40
9:23:58.140625,168.27
9:23:58.156250,174.92
9:23:58.171875,168.95
9:23:58.187500,141.90
9:23:58.203125,97.77
9:23:58.218750,47.87
9:23:58.234375,1.87
9:23:58.250000,-36.37
9:23:58.265625,-67.67
9:23:58.281250,-94.66
9:23:58.296875,-119.11
9:23:58.312500,-138.88
9:23:58.328125,-150.55
9:23:58.343750,-151.92
9:23:58.359375,-144.14
9:23:58.375000,-131.57
9:23:58.390625,-119.42
9:23:58.406250,-111.93
9:23:58.421875,-110.83
9:23:58.437500,-115.33
9:23:58.453125,-121.53
9:23:58.468750,-125.15
9:23:58.484375,-123.50
9:23:58.500000,-116.74
9:23:58.515625,-107.39
9:23:58.531250,-98.62
9:23:58.546875,-92.80
9:23:58.562500,-90.81
9:23:58.578125,-91.98
9:23:58.593750,-93.84
9:23:58.609375,-93.67
9:23:58.625000,-89.79
9:23:58.640625,-82.20
9:23:58.656250,-72.32
9:23:58.671875,-61.76
9:23:58.687500,-51.76
9:23:58.703125,-42.90
9:23:58.718750,-35.23
9:23:58.734375,-28.15
9:23:58.750000,-20.88
9:23:58.765625,-13.21
9:23:58.781250,-5.51
9:23:58.796875,1.60
9:23:58.812500,7.72
9:23:58.828125,12.87
9:23:58.843750,17.35
9:23:58.859375,21.45
9:23:58.875000,25.35
9:23:58.890625,29.30
9:23:58.906250,33.20
9:23:58.921875,36.74
9:23:58.937500,39.81
9:23:58.953125,42.65
9:23:58.968750,45.72
9:23:58.984375,49.64
9:23:59,54.91
9:23:59.015625,61.83
9:23:59.031250,70.79
9:23:59.046875,81.28
9:23:59.062500,91.86
9:23:59.078125,100.44
9:23:59.093750,104.92
9:23:59.109375,104.05
9:23:59.125000,98.02
9:23:59.140625,88.59
9:23:59.156250,75.10
9:23:59.171875,58.98
9:23:59.187500,41.34
9:23:59.203125,22.43
9:23:59.218750,1.85
9:23:59.234375,-20.62
9:23:59.250000,-44.32
9:23:59.265625,-67.45
9:23:59.281250,-87.53
9:23:59.296875,-102.26
9:23:59.312500,-109.71
9:23:59.328125,-109.41
9:23:59.343750,-102.08
9:23:59.359375,-89.11
9:23:59.375000,-72.09
9:23:59.390625,-52.59
9:23:59.406250,-31.98
9:23:59.421875,-11.60
9:23:59.437500,7.32
9:23:59.453125,24.07
9:23:59.468750,37.98
9:23:59.484375,48.66
9:23:59.500000,56.08
9:23:59.515625,60.62
9:23:59.531250,62.85
9:23:59.546875,63.25
9:23:59.562500,61.92
9:23:59.578125,58.49
9:23:59.593750,52.46
9:23:59.609375,43.27
9:23:59.625000,30.93
9:23:59.640625,16.37
9:23:59.656250,1.41
9:23:59.671875,-11.67
9:23:59.687500,-20.90
9:23:59.703125,-25.32
9:23:59.718750,-25.24
9:23:59.734375,-22.07
9:23:59.750000,-17.83
9:23:59.765625,-14.39
9:23:59.781250,-12.86
9:23:59.796875,-13.42
9:23:59.812500,-15.46
9:23:59.828125,-18.10
9:23:59.843750,-20.51
9:23:59.859375,-22.25
9:23:59.875000,-23.20
9:23:59.890625,-23.52
9:23:59.906250,-23.43
9:23:59.921875,-23.22
9:23:59.937500,-23.33
9:23:59.953125,-24.29
9:23:59.968750,-26.59
9:23:59.984375,-30.34
9:24:00,-35.10
9:24:00.015625,-39.83
9:24:00.031250,-43.13
9:24:00.046875,-43.47
9:24:00.062500,-39.77
9:24:00.078125,-32.08
9:24:00.093750,-21.73
9:24:00.109375,-10.80
9:24:00.125000,-1.43
9:24:00.140625,4.91
9:24:00.156250,7.87
9:24:00.171875,8.16
9:24:00.187500,7.66
9:24:00.203125,8.67
9:24:00.218750,13.07
9:24:00.234375,22.15
9:24:00.250000,36.97
9:24:00.265625,58.51
9:24:00.281250,86.99
9:24:00.296875,120.88
9:24:00.312500,156.22
9:24:00.328125,187.70
9:24:00.343750,209.80
9:24:00.359375,217.86
9:24:00.375000,209.51
9:24:00.390625,185.41
9:24:00.406250,148.71
9:24:00.421875,103.20
9:24:00.437500,51.73
9:24:00.453125,-3.94
9:24:00.468750,-60.43
9:24:00.484375,-111.27
9:24:00.500000,-147.75
9:24:00.515625,-161.65
9:24:00.531250,-148.82
9:24:00.546875,-112.10
9:24:00.562500,-61.79
9:24:00.578125,-11.64
9:24:00.593750,21.43
9:24:00.609375,27.06
9:24:00.625000,9.10
9:24:00.640625,-17.35
9:24:00.656250,-36.99
9:24:00.671875,-43.12
9:24:00.687500,-38.55
9:24:00.703125,-30.55
9:24:00.718750,-25.08
9:24:00.734375,-23.71
9:24:00.750000,-23.26
9:24:00.765625,-19.32
9:24:00.781250,-10.09
9:24:00.796875,2.45
9:24:00.812500,14.24
9:24:00.828125,21.84
9:24:00.843750,24.14
9:24:00.859375,22.53
9:24:00.875000,19.73
9:24:00.890625,19.02
9:24:00.906250,22.64
9:24:00.921875,30.46
9:24:00.937500,40.01
9:24:00.953125,48.03
9:24:00.968750,52.20
9:24:00.984375,51.98
9:24:01,48.39
9:24:01.015625,42.97
9:24:01.031250,37.62
9:24:01.046875,33.70
9:24:01.062500,31.26
9:24:01.078125,29.23
9:24:01.093750,26.40
9:24:01.109375,22.28
9:24:01.125000,17.34
9:24:01.140625,12.79
9:24:01.156250,9.28
9:24:01.171875,7.43
9:24:01.187500,7.32
9:24:01.203125,8.49
9:24:01.218750,10.07
9:24:01.234375,11.41
9:24:01.250000,12.31
9:24:01.265625,13.13
9:24:01.281250,14.43
9:24:01.296875,15.89
9:24:01.312500,17.14
9:24:01.328125,17.49
9:24:01.343750,15.95
9:24:01.359375,11.27
9:24:01.375000,2.36
9:24:01.390625,-11.56
9:24:01.406250,-31.07
9:24:01.421875,-50.99
9:24:01.437500,-67.85
9:24:01.453125,-78.73
9:24:01.468750,-82.06
9:24:01.484375,-78.14
9:24:01.500000,-69.02
9:24:01.515625,-57.64
9:24:01.531250,-46.83
9:24:01.546875,-38.37
9:24:01.562500,-32.63
9:24:01.578125,-29.79
9:24:01.593750,-29.41
9:24:01.609375,-31.07
9:24:01.625000,-34.50
9:24:01.640625,-39.46
9:24:01.656250,-45.54
9:24:01.671875,-52.24
9:24:01.687500,-59.11
9:24:01.703125,-65.88
9:24:01.718750,-73.21
9:24:01.734375,-81.57
9:24:01.750000,-91.12
9:24:01.765625,-101.42
9:24:01.781250,-111.52
9:24:01.796875,-120.36
9:24:01.812500,-127.43
9:24:01.828125,-133.08
9:24:01.843750,-138.47
9:24:01.859375,-145.10
9:24:01.875000,-153.11
9:24:01.890625,-160.55
9:24:01.906250,-163.22
9:24:01.921875,-155.68
9:24:01.937500,-132.70
9:24:01.953125,-91.22
9:24:01.968750,-32.17
9:24:01.984375,38.61
9:24:02,110.33
9:24:02.015625,169.27
9:24:02.031250,201.76
9:24:02.046875,198.32
9:24:02.062500,157.02
9:24:02.078125,85.12
9:24:02.093750,-2.14
9:24:02.109375,-85.60
9:24:02.125000,-147.55
9:24:02.140625,-176.22
9:24:02.156250,-167.83
9:24:02.171875,-126.16
9:24:02.187500,-60.54
9:24:02.203125,16.44
9:24:02.218750,91.19
9:24:02.234375,151.63
9:24:02.250000,189.74
9:24:02.265625,203.77
9:24:02.281250,198.66
9:24:02.296875,184.15
9:24:02.312500,170.66
9:24:02.328125,165.38
9:24:02.343750,169.72
9:24:02.359375,179.85
9:24:02.375000,189.64
9:24:02.390625,193.88
9:24:02.406250,190.32
9:24:02.421875,179.33
9:24:02.437500,162.41
9:24:02.453125,140.75
9:24:02.468750,114.98
9:24:02.484375,85.89
9:24:02.500000,55.21
9:24:02.515625,25.51
9:24:02.531250,-0.67
9:24:02.546875,-21.80
9:24:02.562500,-37.86
9:24:02.578125,-50.00
9:24:02.593750,-59.57
9:24:02.609375,-67.17
9:24:02.625000,-72.31
9:24:02.640625,-73.77
9:24:02.656250,-70.28
9:24:02.671875,-61.45
9:24:02.687500,-48.11
9:24:02.703125,-32.31
9:24:02.718750,-16.64
9:24:02.734375,-3.43
9:24:02.750000,5.92
9:24:02.765625,11.28
9:24:02.781250,13.48
9:24:02.796875,13.89
9:24:02.812500,13.77
9:24:02.828125,13.90
9:24:02.843750,14.41
9:24:02.859375,15.00
9:24:02.875000,15.20
9:24:02.890625,14.69
9:24:02.906250,13.43
9:24:02.921875,11.58
9:24:02.937500,9.34
9:24:02.953125,6.91
9:24:02.968750,4.37
9:24:02.984375,1.74
9:24:03,-0.92
9:24:03.015625,-3.60
9:24:03.031250,-6.30
9:24:03.046875,-9.06
9:24:03.062500,-11.97
9:24:03.078125,-15.03
9:24:03.093750,-18.18
9:24:03.109375,-21.30
9:24:03.125000,-24.29
9:24:03.140625,-27.26
9:24:03.156250,-30.49
9:24:03.171875,-34.34
9:24:03.187500,-39.06
9:24:03.203125,-44.59
9:24:03.218750,-50.35
9:24:03.234375,-55.42
9:24:03.250000,-58.66
9:24:03.265625,-59.10
9:24:03.281250,-56.17
9:24:03.296875,-49.94
9:24:03.312500,-41.04
9:24:03.328125,-30.48
9:24:03.343750,-19.44
9:24:03.359375,-8.94
9:24:03.375000,0.33
9:24:03.390625,8.08
9:24:03.406250,14.29
9:24:03.421875,19.08
9:24:03.437500,22.56
9:24:03.453125,24.77
9:24:03.468750,25.68
9:24:03.484375,25.31
9:24:03.500000,23.79
9:24:03.515625,21.42
9:24:03.531250,18.60
9:24:03.546875,15.72
9:24:03.562500,13.09
9:24:03.578125,10.86
9:24:03.593750,9.01
9:24:03.609375,7.41
9:24:03.625000,5.84
9:24:03.640625,4.10
9:24:03.656250,2.05
9:24:03.671875,-0.35
9:24:03.687500,-3.08
9:24:03.703125,-6.02
9:24:03.718750,-9.06
9:24:03.734375,-12.13
9:24:03.750000,-15.20
9:24:03.765625,-18.28
9:24:03.781250,-21.43
9:24:03.796875,-24.74
9:24:03.812500,-28.39
9:24:03.828125,-32.59
9:24:03.843750,-37.47
9:24:03.859375,-42.93
9:24:03.875000,-48.39
9:24:03.890625,-52.83
9:24:03.906250,-54.97
9:24:03.921875,-53.67
9:24:03.937500,-48.42
9:24:03.953125,-39.59
9:24:03.968750,-28.37
9:24:03.984375,-16.39
9:24:04,-5.10
9:24:04.015625,4.56
9:24:04.031250,12.37
9:24:04.046875,18.52
9:24:04.062500,23.36
9:24:04.078125,27.03
9:24:04.093750,29.50
9:24:04.109375,30.67
9:24:04.125000,30.62
9:24:04.140625,29.60
9:24:04.156250,28.05
9:24:04.171875,26.42
9:24:04.187500,25.00
9:24:04.203125,23.91
9:24:04.218750,23.09
9:24:04.234375,22.42
9:24:04.250000,21.71
9:24:04.265625,20.73
9:24:04.281250,19.22
9:24:04.296875,16.98
9:24:04.312500,13.93
9:24:04.328125,10.21
9:24:04.343750,6.12
9:24:04.359375,1.97
9:24:04.375000,-2.02
9:24:04.390625,-5.87
9:24:04.406250,-9.75
9:24:04.421875,-13.91
9:24:04.437500,-18.53
9:24:04.453125,-23.74
9:24:04.468750,-29.57
9:24:04.484375,-35.86
9:24:04.500000,-42.28
9:24:04.515625,-48.10
9:24:04.531250,-52.27
9:24:04.546875,-53.61
9:24:04.562500,-51.20
9:24:04.578125,-44.77
9:24:04.593750,-34.87
9:24:04.609375,-22.82
9:24:04.625000,-10.29
9:24:04.640625,1.22
9:24:04.656250,10.67
9:24:04.671875,17.62
9:24:04.687500,22.12
9:24:04.703125,24.44
9:24:04.718750,24.90
9:24:04.734375,23.83
9:24:04.750000,21.52
9:24:04.765625,18.40
9:24:04.781250,14.97
9:24:04.796875,11.76
9:24:04.812500,9.22
9:24:04.828125,7.59
9:24:04.843750,6.86
9:24:04.859375,6.82
9:24:04.875000,7.15
9:24:04.890625,7.47
9:24:04.906250,7.50
9:24:04.921875,7.05
9:24:04.937500,6.00
9:24:04.953125,4.32
9:24:04.968750,2.01
9:24:04.984375,-0.87
9:24:05,-4.21
9:24:05.015625,-7.91
9:24:05.031250,-11.82
9:24:05.046875,-15.84
9:24:05.062500,-19.95
9:24:05.078125,-24.23
9:24:05.093750,-28.86
9:24:05.109375,-34.02
9:24:05.125000,-39.68
9:24:05.140625,-45.42
9:24:05.156250,-50.34
9:24:05.171875,-53.19
9:24:05.187500,-52.77
9:24:05.203125,-48.37
9:24:05.218750,-40.09
9:24:05.234375,-28.92
9:24:05.250000,-16.42
9:24:05.265625,-4.24
9:24:05.281250,6.35
9:24:05.296875,14.69
9:24:05.312500,20.73
9:24:05.328125,24.73
9:24:05.343750,27.00
9:24:05.359375,27.69
9:24:05.375000,26.84
9:24:05.390625,24.50
9:24:05.406250,20.89
9:24:05.421875,16.48
9:24:05.437500,11.87
9:24:05.453125,7.69
9:24:05.468750,4.37
9:24:05.484375,2.10
9:24:05.500000,0.84
9:24:05.515625,0.30
9:24:05.531250,0.12
9:24:05.546875,-0.16
9:24:05.562500,-0.88
9:24:05.578125,-2.25
9:24:05.593750,-4.21
9:24:05.609375,-6.49
9:24:05.625000,-8.70
9:24:05.640625,-10.51
9:24:05.656250,-11.83
9:24:05.671875,-12.84
9:24:05.687500,-13.96
9:24:05.703125,-15.70
9:24:05.718750,-18.51
9:24:05.734375,-22.61
9:24:05.750000,-27.86
9:24:05.765625,-33.65
9:24:05.781250,-38.91
9:24:05.796875,-42.28
9:24:05.812500,-42.47
9:24:05.828125,-38.71
9:24:05.843750,-31.06
9:24:05.859375,-20.52
9:24:05.875000,-8.67
9:24:05.890625,2.81
9:24:05.906250,12.68
9:24:05.921875,20.40
9:24:05.937500,26.15
9:24:05.953125,30.47
9:24:05.968750,33.88
9:24:05.984375,36.63
9:24:06,38.58
9:24:06.015625,39.37
9:24:06.031250,38.62
9:24:06.046875,36.19
9:24:06.062500,32.29
9:24:06.078125,27.49
9:24:06.093750,22.46
9:24:06.109375,17.81
9:24:06.125000,13.90
9:24:06.140625,10.73
9:24:06.156250,8.03
9:24:06.171875,5.47
9:24:06.187500,2.82
9:24:06.203125,-0.09
9:24:06.218750,-3.12
9:24:06.234375,-6.02
9:24:06.250000,-8.60
9:24:06.265625,-10.90
9:24:06.281250,-13.20
9:24:06.296875,-15.85
9:24:06.312500,-19.06
9:24:06.328125,-22.88
9:24:06.343750,-27.39
9:24:06.359375,-32.46
9:24:06.375000,-37.75
9:24:06.390625,-42.59
9:24:06.406250,-46.04
9:24:06.421875,-47.01
9:24:06.437500,-44.52
9:24:06.453125,-38.15
9:24:06.468750,-28.36
9:24:06.484375,-16.85
9:24:06.500000,-5.65
9:24:06.515625,3.54
9:24:06.531250,9.82
9:24:06.546875,13.06
9:24:06.562500,13.74
9:24:06.578125,12.68
9:24:06.593750,10.63
9:24:06.609375,8.23
9:24:06.625000,4.73
9:24:06.640625,-0.24
9:24:06.656250,-6.45
9:24:06.671875,-13.38
9:24:06.687500,-20.60
9:24:06.703125,-27.95
9:24:06.718750,-35.23
9:24:06.734375,-42.04
9:24:06.750000,-47.69
9:24:06.765625,-53.78
9:24:06.781250,-61.18
9:24:06.796875,-69.82
9:24:06.812500,-79.22
9:24:06.828125,-89.20
9:24:06.843750,-99.88
9:24:06.859375,-111.01
9:24:06.875000,-121.86
9:24:06.890625,-131.17
9:24:06.906250,-141.67
9:24:06.921875,-154.99
9:24:06.937500,-171.15
9:24:06.953125,-189.09
9:24:06.968750,-207.99
9:24:06.984375,-227.53
9:24:07,-247.41
9:24:07.015625,-267.19
9:24:07.031250,-285.57
9:24:07.046875,-304.98
9:24:07.062500,-323.77
9:24:07.078125,-335.83
9:24:07.093750,-333.48
9:24:07.109375,-312.46
9:24:07.125000,-275.01
9:24:07.140625,-229.48
9:24:07.156250,-187.55
9:24:07.171875,-131.04
9:24:07.187500,-56.53
9:24:07.203125,28.32
9:24:07.218750,110.67
9:24:07.234375,182.21
9:24:07.250000,240.39
9:24:07.265625,284.46
9:24:07.281250,313.76
9:24:07.296875,326.66
9:24:07.312500,327.31
9:24:07.328125,314.41
9:24:07.343750,287.69
9:24:07.359375,248.55
9:24:07.375000,199.41
9:24:07.390625,142.70
9:24:07.406250,80.47
9:24:07.421875,19.09
9:24:07.437500,-34.11
9:24:07.453125,-71.97
9:24:07.468750,-94.22
9:24:07.484375,-102.42
9:24:07.500000,-98.53
9:24:07.515625,-84.48
9:24:07.531250,-62.37
9:24:07.546875,-34.90
9:24:07.562500,-4.88
9:24:07.578125,25.26
9:24:07.593750,54.01
9:24:07.609375,78.32
9:24:07.625000,97.88
9:24:07.640625,115.47
9:24:07.656250,135.06
9:24:07.671875,159.70
9:24:07.687500,189.91
9:24:07.703125,224.02
9:24:07.718750,259.42
9:24:07.734375,291.94
9:24:07.750000,313.42
9:24:07.765625,314.97
9:24:07.781250,290.56
9:24:07.796875,240.03
9:24:07.812500,171.12
9:24:07.828125,97.14
9:24:07.843750,32.70
9:24:07.859375,-9.82
9:24:07.875000,-25.92
9:24:07.890625,-20.92
9:24:07.906250,-8.75
9:24:07.921875,-4.01
9:24:07.937500,-15.88
9:24:07.953125,-41.58
9:24:07.968750,-71.71
9:24:07.984375,-98.48
9:24:08,-117.05
9:24:08.015625,-126.35
9:24:08.031250,-130.18
9:24:08.046875,-131.11
9:24:08.062500,-128.23
9:24:08.078125,-119.11
9:24:08.093750,-99.32
9:24:08.109375,-66.25
9:24:08.125000,-22.52
9:24:08.140625,30.12
9:24:08.156250,88.64
9:24:08.171875,148.19
9:24:08.187500,203.63
9:24:08.203125,251.90
9:24:08.218750,290.79
9:24:08.234375,321.45
9:24:08.250000,344.60
9:24:08.265625,341.61
9:24:08.281250,303.65
9:24:08.296875,235.52
9:24:08.312500,152.51
9:24:08.328125,70.82
9:24:08.343750,10.29
9:24:08.359375,-29.71
9:24:08.375000,-50.72
9:24:08.390625,-54.83
9:24:08.406250,-45.07
9:24:08.421875,-24.15
9:24:08.437500,6.53
9:24:08.453125,45.05
9:24:08.468750,83.10
9:24:08.484375,112.95
9:24:08.500000,126.65
9:24:08.515625,120.92
9:24:08.531250,96.18
9:24:08.546875,56.76
9:24:08.562500,12.81
9:24:08.578125,-24.84
9:24:08.593750,-49.44
9:24:08.609375,-60.43
9:24:08.625000,-60.50
9:24:08.640625,-54.30
9:24:08.656250,-43.47
9:24:08.671875,-28.19
9:24:08.687500,-8.75
9:24:08.703125,14.47
9:24:08.718750,39.17
9:24:08.734375,62.68
9:24:08.750000,80.50
9:24:08.765625,90.08
9:24:08.781250,90.47
9:24:08.796875,83.18
9:24:08.812500,70.45
9:24:08.828125,54.90
9:24:08.843750,40.95
9:24:08.859375,33.91
9:24:08.875000,38.15
9:24:08.890625,54.46
9:24:08.906250,79.61
9:24:08.921875,106.09
9:24:08.937500,125.12
9:24:08.953125,129.44
9:24:08.968750,115.74
9:24:08.984375,85.66
9:24:09,44.30
9:24:09.015625,-0.72
9:24:09.031250,-42.85
9:24:09.046875,-78.22
9:24:09.062500,-106.48
9:24:09.078125,-129.41
9:24:09.093750,-149.42
9:24:09.109375,-168.16
9:24:09.125000,-185.86
9:24:09.140625,-201.47
9:24:09.156250,-213.15
9:24:09.171875,-219.34
9:24:09.187500,-218.90
9:24:09.203125,-211.57
9:24:09.218750,-198.27
9:24:09.234375,-181.02
9:24:09.250000,-162.51
9:24:09.265625,-145.41
9:24:09.281250,-131.62
9:24:09.296875,-121.89
9:24:09.312500,-116.02
9:24:09.328125,-112.94
9:24:09.343750,-110.98
9:24:09.359375,-108.04
9:24:09.375000,-101.96
9:24:09.390625,-90.98
9:24:09.406250,-74.24
9:24:09.421875,-52.12
9:24:09.437500,-26.22
9:24:09.453125,0.88
9:24:09.468750,26.37
9:24:09.484375,47.88
9:24:09.500000,64.14
9:24:09.515625,75.00
9:24:09.531250,81.28
9:24:09.546875,84.18
9:24:09.562500,84.87
9:24:09.578125,84.18
9:24:09.593750,82.46
9:24:09.609375,79.73
9:24:09.625000,75.98
9:24:09.640625,71.33
9:24:09.656250,65.93
9:24:09.671875,59.91
9:24:09.687500,53.28
9:24:09.703125,45.95
9:24:09.718750,37.92
9:24:09.734375,29.30
9:24:09.750000,20.37
9:24:09.765625,11.48
9:24:09.781250,2.95
9:24:09.796875,-5.02
9:24:09.812500,-12.37
9:24:09.828125,-19.14
9:24:09.843750,-25.48
9:24:09.859375,-31.60
9:24:09.875000,-37.71
9:24:09.890625,-43.95
9:24:09.906250,-50.29
9:24:09.921875,-56.33
9:24:09.937500,-61.32
9:24:09.953125,-64.18
9:24:09.968750,-63.84
9:24:09.984375,-59.58
9:24:10,-51.31
9:24:10.015625,-39.74
9:24:10.031250,-26.18
9:24:10.046875,-12.17
9:24:10.062500,0.99
9:24:10.078125,12.51
9:24:10.093750,22.15
9:24:10.109375,30.03
9:24:10.125000,36.28
9:24:10.140625,40.94
9:24:10.156250,43.89
9:24:10.171875,45.08
9:24:10.187500,44.67
9:24:10.203125,43.02
9:24:10.218750,40.62
9:24:10.234375,37.78
9:24:10.250000,34.56
9:24:10.265625,30.78
9:24:10.281250,26.29
9:24:10.296875,21.12
9:24:10.312500,15.58
9:24:10.328125,10.18
9:24:10.343750,5.45
9:24:10.359375,1.69
9:24:10.375000,-1.15
9:24:10.390625,-3.38
9:24:10.406250,-5.50
9:24:10.421875,-8.00
9:24:10.437500,-11.19
9:24:10.453125,-15.21
9:24:10.468750,-20.01
9:24:10.484375,-25.37
9:24:10.500000,-30.88
9:24:10.515625,-35.93
9:24:10.531250,-39.74
9:24:10.546875,-41.48
9:24:10.562500,-40.42
9:24:10.578125,-36.19
9:24:10.593750,-28.89
9:24:10.609375,-19.18
9:24:10.625000,-8.12
9:24:10.640625,3.06
9:24:10.656250,13.24
9:24:10.671875,21.56
9:24:10.687500,27.56
9:24:10.703125,31.07
9:24:10.718750,32.17
9:24:10.734375,31.12
9:24:10.750000,28.35
9:24:10.765625,24.47
9:24:10.781250,20.19
9:24:10.796875,16.16
9:24:10.812500,12.79
9:24:10.828125,10.08
9:24:10.843750,7.66
9:24:10.859375,4.98
9:24:10.875000,1.55
9:24:10.890625,-2.76
9:24:10.906250,-7.68
9:24:10.921875,-12.70
9:24:10.937500,-17.24
9:24:10.953125,-21.04
9:24:10.968750,-24.20
9:24:10.984375,-27.17
9:24:11,-30.52
9:24:11.015625,-34.75
9:24:11.031250,-40.06
9:24:11.046875,-46.30
9:24:11.062500,-52.97
9:24:11.078125,-59.24
9:24:11.093750,-64.04
9:24:11.109375,-66.25
9:24:11.125000,-65.02
9:24:11.140625,-59.99
9:24:11.156250,-51.50
9:24:11.171875,-40.51
9:24:11.187500,-28.30
9:24:11.203125,-16.05
9:24:11.218750,-4.59
9:24:11.234375,5.79
9:24:11.250000,15.08
9:24:11.265625,23.35
9:24:11.281250,30.44
9:24:11.296875,35.98
9:24:11.312500,39.54
9:24:11.328125,40.85
9:24:11.343750,39.93
9:24:11.359375,37.18
9:24:11.375000,33.17
9:24:11.390625,28.44
9:24:11.406250,23.34
9:24:11.421875,17.91
9:24:11.437500,12.02
9:24:11.453125,5.45
9:24:11.468750,-1.86
9:24:11.484375,-9.76
9:24:11.500000,-17.86
9:24:11.515625,-25.74
9:24:11.531250,-33.13
9:24:11.546875,-40.05
9:24:11.562500,-46.87
9:24:11.578125,-54.18
9:24:11.593750,-62.55
9:24:11.609375,-72.33
9:24:11.625000,-83.35
9:24:11.640625,-94.81
9:24:11.656250,-105.34
9:24:11.671875,-113.24
9:24:11.687500,-116.84
9:24:11.703125,-115.00
9:24:11.718750,-107.30
9:24:11.734375,-94.10
9:24:11.750000,-76.38
9:24:11.765625,-55.39
9:24:11.781250,-32.48
9:24:11.796875,-8.93
9:24:11.812500,13.98
9:24:11.828125,35.01
9:24:11.843750,52.98
9:24:11.859375,66.90
9:24:11.875000,76.24
9:24:11.890625,81.05
9:24:11.906250,82.00
9:24:11.921875,80.16
9:24:11.937500,76.72
9:24:11.953125,72.64
9:24:11.968750,68.47
9:24:11.984375,64.21
9:24:12,59.51
9:24:12.015625,53.90
9:24:12.031250,47.09
9:24:12.046875,39.09
9:24:12.062500,30.21
9:24:12.078125,20.91
9:24:12.093750,11.57
9:24:12.109375,2.45
9:24:12.125000,-6.41
9:24:12.140625,-15.11
9:24:12.156250,-23.91
9:24:12.171875,-33.22
9:24:12.187500,-43.52
9:24:12.203125,-55.26
9:24:12.218750,-68.47
9:24:12.234375,-82.43
9:24:12.250000,-95.47
9:24:12.265625,-105.15
9:24:12.281250,-108.91
9:24:12.296875,-104.89
9:24:12.312500,-92.72
9:24:12.328125,-73.71
9:24:12.343750,-50.47
9:24:12.359375,-26.06
9:24:12.375000,-3.05
9:24:12.390625,17.08
9:24:12.406250,33.93
9:24:12.421875,47.82
9:24:12.437500,59.12
9:24:12.453125,67.95
9:24:12.468750,74.16
9:24:12.484375,77.58
9:24:12.500000,78.33
9:24:12.515625,76.91
9:24:12.531250,74.11
9:24:12.546875,70.68
9:24:12.562500,67.11
9:24:12.578125,63.60
9:24:12.593750,60.15
9:24:12.609375,56.81
9:24:12.625000,53.67
9:24:12.640625,50.88
9:24:12.656250,48.43
9:24:12.671875,46.00
9:24:12.687500,43.02
9:24:12.703125,38.88
9:24:12.718750,33.13
9:24:12.734375,25.77
9:24:12.750000,17.17
9:24:12.765625,7.88
9:24:12.781250,-1.56
9:24:12.796875,-11.01
9:24:12.812500,-20.68
9:24:12.828125,-31.16
9:24:12.843750,-43.03
9:24:12.859375,-56.58
9:24:12.875000,-71.39
9:24:12.890625,-86.09
9:24:12.906250,-98.52
9:24:12.921875,-106.10
9:24:12.937500,-106.66
9:24:12.953125,-99.11
9:24:12.968750,-83.91
9:24:12.984375,-62.92
9:24:13,-38.84
9:24:13.015625,-14.37
9:24:13.031250,8.48
9:24:13.046875,28.65
9:24:13.062500,45.84
9:24:13.078125,60.08
9:24:13.093750,71.41
9:24:13.109375,79.74
9:24:13.125000,84.98
9:24:13.140625,87.32
9:24:13.156250,87.31
9:24:13.171875,85.73
9:24:13.187500,83.39
9:24:13.203125,80.77
9:24:13.218750,77.96
9:24:13.234375,74.72
9:24:13.250000,70.76
9:24:13.265625,66.04
9:24:13.281250,60.85
9:24:13.296875,55.66
9:24:13.312500,50.91
9:24:13.328125,46.67
9:24:13.343750,42.55
9:24:13.359375,37.78
9:24:13.375000,31.59
9:24:13.390625,23.52
9:24:13.406250,13.68
9:24:13.421875,2.69
9:24:13.437500,-8.49
9:24:13.453125,-18.96
9:24:13.468750,-28.18
9:24:13.484375,-36.16
9:24:13.500000,-43.40
9:24:13.515625,-50.78
9:24:13.531250,-59.30
9:24:13.546875,-69.70
9:24:13.562500,-82.28
9:24:13.578125,-96.57
9:24:13.593750,-111.13
9:24:13.609375,-123.69
9:24:13.625000,-131.52
9:24:13.640625,-132.15
9:24:13.656250,-124.20
9:24:13.671875,-107.91
9:24:13.687500,-85.16
9:24:13.703125,-58.90
9:24:13.718750,-32.21
9:24:13.734375,-7.40
9:24:13.750000,14.38
9:24:13.765625,33.05
9:24:13.781250,48.99
9:24:13.796875,62.48
9:24:13.812500,73.40
9:24:13.828125,81.37
9:24:13.843750,86.13
9:24:13.859375,87.94
9:24:13.875000,87.63
9:24:13.890625,86.24
9:24:13.906250,84.64
9:24:13.921875,83.12
9:24:13.937500,81.37
9:24:13.953125,78.75
9:24:13.968750,74.75
9:24:13.984375,69.35
9:24:14,63.06
9:24:14.015625,56.76
9:24:14.031250,51.15
9:24:14.046875,46.45
9:24:14.062500,42.25
9:24:14.078125,37.69
9:24:14.093750,31.89
9:24:14.109375,24.38
9:24:14.125000,15.30
9:24:14.140625,5.27
9:24:14.156250,-4.84
9:24:14.171875,-14.43
9:24:14.187500,-23.34
9:24:14.203125,-31.91
9:24:14.218750,-40.80
9:24:14.234375,-50.67
9:24:14.250000,-61.89
9:24:14.265625,-74.45
9:24:14.281250,-87.91
9:24:14.296875,-101.33
9:24:14.312500,-113.29
9:24:14.328125,-121.94
9:24:14.343750,-125.31
9:24:14.359375,-121.88
9:24:14.375000,-111.12
9:24:14.390625,-93.79
9:24:14.406250,-71.85
9:24:14.421875,-47.86
9:24:14.437500,-24.24
9:24:14.453125,-2.61
9:24:14.468750,16.35
9:24:14.484375,32.60
9:24:14.500000,46.31
9:24:14.515625,57.48
9:24:14.531250,65.92
9:24:14.546875,71.43
9:24:14.562500,74.14
9:24:14.578125,74.57
9:24:14.593750,73.52
9:24:14.609375,71.79
9:24:14.625000,69.89
9:24:14.640625,67.90
9:24:14.656250,65.61
9:24:14.671875,62.69
9:24:14.687500,58.97
9:24:14.703125,54.56
9:24:14.718750,49.84
9:24:14.734375,45.19
9:24:14.750000,40.82
9:24:14.765625,36.54
9:24:14.781250,31.85
9:24:14.796875,26.12
9:24:14.812500,18.93
9:24:14.828125,10.33
9:24:14.843750,0.82
9:24:14.859375,-8.77
9:24:14.875000,-17.68
9:24:14.890625,-25.50
9:24:14.906250,-32.41
9:24:14.921875,-39.06
9:24:14.937500,-46.37
9:24:14.953125,-55.22
9:24:14.968750,-66.15
9:24:14.984375,-79.09
9:24:15,-93.22
9:24:15.015625,-106.84
9:24:15.031250,-117.55
9:24:15.046875,-122.79
9:24:15.062500,-120.52
9:24:15.078125,-109.97
9:24:15.093750,-92.00
9:24:15.109375,-68.88
9:24:15.125000,-43.62
9:24:15.140625,-19.03
9:24:15.156250,2.96
9:24:15.171875,21.52
9:24:15.187500,36.67
9:24:15.203125,48.73
9:24:15.218750,58.03
9:24:15.234375,64.68
9:24:15.250000,68.83
9:24:15.265625,70.76
9:24:15.281250,70.99
9:24:15.296875,70.11
9:24:15.312500,68.60
9:24:15.328125,66.65
9:24:15.343750,64.19
9:24:15.359375,61.10
9:24:15.375000,57.40
9:24:15.390625,53.32
9:24:15.406250,49.31
9:24:15.421875,45.69
9:24:15.437500,42.49
9:24:15.453125,39.35
9:24:15.468750,35.63
9:24:15.484375,30.75
9:24:15.500000,24.47
9:24:15.515625,17.05
9:24:15.531250,9.07
9:24:15.546875,1.19
9:24:15.562500,-6.22
9:24:15.578125,-13.30
9:24:15.593750,-20.56
9:24:15.609375,-28.80
9:24:15.625000,-38.73
9:24:15.640625,-50.69
9:24:15.656250,-64.36
9:24:15.671875,-78.61
9:24:15.687500,-91.50
9:24:15.703125,-100.58
9:24:15.718750,-103.51
9:24:15.734375,-98.79
9:24:15.750000,-86.31
9:24:15.765625,-67.53
9:24:15.781250,-45.03
9:24:15.796875,-21.78
9:24:15.812500,-0.22
9:24:15.828125,18.23
9:24:15.843750,33.23
9:24:15.859375,45.09
9:24:15.875000,54.32
9:24:15.890625,61.27
9:24:15.906250,66.07
9:24:15.921875,68.79
9:24:15.937500,69.72
9:24:15.953125,69.32
9:24:15.968750,68.20
9:24:15.984375,66.77
9:24:16,65.17
9:24:16.015625,63.20
9:24:16.031250,60.50
9:24:16.046875,56.89
9:24:16.062500,52.50
9:24:16.078125,47.81
9:24:16.093750,43.41
9:24:16.109375,39.70
9:24:16.125000,36.58
9:24:16.140625,33.49
9:24:16.156250,29.56
9:24:16.171875,24.05
9:24:16.187500,16.68
9:24:16.203125,7.79
9:24:16.218750,-1.80
9:24:16.234375,-11.13
9:24:16.250000,-19.54
9:24:16.265625,-26.93
9:24:16.281250,-33.79
9:24:16.296875,-40.97
9:24:16.312500,-49.43
9:24:16.328125,-59.79
9:24:16.343750,-72.07
9:24:16.359375,-85.47
9:24:16.375000,-98.34
9:24:16.390625,-108.40
9:24:16.406250,-113.24
9:24:16.421875,-111.05
9:24:16.437500,-101.23
9:24:16.453125,-84.72
9:24:16.468750,-63.71
9:24:16.484375,-40.97
9:24:16.500000,-18.94
9:24:16.515625,0.83
9:24:16.531250,17.82
9:24:16.546875,32.21
9:24:16.562500,44.30
9:24:16.578125,54.10
9:24:16.593750,61.37
9:24:16.609375,65.88
9:24:16.625000,67.76
9:24:16.640625,67.66
9:24:16.656250,66.57
9:24:16.671875,65.41
9:24:16.687500,64.62
9:24:16.703125,64.11
9:24:16.718750,63.35
9:24:16.734375,61.75
9:24:16.750000,59.00
9:24:16.765625,55.27
9:24:16.781250,51.08
9:24:16.796875,47.06
9:24:16.812500,43.55
9:24:16.828125,40.53
9:24:16.843750,37.51
9:24:16.859375,33.79
9:24:16.875000,28.79
9:24:16.890625,22.22
9:24:16.906250,14.26
9:24:16.921875,5.40
9:24:16.937500,-3.70
9:24:16.953125,-12.45
9:24:16.968750,-20.54
9:24:16.984375,-28.01
9:24:17,-35.15
9:24:17.015625,-42.44
9:24:17.031250,-50.46
9:24:17.046875,-59.65
9:24:17.062500,-70.27
9:24:17.078125,-82.16
9:24:17.093750,-94.53
9:24:17.109375,-105.83
9:24:17.125000,-113.95
9:24:17.140625,-116.66
9:24:17.156250,-112.36
9:24:17.171875,-100.70
9:24:17.187500,-82.86
9:24:17.203125,-61.19
9:24:17.218750,-38.40
9:24:17.234375,-16.74
9:24:17.250000,2.54
9:24:17.265625,19.19
9:24:17.281250,33.46
9:24:17.296875,45.61
9:24:17.312500,55.55
9:24:17.328125,62.99
9:24:17.343750,67.69
9:24:17.359375,69.85
9:24:17.375000,70.08
9:24:17.390625,69.26
9:24:17.406250,68.15
9:24:17.421875,67.16
9:24:17.437500,66.30
9:24:17.453125,65.27
9:24:17.468750,63.74
9:24:17.484375,61.51
9:24:17.500000,58.62
9:24:17.515625,55.26
9:24:17.531250,51.69
9:24:17.546875,48.07
9:24:17.562500,44.38
9:24:17.578125,40.43
9:24:17.593750,35.96
9:24:17.609375,30.74
9:24:17.625000,24.69
9:24:17.640625,17.83
9:24:17.656250,10.32
9:24:17.671875,2.33
9:24:17.687500,-5.98
9:24:17.703125,-14.43
9:24:17.718750,-22.83
9:24:17.734375,-31.01
9:24:17.750000,-38.79
9:24:17.765625,-46.17
9:24:17.781250,-53.34
9:24:17.796875,-60.72
9:24:17.812500,-68.85
9:24:17.828125,-78.17
9:24:17.843750,-88.64
9:24:17.859375,-99.49
9:24:17.875000,-109.14
9:24:17.890625,-115.44
9:24:17.906250,-116.33
9:24:17.921875,-110.49
9:24:17.937500,-97.93
9:24:17.953125,-80.02
9:24:17.968750,-59.06
9:24:17.984375,-37.49
9:24:18,-17.18
9:24:18.015625,0.94
9:24:18.031250,16.72
9:24:18.046875,30.40
9:24:18.062500,42.12
9:24:18.078125,51.79
9:24:18.093750,59.14
9:24:18.109375,64.05
9:24:18.125000,66.73
9:24:18.140625,67.70
9:24:18.156250,67.65
9:24:18.171875,67.17
9:24:18.187500,66.56
9:24:18.203125,65.82
9:24:18.218750,64.82
9:24:18.234375,63.37
9:24:18.250000,61.39
9:24:18.265625,58.91
9:24:18.281250,56.01
9:24:18.296875,52.73
9:24:18.312500,49.02
9:24:18.328125,44.82
9:24:18.343750,40.04
9:24:18.359375,34.72
9:24:18.375000,28.92
9:24:18.390625,22.71
9:24:18.406250,16.06
9:24:18.421875,8.81
9:24:18.437500,0.81
9:24:18.453125,-7.92
9:24:18.468750,-17.07
9:24:18.484375,-26.06
9:24:18.500000,-34.29
9:24:18.515625,-41.45
9:24:18.531250,-47.69
9:24:18.546875,-53.67
9:24:18.562500,-60.32
9:24:18.578125,-68.46
9:24:18.593750,-78.41
9:24:18.609375,-89.83
9:24:18.625000,-101.64
9:24:18.640625,-112.25
9:24:18.656250,-119.81
9:24:18.671875,-122.69
9:24:18.687500,-119.88
9:24:18.703125,-111.29
9:24:18.718750,-97.80
9:24:18.734375,-80.89
9:24:18.750000,-62.25
9:24:18.765625,-43.23
9:24:18.781250,-24.84
9:24:18.796875,-7.76
9:24:18.812500,7.25
9:24:18.828125,19.31
9:24:18.843750,27.61
9:24:18.859375,31.82
9:24:18.875000,32.51
9:24:18.890625,31.12
9:24:18.906250,29.48
9:24:18.921875,29.00
9:24:18.937500,29.95
9:24:18.953125,31.17
9:24:18.968750,30.64
9:24:18.984375,26.51
9:24:19,18.20
9:24:19.015625,6.80
9:24:19.031250,-5.26
9:24:19.046875,-15.30
9:24:19.062500,-21.62
9:24:19.078125,-24.33
9:24:19.093750,-25.64
9:24:19.109375,-28.96
9:24:19.125000,-37.55
9:24:19.140625,-53.24
9:24:19.156250,-75.57
9:24:19.171875,-101.81
9:24:19.187500,-127.61
9:24:19.203125,-147.82
9:24:19.218750,-157.47
9:24:19.234375,-153.06
9:24:19.250000,-133.46
9:24:19.265625,-100.71
9:24:19.281250,-60.37
9:24:19.296875,-20.80
9:24:19.312500,8.62
9:24:19.328125,20.88
9:24:19.343750,14.22
9:24:19.359375,-6.62
9:24:19.375000,-33.38
9:24:19.390625,-58.13
9:24:19.406250,-76.53
9:24:19.421875,-88.61
9:24:19.437500,-96.88
9:24:19.453125,-102.87
9:24:19.468750,-104.63
9:24:19.484375,-97.25
9:24:19.500000,-75.53
9:24:19.515625,-39.17
9:24:19.531250,5.94
9:24:19.546875,50.67
9:24:19.562500,87.80
9:24:19.578125,115.54
9:24:19.593750,137.88
9:24:19.609375,162.37
9:24:19.625000,196.17
9:24:19.640625,243.74
9:24:19.656250,303.02
9:24:19.671875,366.30
9:24:19.687500,423.67
9:24:19.703125,466.54
9:24:19.718750,489.83
9:24:19.734375,492.55
9:24:19.750000,477.87
9:24:19.765625,451.78
9:24:19.781250,422.08
9:24:19.796875,392.85
9:24:19.812500,363.32
9:24:19.828125,329.88
9:24:19.843750,289.12
9:24:19.859375,239.78
9:24:19.875000,182.06
9:24:19.890625,117.29
9:24:19.906250,39.10
9:24:19.921875,-46.14
9:24:19.937500,-124.70
9:24:19.953125,-186.09
9:24:19.968750,-228.89
9:24:19.984375,-256.61
9:24:20,-272.23
9:24:20.015625,-277.50
9:24:20.031250,-273.52
9:24:20.046875,-261.80
9:24:20.062500,-243.41
9:24:20.078125,-221.90
9:24:20.093750,-202.06
9:24:20.109375,-187.30
9:24:20.125000,-177.96
9:24:20.140625,-171.60
9:24:20.156250,-165.76
9:24:20.171875,-158.59
9:24:20.187500,-149.19
9:24:20.203125,-136.78
9:24:20.218750,-122.88
9:24:20.234375,-109.97
9:24:20.250000,-99.63
9:24:20.265625,-94.30
9:24:20.281250,-90.30
9:24:20.296875,-85.06
9:24:20.312500,-77.22
9:24:20.328125,-66.61
9:24:20.343750,-53.25
9:24:20.359375,-38.91
9:24:20.375000,-25.65
9:24:20.390625,-14.77
9:24:20.406250,-6.21
9:24:20.421875,1.31
9:24:20.437500,8.14
9:24:20.453125,13.96
9:24:20.468750,17.82
9:24:20.484375,18.95
9:24:20.500000,15.81
9:24:20.515625,7.64
9:24:20.531250,-5.31
9:24:20.546875,-21.90
9:24:20.562500,-40.50
9:24:20.578125,-60.83
9:24:20.593750,-83.88
9:24:20.609375,-112.13
9:24:20.625000,-143.93
9:24:20.640625,-180.12
9:24:20.656250,-222.03
9:24:20.671875,-270.65
9:24:20.687500,-325.36
9:24:20.703125,-382.56
9:24:20.718750,-435.98
9:24:20.734375,-477.22
9:24:20.750000,-498.20
9:24:20.765625,-494.02
9:24:20.781250,-465.72
9:24:20.796875,-419.30
9:24:20.812500,-363.61
9:24:20.828125,-307.35
9:24:20.843750,-256.30
9:24:20.859375,-212.77
9:24:20.875000,-176.14
9:24:20.890625,-144.47
9:24:20.906250,-115.75
9:24:20.921875,-89.10
9:24:20.937500,-63.88
9:24:20.953125,-39.56
9:24:20.968750,-15.56
9:24:20.984375,8.28
9:24:21,31.34
9:24:21.015625,52.70
9:24:21.031250,71.82
9:24:21.046875,89.01
9:24:21.062500,105.20
9:24:21.078125,121.73
9:24:21.093750,139.42
9:24:21.109375,158.39
9:24:21.125000,177.53
9:24:21.140625,195.03
9:24:21.156250,209.31
9:24:21.171875,219.84
9:24:21.187500,227.79
9:24:21.203125,235.78
9:24:21.218750,247.66
9:24:21.234375,267.13
9:24:21.250000,296.58
9:24:21.265625,334.53
9:24:21.281250,374.55
9:24:21.296875,406.01
9:24:21.312500,416.88
9:24:21.328125,397.98
9:24:21.343750,346.67
9:24:21.359375,268.89
9:24:21.375000,177.85
9:24:21.390625,91.62
9:24:21.406250,25.66
9:24:21.421875,-12.13
9:24:21.437500,-23.01
9:24:21.453125,-14.97
9:24:21.468750,1.77
9:24:21.484375,18.73
9:24:21.500000,31.16
9:24:21.515625,37.83
9:24:21.531250,42.79
9:24:21.546875,49.44
9:24:21.562500,58.36
9:24:21.578125,67.67
9:24:21.593750,75.36
9:24:21.609375,81.66
9:24:21.625000,88.79
9:24:21.640625,99.42
9:24:21.656250,114.85
9:24:21.671875,139.59
9:24:21.687500,174.91
9:24:21.703125,217.84
9:24:21.718750,262.63
9:24:21.734375,304.06
9:24:21.750000,340.16
9:24:21.765625,371.95
9:24:21.781250,401.66
9:24:21.796875,430.83
9:24:21.812500,466.37
9:24:21.828125,511.73
9:24:21.843750,564.83
9:24:21.859375,618.90
9:24:21.875000,666.52
9:24:21.890625,703.18
9:24:21.906250,727.90
9:24:21.921875,741.73
9:24:21.937500,703.01
9:24:21.953125,591.17
9:24:21.968750,413.92
9:24:21.984375,205.20
9:24:22,3.31
9:24:22.015625,-167.85
9:24:22.031250,-301.07
9:24:22.046875,-399.23
9:24:22.062500,-469.06
9:24:22.078125,-517.67
9:24:22.093750,-544.35
9:24:22.109375,-549.32
9:24:22.125000,-536.45
9:24:22.140625,-513.39
9:24:22.156250,-488.38
9:24:22.171875,-466.93
9:24:22.187500,-451.07
9:24:22.203125,-440.60
9:24:22.218750,-434.32
9:24:22.234375,-425.64
9:24:22.250000,-409.77
9:24:22.265625,-386.11
9:24:22.281250,-358.04
9:24:22.296875,-330.50
9:24:22.312500,-307.34
9:24:22.328125,-289.82
9:24:22.343750,-277.69
9:24:22.359375,-269.95
9:24:22.375000,-262.10
9:24:22.390625,-250.69
9:24:22.406250,-234.83
9:24:22.421875,-215.99
9:24:22.437500,-196.86
9:24:22.453125,-179.60
9:24:22.468750,-165.18
9:24:22.484375,-153.80
9:24:22.500000,-145.31
9:24:22.515625,-137.86
9:24:22.531250,-129.84
9:24:22.546875,-120.87
9:24:22.562500,-111.39
9:24:22.578125,-102.72
9:24:22.593750,-96.03
9:24:22.609375,-91.93
9:24:22.625000,-90.47
9:24:22.640625,-91.17
9:24:22.656250,-92.40
9:24:22.671875,-91.14
9:24:22.687500,-87.71
9:24:22.703125,-81.69
9:24:22.718750,-73.41
9:24:22.734375,-63.97
9:24:22.750000,-54.77
9:24:22.765625,-47.10
9:24:22.781250,-41.80
9:24:22.796875,-39.00
9:24:22.812500,-36.33
9:24:22.828125,-30.77
9:24:22.843750,-19.55
9:24:22.859375,-2.00
9:24:22.875000,20.25
9:24:22.890625,44.19
9:24:22.906250,66.62
9:24:22.921875,85.22
9:24:22.937500,99.02
9:24:22.953125,111.35
9:24:22.968750,127.12
9:24:22.984375,150.67
9:24:23,183.35
9:24:23.015625,223.19
9:24:23.031250,266.13
9:24:23.046875,308.06
9:24:23.062500,346.07
9:24:23.078125,379.12
9:24:23.093750,411.39
9:24:23.109375,449.02
9:24:23.125000,497.11
9:24:23.140625,557.56
9:24:23.156250,629.19
9:24:23.171875,709.17
9:24:23.187500,794.05
9:24:23.203125,879.35
9:24:23.218750,932.43
9:24:23.234375,923.91
9:24:23.250000,837.32
9:24:23.265625,678.62
9:24:23.281250,475.20
9:24:23.296875,263.18
9:24:23.312500,73.04
9:24:23.328125,-78.25
9:24:23.343750,-187.76
9:24:23.359375,-258.97
9:24:23.375000,-304.11
9:24:23.390625,-332.37
9:24:23.406250,-350.05
9:24:23.421875,-362.39
9:24:23.437500,-374.00
9:24:23.453125,-387.79
9:24:23.468750,-403.57
9:24:23.484375,-418.19
9:24:23.500000,-424.20
9:24:23.515625,-412.84
9:24:23.531250,-378.48
9:24:23.546875,-322.64
9:24:23.562500,-254.56
9:24:23.578125,-188.34
9:24:23.593750,-137.77
9:24:23.609375,-111.65
9:24:23.625000,-111.34
9:24:23.640625,-131.22
9:24:23.656250,-160.19
9:24:23.671875,-185.36
9:24:23.687500,-196.81
9:24:23.703125,-190.05
9:24:23.718750,-166.41
9:24:23.734375,-131.54
9:24:23.750000,-93.19
9:24:23.765625,-59.05
9:24:23.781250,-35.18
9:24:23.796875,-24.32
9:24:23.812500,-25.18
9:24:23.828125,-33.78
9:24:23.843750,-45.13
9:24:23.859375,-55.16
9:24:23.875000,-62.04
9:24:23.890625,-66.74
9:24:23.906250,-72.54
9:24:23.921875,-83.57
9:24:23.937500,-102.60
9:24:23.953125,-129.18
9:24:23.968750,-159.47
9:24:23.984375,-187.24
9:24:24,-205.95
9:24:24.015625,-210.91
9:24:24.031250,-200.58
9:24:24.046875,-176.83
9:24:24.062500,-143.68
9:24:24.078125,-105.96
9:24:24.093750,-67.78
9:24:24.109375,-32.41
9:24:24.125000,-2.56
9:24:24.140625,19.41
9:24:24.156250,31.91
9:24:24.171875,34.90
9:24:24.187500,30.84
9:24:24.203125,24.78
9:24:24.218750,23.29
9:24:24.234375,32.80
9:24:24.250000,58.01
9:24:24.265625,100.97
9:24:24.281250,160.71
9:24:24.296875,233.33
9:24:24.312500,312.30
9:24:24.328125,389.06
9:24:24.343750,454.08
9:24:24.359375,498.51
9:24:24.375000,516.01
9:24:24.390625,504.14
9:24:24.406250,464.55
9:24:24.421875,402.18
9:24:24.437500,323.75
9:24:24.453125,236.08
9:24:24.468750,145.08
9:24:24.484375,55.65
9:24:24.500000,-28.15
9:24:24.515625,-102.82
9:24:24.531250,-165.67
9:24:24.546875,-215.51
9:24:24.562500,-253.21
9:24:24.578125,-281.56
9:24:24.593750,-304.36
9:24:24.609375,-324.97
9:24:24.625000,-345.08
9:24:24.640625,-364.41
9:24:24.656250,-381.18
9:24:24.671875,-393.37
9:24:24.687500,-399.53
9:24:24.703125,-399.10
9:24:24.718750,-392.13
9:24:24.734375,-378.86
9:24:24.750000,-359.55
9:24:24.765625,-334.47
9:24:24.781250,-304.07
9:24:24.796875,-269.07
9:24:24.812500,-230.62
9:24:24.828125,-190.35
9:24:24.843750,-150.48
9:24:24.859375,-113.54
9:24:24.875000,-81.97
9:24:24.890625,-57.28
9:24:24.906250,-39.58
9:24:24.921875,-27.45
9:24:24.937500,-18.73
9:24:24.953125,-11.53
9:24:24.968750,-5.18
9:24:24.984375,-0.30
9:24:25,1.98
9:24:25.015625,1.07
9:24:25.031250,-2.32
9:24:25.046875,-6.29
9:24:25.062500,-8.64
9:24:25.078125,-7.69
9:24:25.093750,-2.96
9:24:25.109375,4.87
9:24:25.125000,14.42
9:24:25.140625,24.25
9:24:25.156250,33.33
9:24:25.171875,41.29
9:24:25.187500,48.28
9:24:25.203125,54.69
9:24:25.218750,60.72
9:24:25.234375,66.22
9:24:25.250000,70.74
9:24:25.265625,73.80
9:24:25.281250,75.19
9:24:25.296875,75.08
9:24:25.312500,73.97
9:24:25.328125,72.41
9:24:25.343750,70.89
9:24:25.359375,69.62
9:24:25.375000,68.54
9:24:25.390625,67.38
9:24:25.406250,65.74
9:24:25.421875,63.36
9:24:25.437500,60.21
9:24:25.453125,56.66
9:24:25.468750,53.47
9:24:25.484375,51.51
9:24:25.500000,51.35
9:24:25.515625,52.80
9:24:25.531250,54.85
9:24:25.546875,56.05
9:24:25.562500,55.40
9:24:25.578125,52.82
9:24:25.593750,49.51
9:24:25.609375,47.49
9:24:25.625000,48.78
9:24:25.640625,54.56
9:24:25.656250,65.01
9:24:25.671875,79.74
9:24:25.687500,98.36
9:24:25.703125,120.98
9:24:25.718750,147.46
9:24:25.734375,176.87
9:24:25.750000,207.58
9:24:25.765625,237.98
9:24:25.781250,267.49
9:24:25.796875,297.06
9:24:25.812500,328.52
9:24:25.828125,362.73
9:24:25.843750,398.26
9:24:25.859375,430.36
9:24:25.875000,452.36
9:24:25.890625,458.45
9:24:25.906250,446.17
9:24:25.921875,417.16
9:24:25.937500,375.94
9:24:25.953125,327.76
9:24:25.968750,276.45
9:24:25.984375,224.30
9:24:26,171.89
9:24:26.015625,119.51
9:24:26.031250,68.16
9:24:26.046875,19.79
9:24:26.062500,-23.61
9:24:26.078125,-60.85
9:24:26.093750,-91.88
9:24:26.109375,-120.48
9:24:26.125000,-147.07
9:24:26.140625,-169.60
9:24:26.156250,-184.84
9:24:26.171875,-190.39
9:24:26.187500,-185.90
9:24:26.203125,-173.40
9:24:26.218750,-157.28
9:24:26.234375,-141.72
9:24:26.250000,-130.39
9:24:26.265625,-125.27
9:24:26.281250,-127.07
9:24:26.296875,-135.22
9:24:26.312500,-148.45
9:24:26.328125,-164.13
9:24:26.343750,-180.54
9:24:26.359375,-197.09
9:24:26.375000,-214.23
9:24:26.390625,-233.43
9:24:26.406250,-256.44
9:24:26.421875,-285.23
9:24:26.437500,-321.02
9:24:26.453125,-362.84
9:24:26.468750,-406.55
9:24:26.484375,-445.21
9:24:26.500000,-470.72
9:24:26.515625,-476.63
9:24:26.531250,-460.80
9:24:26.546875,-426.08
9:24:26.562500,-379.51
9:24:26.578125,-329.46
9:24:26.593750,-282.71
9:24:26.609375,-242.68
9:24:26.625000,-209.77
9:24:26.640625,-182.50
9:24:26.656250,-159.01
9:24:26.671875,-137.82
9:24:26.687500,-117.57
9:24:26.703125,-96.73
9:24:26.718750,-73.55
9:24:26.734375,-46.44
9:24:26.750000,-14.69
9:24:26.765625,20.97
9:24:26.781250,58.52
9:24:26.796875,95.09
9:24:26.812500,127.83
9:24:26.828125,154.74
9:24:26.843750,175.10
9:24:26.859375,189.56
9:24:26.875000,199.62
9:24:26.890625,206.96
9:24:26.906250,212.63
9:24:26.921875,216.76
9:24:26.937500,218.77
9:24:26.953125,218.02
9:24:26.968750,214.40
9:24:26.984375,208.62
9:24:27,202.01
9:24:27.015625,195.82
9:24:27.031250,190.68
9:24:27.046875,186.40
9:24:27.062500,182.06
9:24:27.078125,176.57
9:24:27.093750,169.16
9:24:27.109375,159.60
9:24:27.125000,148.36
9:24:27.140625,136.39
9:24:27.156250,124.99
9:24:27.171875,115.41
9:24:27.187500,108.66
9:24:27.203125,105.04
9:24:27.218750,104.06
9:24:27.234375,104.46
9:24:27.250000,104.62
9:24:27.265625,103.08
9:24:27.281250,98.95
9:24:27.296875,92.01
9:24:27.312500,82.57
9:24:27.328125,71.15
9:24:27.343750,58.27
9:24:27.359375,44.47
9:24:27.375000,30.41
9:24:27.390625,17.02
9:24:27.406250,5.37
9:24:27.421875,-3.58
9:24:27.437500,-9.38
9:24:27.453125,-12.25
9:24:27.468750,-13.02
9:24:27.484375,-12.81
9:24:27.500000,-12.64
9:24:27.515625,-13.09
9:24:27.531250,-14.19
9:24:27.546875,-15.54
9:24:27.562500,-16.59
9:24:27.578125,-16.96
9:24:27.593750,-16.54
9:24:27.609375,-15.59
9:24:27.625000,-14.51
9:24:27.640625,-13.67
9:24:27.656250,-13.25
9:24:27.671875,-13.24
9:24:27.687500,-13.45
9:24:27.703125,-13.67
9:24:27.718750,-13.73
9:24:27.734375,-13.57
9:24:27.750000,-13.26
9:24:27.765625,-12.91
9:24:27.781250,-12.68
9:24:27.796875,-12.70
9:24:27.812500,-13.03
9:24:27.828125,-13.67
9:24:27.843750,-14.54
9:24:27.859375,-15.59
9:24:27.875000,-16.80
9:24:27.890625,-18.26
9:24:27.906250,-20.09
9:24:27.921875,-22.39
9:24:27.937500,-25.06
9:24:27.953125,-27.84
9:24:27.968750,-30.36
9:24:27.984375,-32.28
9:24:28,-33.42
9:24:28.015625,-33.86
9:24:28.031250,-33.95
9:24:28.046875,-34.15
9:24:28.062500,-34.91
9:24:28.078125,-36.53
9:24:28.093750,-39.06
9:24:28.109375,-42.28
9:24:28.125000,-45.73
9:24:28.140625,-48.80
9:24:28.156250,-50.88
9:24:28.171875,-51.43
9:24:28.187500,-50.19
9:24:28.203125,-47.20
9:24:28.218750,-42.80
9:24:28.234375,-37.50
9:24:28.250000,-31.88
9:24:28.265625,-26.41
9:24:28.281250,-21.37
9:24:28.296875,-16.90
9:24:28.312500,-13.01
9:24:28.328125,-9.71
9:24:28.343750,-7.00
9:24:28.359375,-4.89
9:24:28.375000,-3.35
9:24:28.390625,-2.23
9:24:28.406250,-1.32
9:24:28.421875,-0.36
9:24:28.437500,0.83
9:24:28.453125,2.31
9:24:28.468750,4.00
9:24:28.484375,5.65
9:24:28.500000,6.94
9:24:28.515625,7.60
9:24:28.531250,7.55
9:24:28.546875,7.01
9:24:28.562500,6.48
9:24:28.578125,6.63
9:24:28.593750,8.15
9:24:28.609375,11.50
9:24:28.625000,16.87
9:24:28.640625,24.12
9:24:28.656250,32.75
9:24:28.671875,41.94
9:24:28.687500,50.66
9:24:28.703125,57.76
9:24:28.718750,62.29
9:24:28.734375,63.72
9:24:28.750000,62.03
9:24:28.765625,57.60
9:24:28.781250,50.84
9:24:28.796875,41.87
9:24:28.812500,30.43
9:24:28.828125,16.05
9:24:28.843750,-1.52
9:24:28.859375,-21.97
9:24:28.875000,-44.28
9:24:28.890625,-66.95
9:24:28.906250,-88.50
9:24:28.921875,-107.83
9:24:28.937500,-124.48
9:24:28.953125,-138.50
9:24:28.968750,-150.18
9:24:28.984375,-159.65
9:24:29,-166.73
9:24:29.015625,-170.82
9:24:29.031250,-171.02
9:24:29.046875,-166.42
9:24:29.062500,-156.42
9:24:29.078125,-140.95
9:24:29.093750,-120.47
9:24:29.109375,-95.98
9:24:29.125000,-68.78
9:24:29.140625,-40.34
9:24:29.156250,-12.12
9:24:29.171875,14.59
9:24:29.187500,38.97
9:24:29.203125,60.96
9:24:29.218750,81.39
9:24:29.234375,101.91
9:24:29.250000,124.42
9:24:29.265625,150.30
9:24:29.281250,179.73
9:24:29.296875,211.42
9:24:29.312500,242.89
9:24:29.328125,271.25
9:24:29.343750,293.97
9:24:29.359375,309.43
9:24:29.375000,316.88
9:24:29.390625,316.06
9:24:29.406250,306.82
9:24:29.421875,289.09
9:24:29.437500,263.27
9:24:29.453125,230.83
9:24:29.468750,194.56
9:24:29.484375,158.19
9:24:29.500000,125.28
9:24:29.515625,97.92
9:24:29.531250,75.94
9:24:29.546875,57.16
9:24:29.562500,38.63
9:24:29.578125,18.14
9:24:29.593750,-4.82
9:24:29.609375,-29.24
9:24:29.625000,-53.78
9:24:29.640625,-77.83
9:24:29.656250,-101.74
9:24:29.671875,-125.95
9:24:29.687500,-149.71
9:24:29.703125,-170.33
9:24:29.718750,-183.88
9:24:29.734375,-186.77
9:24:29.750000,-177.46
9:24:29.765625,-157.25
9:24:29.781250,-129.71
9:24:29.796875,-99.26
9:24:29.812500,-69.57
9:24:29.828125,-42.84
9:24:29.843750,-19.72
9:24:29.859375,0.23
9:24:29.875000,17.94
9:24:29.890625,34.46
9:24:29.906250,50.65
9:24:29.921875,66.91
9:24:29.937500,83.03
9:24:29.953125,98.17
9:24:29.968750,111.12
9:24:29.984375,120.78
9:24:30,126.41
9:24:30.015625,127.77
9:24:30.031250,125.11
9:24:30.046875,119.15
9:24:30.062500,111.11
9:24:30.078125,102.57
9:24:30.093750,94.93
9:24:30.109375,88.79
9:24:30.125000,83.59
9:24:30.140625,77.77
9:24:30.156250,69.67
9:24:30.171875,58.51
9:24:30.187500,45.23
9:24:30.203125,32.33
9:24:30.218750,23.01
9:24:30.234375,19.92
9:24:30.250000,24.04
9:24:30.265625,34.14
9:24:30.281250,46.97
9:24:30.296875,57.82
9:24:30.312500,61.24
9:24:30.328125,52.47
9:24:30.343750,28.76
9:24:30.359375,-9.35
9:24:30.375000,-57.50
9:24:30.390625,-108.03
9:24:30.406250,-151.65
9:24:30.421875,-180.00
9:24:30.437500,-188.14
9:24:30.453125,-176.30
9:24:30.468750,-149.54
9:24:30.484375,-116.06
9:24:30.500000,-84.40
9:24:30.515625,-60.84
9:24:30.531250,-47.63
9:24:30.546875,-42.79
9:24:30.562500,-41.56
9:24:30.578125,-38.80
9:24:30.593750,-31.88
9:24:30.609375,-21.46
9:24:30.625000,-11.04
9:24:30.640625,-4.85
9:24:30.656250,-5.68
9:24:30.671875,-13.46
9:24:30.687500,-25.58
9:24:30.703125,-38.63
9:24:30.718750,-50.42
9:24:30.734375,-62.36
9:24:30.750000,-77.58
9:24:30.765625,-98.77
9:24:30.781250,-126.10
9:24:30.796875,-156.77
9:24:30.812500,-186.65
9:24:30.828125,-212.36
9:24:30.843750,-232.67
9:24:30.859375,-248.00
9:24:30.875000,-261.03
9:24:30.890625,-271.98
9:24:30.906250,-277.66
9:24:30.921875,-272.86
9:24:30.937500,-253.73
9:24:30.953125,-221.03
9:24:30.968750,-180.54
9:24:30.984375,-140.67
9:24:31,-108.62
9:24:31.015625,-91.81
9:24:31.031250,-92.90
9:24:31.046875,-110.45
9:24:31.062500,-141.05
9:24:31.078125,-181.66
9:24:31.093750,-230.66
9:24:31.109375,-286.46
9:24:31.125000,-345.46
9:24:31.140625,-401.04
9:24:31.156250,-450.86
9:24:31.171875,-493.46
9:24:31.187500,-528.93
9:24:31.203125,-558.43
9:24:31.218750,-583.37
9:24:31.234375,-604.49
9:24:31.250000,-621.06
9:24:31.265625,-630.81
9:24:31.281250,-603.99
9:24:31.296875,-526.22
9:24:31.312500,-401.30
9:24:31.328125,-251.46
9:24:31.343750,-105.34
9:24:31.359375,16.50
9:24:31.375000,107.36
9:24:31.390625,171.03
9:24:31.406250,211.69
9:24:31.421875,240.52
9:24:31.437500,260.17
9:24:31.453125,270.75
9:24:31.468750,272.96
9:24:31.484375,270.01
9:24:31.500000,267.15
9:24:31.515625,269.89
9:24:31.531250,281.34
9:24:31.546875,302.47
9:24:31.562500,333.01
9:24:31.578125,366.90
9:24:31.593750,398.07
9:24:31.609375,422.39
9:24:31.625000,438.61
9:24:31.640625,447.79
9:24:31.656250,451.82
9:24:31.671875,452.40
9:24:31.687500,450.91
9:24:31.703125,449.05
9:24:31.718750,445.67
9:24:31.734375,440.28
9:24:31.750000,433.58
9:24:31.765625,426.94
9:24:31.781250,420.96
9:24:31.796875,414.24
9:24:31.812500,403.43
9:24:31.828125,384.90
9:24:31.843750,356.88
9:24:31.859375,318.69
9:24:31.875000,272.49
9:24:31.890625,222.32
9:24:31.906250,172.68
9:24:31.921875,127.07
9:24:31.937500,87.37
9:24:31.953125,54.14
9:24:31.968750,27.58
9:24:31.984375,8.03
9:24:32,-4.91
9:24:32.015625,-12.02
9:24:32.031250,-14.78
9:24:32.046875,-15.21
9:24:32.062500,-15.63
9:24:32.078125,-18.33
9:24:32.093750,-24.93
9:24:32.109375,-35.64
9:24:32.125000,-48.56
9:24:32.140625,-59.90
9:24:32.156250,-64.72
9:24:32.171875,-58.57
9:24:32.187500,-39.30
9:24:32.203125,-8.12
9:24:32.218750,30.44
9:24:32.234375,70.04
9:24:32.250000,104.45
9:24:32.265625,129.27
9:24:32.281250,142.57
9:24:32.296875,144.62
9:24:32.312500,136.88
9:24:32.328125,121.21
9:24:32.343750,99.47
9:24:32.359375,73.60
9:24:32.375000,45.90
9:24:32.390625,18.78
9:24:32.406250,-5.64
9:24:32.421875,-26.07
9:24:32.437500,-42.29
9:24:32.453125,-55.07
9:24:32.468750,-65.75
9:24:32.484375,-75.67
9:24:32.500000,-85.82
9:24:32.515625,-96.57
9:24:32.531250,-107.96
9:24:32.546875,-120.03
9:24:32.562500,-133.13
9:24:32.578125,-147.65
9:24:32.593750,-163.81
9:24:32.609375,-181.38
9:24:32.625000,-199.55
9:24:32.640625,-217.18
9:24:32.656250,-233.04
9:24:32.671875,-246.58
9:24:32.687500,-258.31
9:24:32.703125,-269.87
9:24:32.718750,-283.08
9:24:32.734375,-299.24
9:24:32.750000,-318.52
9:24:32.765625,-339.33
9:24:32.781250,-358.42
9:24:32.796875,-371.07
9:24:32.812500,-372.85
9:24:32.828125,-361.04
9:24:32.843750,-335.77
9:24:32.859375,-299.36
9:24:32.875000,-255.73
9:24:32.890625,-209.48
9:24:32.906250,-164.83
9:24:32.921875,-124.72
9:24:32.937500,-89.90
9:24:32.953125,-59.90
9:24:32.968750,-33.95
9:24:32.984375,-12.02
9:24:33,6.27
9:24:33.015625,21.33
9:24:33.031250,33.77
9:24:33.046875,44.77
9:24:33.062500,56.70
9:24:33.078125,73.46
9:24:33.093750,97.78
9:24:33.109375,129.01
9:24:33.125000,161.34
9:24:33.140625,186.63
9:24:33.156250,196.86
9:24:33.171875,187.17
9:24:33.187500,157.43
9:24:33.203125,107.19
9:24:33.218750,41.34
9:24:33.234375,-31.62
9:24:33.250000,-97.51
9:24:33.265625,-149.54
9:24:33.281250,-183.66
9:24:33.296875,-197.10
9:24:33.312500,-187.52
9:24:33.328125,-155.89
9:24:33.343750,-107.63
9:24:33.359375,-50.76
9:24:33.375000,5.82
9:24:33.390625,55.30
9:24:33.406250,94.00
9:24:33.421875,122.79
9:24:33.437500,144.72
9:24:33.453125,162.81
9:24:33.468750,178.47
9:24:33.484375,191.97
9:24:33.500000,204.06
9:24:33.515625,215.90
9:24:33.531250,228.96
9:24:33.546875,244.30
9:24:33.562500,263.71
9:24:33.578125,288.79
9:24:33.593750,319.52
9:24:33.609375,353.19
9:24:33.625000,384.37
9:24:33.640625,406.59
9:24:33.656250,414.11
9:24:33.671875,404.06
9:24:33.687500,377.26
9:24:33.703125,338.40
9:24:33.718750,293.63
9:24:33.734375,247.99
9:24:33.750000,203.70
9:24:33.765625,160.47
9:24:33.781250,117.00
9:24:33.796875,72.35
9:24:33.812500,26.71
9:24:33.828125,-18.84
9:24:33.843750,-62.57
9:24:33.859375,-102.74
9:24:33.875000,-138.03
9:24:33.890625,-167.64
9:24:33.906250,-191.26
9:24:33.921875,-208.87
9:24:33.937500,-220.77
9:24:33.953125,-227.52
9:24:33.968750,-230.06
9:24:33.984375,-229.37
9:24:34,-226.18
9:24:34.015625,-220.53
9:24:34.031250,-211.66
9:24:34.046875,-198.21
9:24:34.062500,-178.96
9:24:34.078125,-153.72
9:24:34.093750,-123.80
9:24:34.109375,-91.84
9:24:34.125000,-61.01
9:24:34.140625,-33.86
9:24:34.156250,-11.62
9:24:34.171875,5.85
9:24:34.187500,19.74
9:24:34.203125,31.61
9:24:34.218750,42.91
9:24:34.234375,54.64
9:24:34.250000,67.22
9:24:34.265625,80.38
9:24:34.281250,93.13
9:24:34.296875,103.98
9:24:34.312500,111.49
9:24:34.328125,114.73
9:24:34.343750,113.51
9:24:34.359375,108.18
9:24:34.375000,99.50
9:24:34.390625,88.39
9:24:34.406250,75.71
9:24:34.421875,62.28
9:24:34.437500,48.81
9:24:34.453125,35.70
9:24:34.468750,22.96
9:24:34.484375,10.42
9:24:34.500000,-2.03
9:24:34.515625,-14.13
9:24:34.531250,-25.24
9:24:34.546875,-34.78
9:24:34.562500,-42.65
9:24:34.578125,-49.40
9:24:34.593750,-55.89
9:24:34.609375,-62.65
9:24:34.625000,-69.32
9:24:34.640625,-74.64
9:24:34.656250,-77.07
9:24:34.671875,-75.81
9:24:34.687500,-71.25
9:24:34.703125,-64.86
9:24:34.718750,-58.26
9:24:34.734375,-52.37
9:24:34.750000,-46.89
9:24:34.765625,-40.69
9:24:34.781250,-32.66
9:24:34.796875,-22.38
9:24:34.812500,-10.38
9:24:34.828125,2.43
9:24:34.843750,15.33
9:24:34.859375,28.23
9:24:34.875000,41.48
9:24:34.890625,55.29
9:24:34.906250,69.15
9:24:34.921875,81.78
9:24:34.937500,91.59
9:24:34.953125,97.45
9:24:34.968750,99.23
9:24:34.984375,97.78
9:24:35,94.52
9:24:35.015625,90.70
9:24:35.031250,87.01
9:24:35.046875,83.40
9:24:35.062500,79.47
9:24:35.078125,74.86
9:24:35.093750,69.55
9:24:35.109375,63.85
9:24:35.125000,58.14
9:24:35.140625,52.59
9:24:35.156250,47.12
9:24:35.171875,41.54
9:24:35.187500,35.81
9:24:35.203125,30.16
9:24:35.218750,25.10
9:24:35.234375,21.23
9:24:35.250000,19.06
9:24:35.265625,18.91
9:24:35.281250,20.86
9:24:35.296875,24.75
9:24:35.312500,30.20
9:24:35.328125,36.61
9:24:35.343750,43.29
9:24:35.359375,49.47
9:24:35.375000,54.39
9:24:35.390625,57.42
9:24:35.406250,58.11
9:24:35.421875,56.29
9:24:35.437500,52.17
9:24:35.453125,46.28
9:24:35.468750,39.30
9:24:35.484375,31.71
9:24:35.500000,23.56
9:24:35.515625,14.46
9:24:35.531250,4.02
9:24:35.546875,-7.74
9:24:35.562500,-20.02
9:24:35.578125,-31.48
9:24:35.593750,-40.78
9:24:35.609375,-47.35
9:24:35.625000,-51.75
9:24:35.640625,-55.44
9:24:35.656250,-60.04
9:24:35.671875,-66.42
9:24:35.687500,-74.32
9:24:35.703125,-82.65
9:24:35.718750,-90.15
9:24:35.734375,-96.31
9:24:35.750000,-101.76
9:24:35.765625,-108.03
9:24:35.781250,-116.70
9:24:35.796875,-128.51
9:24:35.812500,-142.85
9:24:35.828125,-158.03
9:24:35.843750,-171.87
9:24:35.859375,-182.44
9:24:35.875000,-188.35
9:24:35.890625,-188.70
9:24:35.906250,-182.94
9:24:35.921875,-171.10
9:24:35.937500,-154.24
9:24:35.953125,-134.78
9:24:35.968750,-116.17
9:24:35.984375,-101.72
9:24:36,-93.10
9:24:36.015625,-89.36
9:24:36.031250,-87.20
9:24:36.046875,-82.59
9:24:36.062500,-72.93
9:24:36.078125,-58.49
9:24:36.093750,-42.28
9:24:36.109375,-28.42
9:24:36.125000,-19.99
9:24:36.140625,-17.64
9:24:36.156250,-19.67
9:24:36.171875,-23.18
9:24:36.187500,-25.62
9:24:36.203125,-25.73
9:24:36.218750,-23.40
9:24:36.234375,-18.92
9:24:36.250000,-12.33
9:24:36.265625,-3.21
9:24:36.281250,8.71
9:24:36.296875,22.78
9:24:36.312500,37.26
9:24:36.328125,49.75
9:24:36.343750,58.23
9:24:36.359375,61.89
9:24:36.375000,61.52
9:24:36.390625,58.97
9:24:36.406250,56.36
9:24:36.421875,55.33
9:24:36.437500,56.57
9:24:36.453125,59.95
9:24:36.468750,64.68
9:24:36.484375,69.72
9:24:36.500000,74.09
9:24:36.515625,77.16
9:24:36.531250,78.90
9:24:36.546875,79.81
9:24:36.562500,80.67
9:24:36.578125,82.09
9:24:36.593750,84.20
9:24:36.609375,86.49
9:24:36.625000,88.04
9:24:36.640625,88.00
9:24:36.656250,85.94
9:24:36.671875,81.98
9:24:36.687500,76.61
9:24:36.703125,70.40
9:24:36.718750,63.75
9:24:36.734375,56.95
9:24:36.750000,50.17
9:24:36.765625,43.68
9:24:36.781250,37.71
9:24:36.796875,32.36
9:24:36.812500,27.51
9:24:36.828125,22.82
9:24:36.843750,17.92
9:24:36.859375,12.51
9:24:36.875000,6.49
9:24:36.890625,-0.06
9:24:36.906250,-6.88
9:24:36.921875,-13.72
9:24:36.937500,-20.37
9:24:36.953125,-26.67
9:24:36.968750,-32.56
9:24:36.984375,-38.03
9:24:37,-43.12
9:24:37.015625,-47.85
9:24:37.031250,-52.18
9:24:37.046875,-55.96
9:24:37.062500,-58.95
9:24:37.078125,-60.83
9:24:37.093750,-61.31
9:24:37.109375,-60.19
9:24:37.125000,-57.41
9:24:37.140625,-53.12
9:24:37.156250,-47.66
9:24:37.171875,-41.58
9:24:37.187500,-35.54
9:24:37.203125,-30.18
9:24:37.218750,-25.88
9:24:37.234375,-22.69
9:24:37.250000,-20.31
9:24:37.265625,-18.37
9:24:37.281250,-16.60
9:24:37.296875,-14.98
9:24:37.312500,-13.72
9:24:37.328125,-13.04
9:24:37.343750,-13.00
9:24:37.359375,-13.49
9:24:37.375000,-14.30
9:24:37.390625,-15.29
9:24:37.406250,-16.40
9:24:37.421875,-17.47
9:24:37.437500,-18.22
9:24:37.453125,-18.17
9:24:37.468750,-17.00
9:24:37.484375,-14.85
9:24:37.500000,-12.41
9:24:37.515625,-10.71
9:24:37.531250,-10.57
9:24:37.546875,-12.20
9:24:37.562500,-15.19
9:24:37.578125,-18.81
9:24:37.593750,-22.59
9:24:37.609375,-26.56
9:24:37.625000,-31.01
9:24:37.640625,-35.98
9:24:37.656250,-40.77
9:24:37.671875,-43.93
9:24:37.687500,-43.83
9:24:37.703125,-39.45
9:24:37.718750,-30.88
9:24:37.734375,-19.32
9:24:37.750000,-6.50
9:24:37.765625,6.08
9:24:37.781250,17.61
9:24:37.796875,27.98
9:24:37.812500,37.40
9:24:37.828125,46.00
9:24:37.843750,53.65
9:24:37.859375,60.08
9:24:37.875000,65.10
9:24:37.890625,68.72
9:24:37.906250,71.06
9:24:37.921875,72.27
9:24:37.937500,72.33
9:24:37.953125,71.17
9:24:37.968750,68.79
9:24:37.984375,65.39
9:24:38,61.36
9:24:38.015625,57.15
9:24:38.031250,53.00
9:24:38.046875,48.88
9:24:38.062500,44.57
9:24:38.078125,39.82
9:24:38.093750,34.58
9:24:38.109375,29.02
9:24:38.125000,23.49
9:24:38.140625,18.33
9:24:38.156250,13.69
9:24:38.171875,9.53
9:24:38.187500,5.62
9:24:38.203125,1.72
9:24:38.218750,-2.34
9:24:38.234375,-6.67
9:24:38.250000,-11.39
9:24:38.265625,-16.57
9:24:38.281250,-22.18
9:24:38.296875,-27.93
9:24:38.312500,-33.09
9:24:38.328125,-36.67
9:24:38.343750,-37.71
9:24:38.359375,-35.64
9:24:38.375000,-30.59
9:24:38.390625,-23.38
9:24:38.406250,-15.20
9:24:38.421875,-7.17
9:24:38.437500,-0.01
9:24:38.453125,6.06
9:24:38.468750,11.12
9:24:38.484375,15.34
9:24:38.500000,18.74
9:24:38.515625,21.20
9:24:38.531250,22.63
9:24:38.546875,23.03
9:24:38.562500,22.62
9:24:38.578125,21.79
9:24:38.593750,20.92
9:24:38.609375,20.28
9:24:38.625000,19.93
9:24:38.640625,19.71
9:24:38.656250,19.33
9:24:38.671875,18.55
9:24:38.687500,17.27
9:24:38.703125,15.55
9:24:38.718750,13.56
9:24:38.734375,11.40
9:24:38.750000,9.05
9:24:38.765625,6.33
9:24:38.781250,3.08
9:24:38.796875,-0.72
9:24:38.812500,-4.85
9:24:38.828125,-8.90
9:24:38.843750,-12.43
9:24:38.859375,-15.23
9:24:38.875000,-17.37
9:24:38.890625,-19.22
9:24:38.906250,-21.26
9:24:38.921875,-23.86
9:24:38.937500,-27.16
9:24:38.953125,-30.94
9:24:38.968750,-34.72
9:24:38.984375,-37.83
9:24:39,-39.59
9:24:39.015625,-39.53
9:24:39.031250,-37.47
9:24:39.046875,-33.57
9:24:39.062500,-28.32
9:24:39.078125,-22.31
9:24:39.093750,-16.12
9:24:39.109375,-10.11
9:24:39.125000,-4.42
9:24:39.140625,0.98
9:24:39.156250,6.16
9:24:39.171875,11.09
9:24:39.187500,15.64
9:24:39.203125,19.57
9:24:39.218750,22.65
9:24:39.234375,24.74
9:24:39.250000,25.83
9:24:39.265625,26.12
9:24:39.281250,25.88
9:24:39.296875,25.38
9:24:39.312500,24.77
9:24:39.328125,24.05
9:24:39.343750,23.08
9:24:39.359375,21.78
9:24:39.375000,20.18
9:24:39.390625,18.48
9:24:39.406250,16.93
9:24:39.421875,15.65
9:24:39.437500,14.50
9:24:39.453125,13.11
9:24:39.468750,11.06
9:24:39.484375,8.16
9:24:39.500000,4.58
9:24:39.515625,0.83
9:24:39.531250,-2.50
9:24:39.546875,-5.07
9:24:39.562500,-6.91
9:24:39.578125,-8.44
9:24:39.593750,-10.17
9:24:39.609375,-12.52
9:24:39.625000,-15.70
9:24:39.640625,-19.62
9:24:39.656250,-24.02
9:24:39.671875,-28.44
9:24:39.687500,-32.32
9:24:39.703125,-35.04
9:24:39.718750,-36.04
9:24:39.734375,-34.99
9:24:39.750000,-31.97
9:24:39.765625,-27.37
9:24:39.781250,-21.80
9:24:39.796875,-15.83
9:24:39.812500,-9.85
9:24:39.828125,-4.06
9:24:39.843750,1.51
9:24:39.859375,6.77
9:24:39.875000,11.53
9:24:39.890625,15.56
9:24:39.906250,18.66
9:24:39.921875,20.81
9:24:39.937500,22.18
9:24:39.953125,23.09
9:24:39.968750,23.88
9:24:39.984375,24.77
9:24:40,25.78
9:24:40.015625,26.72
9:24:40.031250,27.25
9:24:40.046875,27.11
9:24:40.062500,26.15
9:24:40.078125,24.50
9:24:40.093750,22.41
9:24:40.109375,20.23
9:24:40.125000,18.20
9:24:40.140625,16.38
9:24:40.156250,14.64
9:24:40.171875,12.77
9:24:40.187500,10.57
9:24:40.203125,7.96
9:24:40.218750,5.04
9:24:40.234375,2.02
9:24:40.250000,-0.91
9:24:40.265625,-3.58
9:24:40.281250,-5.94
9:24:40.296875,-8.06
9:24:40.312500,-10.04
9:24:40.328125,-12.06
9:24:40.343750,-14.35
9:24:40.359375,-17.16
9:24:40.375000,-20.66
9:24:40.390625,-24.78
9:24:40.406250,-29.09
9:24:40.421875,-32.83
9:24:40.437500,-35.15
9:24:40.453125,-35.42
9:24:40.468750,-33.51
9:24:40.484375,-29.80
9:24:40.500000,-25.03
9:24:40.515625,-19.86
9:24:40.531250,-14.65
9:24:40.546875,-9.45
9:24:40.562500,-4.14
9:24:40.578125,1.29
9:24:40.593750,6.54
9:24:40.609375,11.07
9:24:40.625000,14.38
9:24:40.640625,16.26
9:24:40.656250,16.86
9:24:40.671875,16.62
9:24:40.687500,16.05
9:24:40.703125,15.46
9:24:40.718750,14.90
9:24:40.734375,14.21
9:24:40.750000,13.24
9:24:40.765625,12.01
9:24:40.781250,10.74
9:24:40.796875,9.73
9:24:40.812500,9.18
9:24:40.828125,9.00
9:24:40.843750,8.93
9:24:40.859375,8.62
9:24:40.875000,7.83
9:24:40.890625,6.57
9:24:40.906250,5.04
9:24:40.921875,3.49
9:24:40.937500,2.08
9:24:40.953125,0.84
9:24:40.968750,-0.34
9:24:40.984375,-1.58
9:24:41,-2.98
9:24:41.015625,-4.59
9:24:41.031250,-6.43
9:24:41.046875,-8.57
9:24:41.062500,-11.08
9:24:41.078125,-14.08
9:24:41.093750,-17.60
9:24:41.109375,-21.54
9:24:41.125000,-25.64
9:24:41.140625,-29.41
9:24:41.156250,-32.26
9:24:41.171875,-33.65
9:24:41.187500,-33.25
9:24:41.203125,-31.08
9:24:41.218750,-27.47
9:24:41.234375,-22.93
9:24:41.250000,-17.95
9:24:41.265625,-12.89
9:24:41.281250,-7.92
9:24:41.296875,-3.06
9:24:41.312500,1.60
9:24:41.328125,5.90
9:24:41.343750,9.54
9:24:41.359375,12.21
9:24:41.375000,13.73
9:24:41.390625,14.14
9:24:41.406250,13.79
9:24:41.421875,13.18
9:24:41.437500,12.84
9:24:41.453125,13.07
9:24:41.468750,13.81
9:24:41.484375,14.75
9:24:41.500000,15.45
9:24:41.515625,15.59
9:24:41.531250,15.10
9:24:41.546875,14.13
9:24:41.562500,12.95
9:24:41.578125,11.78
9:24:41.593750,10.65
9:24:41.609375,9.47
9:24:41.625000,8.03
9:24:41.640625,6.19
9:24:41.656250,3.92
9:24:41.671875,1.35
9:24:41.687500,-1.36
9:24:41.703125,-4.02
9:24:41.718750,-6.49
9:24:41.734375,-8.77
9:24:41.750000,-10.90
9:24:41.765625,-12.98
9:24:41.781250,-15.11
9:24:41.796875,-17.34
9:24:41.812500,-19.73
9:24:41.828125,-22.33
9:24:41.843750,-25.20
9:24:41.859375,-28.22
9:24:41.875000,-31.11
9:24:41.890625,-33.38
9:24:41.906250,-34.43
9:24:41.921875,-33.80
9:24:41.937500,-31.31
9:24:41.953125,-27.19
9:24:41.968750,-21.89
9:24:41.984375,-16.02
9:24:42,-10.06
9:24:42.015625,-4.32
9:24:42.031250,1.04
9:24:42.046875,5.91
9:24:42.062500,10.09
9:24:42.078125,13.26
9:24:42.093750,15.14
9:24:42.109375,15.65
9:24:42.125000,15.01
9:24:42.140625,13.81
9:24:42.156250,12.75
9:24:42.171875,12.43
9:24:42.187500,13.07
9:24:42.203125,14.46
9:24:42.218750,16.11
9:24:42.234375,17.49
9:24:42.250000,18.28
9:24:42.265625,18.51
9:24:42.281250,18.37
9:24:42.296875,18.08
9:24:42.312500,17.74
9:24:42.328125,17.23
9:24:42.343750,16.37
9:24:42.359375,15.02
9:24:42.375000,13.19
9:24:42.390625,11.03
9:24:42.406250,8.73
9:24:42.421875,6.45
9:24:42.437500,4.21
9:24:42.453125,1.96
9:24:42.468750,-0.35
9:24:42.484375,-2.69
9:24:42.500000,-4.93
9:24:42.515625,-6.94
9:24:42.531250,-8.69
9:24:42.546875,-10.41
9:24:42.562500,-12.54
9:24:42.578125,-15.54
9:24:42.593750,-19.59
9:24:42.609375,-24.38
9:24:42.625000,-29.10
9:24:42.640625,-32.72
9:24:42.656250,-34.40
9:24:42.671875,-33.77
9:24:42.687500,-31.01
9:24:42.703125,-26.70
9:24:42.718750,-21.44
9:24:42.734375,-15.73
9:24:42.750000,-9.87
9:24:42.765625,-4.10
9:24:42.781250,1.33
9:24:42.796875,6.05
9:24:42.812500,9.80
9:24:42.828125,12.50
9:24:42.843750,14.28
9:24:42.859375,15.48
9:24:42.875000,16.48
9:24:42.890625,17.51
9:24:42.906250,18.66
9:24:42.921875,19.88
9:24:42.937500,21.05
9:24:42.953125,22.05
9:24:42.968750,22.80
9:24:42.984375,23.34
9:24:43,23.86
9:24:43.015625,24.65
9:24:43.031250,25.93
9:24:43.046875,27.77
9:24:43.062500,29.92
9:24:43.078125,31.85
9:24:43.093750,32.99
9:24:43.109375,33.01
9:24:43.125000,32.06
9:24:43.140625,30.76
9:24:43.156250,29.86
9:24:43.171875,29.93
9:24:43.187500,31.10
9:24:43.203125,32.99
9:24:43.218750,34.92
9:24:43.234375,36.23
9:24:43.250000,36.50
9:24:43.265625,35.69
9:24:43.281250,34.14
9:24:43.296875,32.52
9:24:43.312500,31.71
9:24:43.328125,32.58
9:24:43.343750,35.70
9:24:43.359375,40.85
9:24:43.375000,46.88
9:24:43.390625,51.63
9:24:43.406250,52.44
9:24:43.421875,46.87
9:24:43.437500,33.54
9:24:43.453125,12.74
9:24:43.468750,-13.57
9:24:43.484375,-42.17
9:24:43.500000,-69.40
9:24:43.515625,-92.04
9:24:43.531250,-107.83
9:24:43.546875,-115.46
9:24:43.562500,-114.28
9:24:43.578125,-104.04
9:24:43.593750,-85.14
9:24:43.609375,-59.18
9:24:43.625000,-29.24
9:24:43.640625,0.32
9:24:43.656250,24.75
9:24:43.671875,40.10
9:24:43.687500,44.05
9:24:43.703125,36.11
9:24:43.718750,17.42
9:24:43.734375,-9.59
9:24:43.750000,-41.38
9:24:43.765625,-73.34
9:24:43.781250,-100.32
9:24:43.796875,-117.56
9:24:43.812500,-122.01
9:24:43.828125,-113.32
9:24:43.843750,-93.84
9:24:43.859375,-67.57
9:24:43.875000,-38.58
9:24:43.890625,-10.07
9:24:43.906250,15.82
9:24:43.921875,37.47
9:24:43.937500,53.38
9:24:43.953125,62.40
9:24:43.968750,64.41
9:24:43.984375,60.81
9:24:44,54.50
9:24:44.015625,48.91
9:24:44.031250,46.94
9:24:44.046875,50.14
9:24:44.062500,58.51
9:24:44.078125,70.93
9:24:44.093750,85.69
9:24:44.109375,100.90
9:24:44.125000,114.57
9:24:44.140625,124.86
9:24:44.156250,130.23
9:24:44.171875,129.96
9:24:44.187500,124.55
9:24:44.203125,115.89
9:24:44.218750,106.90
9:24:44.234375,100.67
9:24:44.250000,99.49
9:24:44.265625,103.98
9:24:44.281250,112.81
9:24:44.296875,122.89
9:24:44.312500,130.24
9:24:44.328125,130.95
9:24:44.343750,122.15
9:24:44.359375,102.72
9:24:44.375000,73.53
9:24:44.390625,37.39
9:24:44.406250,-1.36
9:24:44.421875,-37.73
9:24:44.437500,-66.97
9:24:44.453125,-85.68
9:24:44.468750,-92.62
9:24:44.484375,-89.06
9:24:44.500000,-78.47
9:24:44.515625,-65.48
9:24:44.531250,-54.66
9:24:44.546875,-49.17
9:24:44.562500,-50.08
9:24:44.578125,-56.18
9:24:44.593750,-64.45
9:24:44.609375,-71.05
9:24:44.625000,-72.40
9:24:44.640625,-66.22
9:24:44.656250,-52.11
9:24:44.671875,-31.66
9:24:44.687500,-8.04
9:24:44.703125,14.85
9:24:44.718750,33.40
9:24:44.734375,45.08
9:24:44.750000,48.84
9:24:44.765625,45.02
9:24:44.781250,34.97
9:24:44.796875,20.43
9:24:44.812500,3.27
9:24:44.828125,-14.63
9:24:44.843750,-31.26
9:24:44.859375,-44.61
9:24:44.875000,-52.92
9:24:44.890625,-55.38
9:24:44.906250,-52.63
9:24:44.921875,-46.87
9:24:44.937500,-41.24
9:24:44.953125,-38.64
9:24:44.968750,-40.65
9:24:44.984375,-46.94
9:24:45,-55.74
9:24:45.015625,-64.82
9:24:45.031250,-72.68
9:24:45.046875,-79.14
9:24:45.062500,-85.09
9:24:45.078125,-91.73
9:24:45.093750,-99.58
9:24:45.109375,-108.04
9:24:45.125000,-115.53
9:24:45.140625,-120.21
9:24:45.156250,-120.84
9:24:45.171875,-117.22
9:24:45.187500,-110.24
9:24:45.203125,-101.37
9:24:45.218750,-92.09
9:24:45.234375,-83.54
9:24:45.250000,-76.37
9:24:45.265625,-70.80
9:24:45.281250,-66.75
9:24:45.296875,-63.83
9:24:45.312500,-61.32
9:24:45.328125,-58.23
9:24:45.343750,-53.60
9:24:45.359375,-46.85
9:24:45.375000,-38.07
9:24:45.390625,-27.98
9:24:45.406250,-17.47
9:24:45.421875,-7.07
9:24:45.437500,3.35
9:24:45.453125,14.38
9:24:45.468750,26.52
9:24:45.484375,39.62
9:24:45.500000,52.79
9:24:45.515625,64.83
9:24:45.531250,74.92
9:24:45.546875,83.06
9:24:45.562500,90.08
9:24:45.578125,97.12
9:24:45.593750,104.89
9:24:45.609375,113.33
9:24:45.625000,121.53
9:24:45.640625,128.17
9:24:45.656250,132.10
9:24:45.671875,132.76
9:24:45.687500,130.43
9:24:45.703125,126.15
9:24:45.718750,121.44
9:24:45.734375,117.85
9:24:45.750000,116.48
9:24:45.765625,117.66
9:24:45.781250,120.88
9:24:45.796875,124.93
9:24:45.812500,128.18
9:24:45.828125,128.83
9:24:45.843750,125.18
9:24:45.859375,116.08
9:24:45.875000,101.64
9:24:45.890625,83.60
9:24:45.906250,65.23
9:24:45.921875,50.32
9:24:45.937500,41.43
9:24:45.953125,38.37
9:24:45.968750,37.82
9:24:45.984375,34.45
9:24:46,23.23
9:24:46.015625,1.63
9:24:46.031250,-29.43
9:24:46.046875,-66.20
9:24:46.062500,-103.89
9:24:46.078125,-138.53
9:24:46.093750,-168.08
9:24:46.109375,-192.32
9:24:46.125000,-212.08
9:24:46.140625,-228.31
9:24:46.156250,-241.14
9:24:46.171875,-249.70
9:24:46.187500,-252.14
9:24:46.203125,-246.37
9:24:46.218750,-230.99
9:24:46.234375,-206.06
9:24:46.250000,-173.31
9:24:46.265625,-135.55
9:24:46.281250,-95.72
9:24:46.296875,-56.26
9:24:46.312500,-19.04
9:24:46.328125,13.95
9:24:46.343750,40.24
9:24:46.359375,57.24
9:24:46.375000,63.62
9:24:46.390625,60.62
9:24:46.406250,52.27
9:24:46.421875,44.14
9:24:46.437500,40.90
9:24:46.453125,44.34
9:24:46.468750,52.68
9:24:46.484375,61.84
9:24:46.500000,67.48
9:24:46.515625,66.94
9:24:46.531250,59.90
9:24:46.546875,47.97
9:24:46.562500,33.69
9:24:46.578125,19.68
9:24:46.593750,8.15
9:24:46.609375,0.62
9:24:46.625000,-2.20
9:24:46.640625,-0.73
9:24:46.656250,3.56
9:24:46.671875,8.61
9:24:46.687500,12.49
9:24:46.703125,14.09
9:24:46.718750,13.28
9:24:46.734375,10.73
9:24:46.750000,7.35
9:24:46.765625,3.92
9:24:46.781250,1.00
9:24:46.796875,-0.96
9:24:46.812500,-1.59
9:24:46.828125,-0.72
9:24:46.843750,1.38
9:24:46.859375,3.84
9:24:46.875000,5.51
9:24:46.890625,5.50
9:24:46.906250,3.67
9:24:46.921875,0.89
9:24:46.937500,-1.39
9:24:46.953125,-1.81
9:24:46.968750,0.27
9:24:46.984375,4.52
9:24:47,9.90
9:24:47.015625,15.19
9:24:47.031250,19.48
9:24:47.046875,22.41
9:24:47.062500,24.00
9:24:47.078125,24.47
9:24:47.093750,23.98
9:24:47.109375,22.68
9:24:47.125000,20.81
9:24:47.140625,18.76
9:24:47.156250,17.01
9:24:47.171875,15.92
9:24:47.187500,15.56
9:24:47.203125,15.68
9:24:47.218750,15.84
9:24:47.234375,15.61
9:24:47.250000,14.77
9:24:47.265625,13.21
9:24:47.281250,10.95
9:24:47.296875,7.86
9:24:47.312500,3.74
9:24:47.328125,-1.61
9:24:47.343750,-8.10
9:24:47.359375,-15.20
9:24:47.375000,-21.98
9:24:47.390625,-27.33
9:24:47.406250,-30.43
9:24:47.421875,-31.12
9:24:47.437500,-29.94
9:24:47.453125,-27.90
9:24:47.468750,-26.02
9:24:47.484375,-24.93
9:24:47.500000,-24.72
9:24:47.515625,-25.12
9:24:47.531250,-25.81
9:24:47.546875,-26.70
9:24:47.562500,-27.91
9:24:47.578125,-29.61
9:24:47.593750,-31.73
9:24:47.609375,-33.87
9:24:47.625000,-35.39
9:24:47.640625,-35.74
9:24:47.656250,-34.63
9:24:47.671875,-32.24
9:24:47.687500,-29.12
9:24:47.703125,-25.89
9:24:47.718750,-23.12
9:24:47.734375,-21.11
9:24:47.750000,-19.89
9:24:47.765625,-19.37
9:24:47.781250,-19.43
9:24:47.796875,-20.03
9:24:47.812500,-21.19
9:24:47.828125,-22.87
9:24:47.843750,-24.81
9:24:47.859375,-26.62
9:24:47.875000,-27.84
9:24:47.890625,-28.27
9:24:47.906250,-28.07
9:24:47.921875,-27.74
9:24:47.937500,-27.81
9:24:47.953125,-28.58
9:24:47.968750,-29.92
9:24:47.984375,-31.29
9:24:48,-32.10
9:24:48.015625,-32.06
9:24:48.031250,-31.21
9:24:48.046875,-29.93
9:24:48.062500,-28.56
9:24:48.078125,-27.12
9:24:48.093750,-25.37
9:24:48.109375,-22.94
9:24:48.125000,-19.61
9:24:48.140625,-15.49
9:24:48.156250,-11.02
9:24:48.171875,-6.66
9:24:48.187500,-2.72
9:24:48.203125,0.75
9:24:48.218750,3.83
9:24:48.234375,6.61
9:24:48.250000,9.03
9:24:48.265625,10.94
9:24:48.281250,12.18
9:24:48.296875,12.78
9:24:48.312500,12.87
9:24:48.328125,12.67
9:24:48.343750,12.32
9:24:48.359375,11.86
9:24:48.375000,11.25
9:24:48.390625,10.40
9:24:48.406250,9.24
9:24:48.421875,7.71
9:24:48.437500,5.80
9:24:48.453125,3.54
9:24:48.468750,1.10
9:24:48.484375,-1.27
9:24:48.500000,-3.37
9:24:48.515625,-5.07
9:24:48.531250,-6.41
9:24:48.546875,-7.55
9:24:48.562500,-8.69
9:24:48.578125,-9.92
9:24:48.593750,-11.28
9:24:48.609375,-12.73
9:24:48.625000,-14.23
9:24:48.640625,-15.73
9:24:48.656250,-17.10
9:24:48.671875,-18.19
9:24:48.687500,-18.75
9:24:48.703125,-18.60
9:24:48.718750,-17.64
9:24:48.734375,-15.87
9:24:48.750000,-13.37
9:24:48.765625,-10.21
9:24:48.781250,-6.48
9:24:48.796875,-2.28
9:24:48.812500,2.16
9:24:48.828125,6.50
9:24:48.843750,10.35
9:24:48.859375,13.40
9:24:48.875000,15.53
9:24:48.890625,16.87
9:24:48.906250,17.64
9:24:48.921875,18.07
9:24:48.937500,18.31
9:24:48.953125,18.34
9:24:48.968750,18.14
9:24:48.984375,17.73
9:24:49,17.29
9:24:49.015625,17.08
9:24:49.031250,17.37
9:24:49.046875,18.22
9:24:49.062500,19.41
9:24:49.078125,20.56
9:24:49.093750,21.17
9:24:49.109375,20.89
9:24:49.125000,19.60
9:24:49.140625,17.46
9:24:49.156250,14.82
9:24:49.171875,12.13
9:24:49.187500,9.79
9:24:49.203125,8.06
9:24:49.218750,7.05
9:24:49.234375,6.64
9:24:49.250000,6.54
9:24:49.265625,6.38
9:24:49.281250,5.81
9:24:49.296875,4.57
9:24:49.312500,2.58
9:24:49.328125,-0.09
9:24:49.343750,-3.19
9:24:49.359375,-6.40
9:24:49.375000,-9.36
9:24:49.390625,-11.77
9:24:49.406250,-13.50
9:24:49.421875,-14.57
9:24:49.437500,-15.12
9:24:49.453125,-15.37
9:24:49.468750,-15.43
9:24:49.484375,-15.30
9:24:49.500000,-14.87
9:24:49.515625,-14.04
9:24:49.531250,-12.71
9:24:49.546875,-10.86
9:24:49.562500,-8.50
9:24:49.578125,-5.63
9:24:49.593750,-2.27
9:24:49.609375,1.50
9:24:49.625000,5.50
9:24:49.640625,9.43
9:24:49.656250,12.94
9:24:49.671875,15.60
9:24:49.687500,17.10
9:24:49.703125,17.27
9:24:49.718750,16.21
9:24:49.734375,14.30
9:24:49.750000,12.11
9:24:49.765625,10.21
9:24:49.781250,9.03
9:24:49.796875,8.59
9:24:49.812500,8.62
9:24:49.828125,8.67
9:24:49.843750,8.38
9:24:49.859375,7.60
9:24:49.875000,6.44
9:24:49.890625,5.10
9:24:49.906250,3.70
9:24:49.921875,2.30
9:24:49.937500,0.86
9:24:49.953125,-0.65
9:24:49.968750,-2.14
9:24:49.984375,-3.44
9:24:50,-4.39
9:24:50.015625,-4.87
9:24:50.031250,-4.93
9:24:50.046875,-4.70
9:24:50.062500,-4.38
9:24:50.078125,-4.13
9:24:50.093750,-4.01
9:24:50.109375,-4.05
9:24:50.125000,-4.23
9:24:50.140625,-4.61
9:24:50.156250,-5.22
9:24:50.171875,-6.03
9:24:50.187500,-6.85
9:24:50.203125,-7.33
9:24:50.218750,-7.13
9:24:50.234375,-6.11
9:24:50.250000,-4.47
9:24:50.265625,-2.71
9:24:50.281250,-1.35
9:24:50.296875,-0.62
9:24:50.312500,-0.31
9:24:50.328125,0.24
9:24:50.343750,1.78
9:24:50.359375,4.82
9:24:50.375000,9.37
9:24:50.390625,14.90
9:24:50.406250,20.53
9:24:50.421875,25.37
9:24:50.437500,28.84
9:24:50.453125,30.88
9:24:50.468750,32.00
9:24:50.484375,33.06
9:24:50.500000,34.95
9:24:50.515625,38.31
9:24:50.531250,43.28
9:24:50.546875,49.51
9:24:50.562500,56.23
9:24:50.578125,62.37
9:24:50.593750,66.79
9:24:50.609375,68.48
9:24:50.625000,67.10
9:24:50.640625,63.41
9:24:50.656250,59.36
9:24:50.671875,57.58
9:24:50.687500,60.20
9:24:50.703125,67.65
9:24:50.718750,78.08
9:24:50.734375,87.93
9:24:50.750000,93.50
9:24:50.765625,92.70
9:24:50.781250,86.00
9:24:50.796875,76.02
9:24:50.812500,66.02
9:24:50.828125,58.15
9:24:50.843750,52.43
9:24:50.859375,46.92
9:24:50.875000,38.84
9:24:50.890625,25.83
9:24:50.906250,6.72
9:24:50.921875,-18.43
9:24:50.937500,-48.56
9:24:50.953125,-81.85
9:24:50.968750,-115.70
9:24:50.984375,-146.95
9:24:51,-172.32
9:24:51.015625,-189.32
9:24:51.031250,-196.97
9:24:51.046875,-196.03
9:24:51.062500,-188.35
9:24:51.078125,-175.61
9:24:51.093750,-158.37
9:24:51.109375,-135.84
9:24:51.125000,-106.75
9:24:51.140625,-70.78
9:24:51.156250,-29.70
9:24:51.171875,12.50
9:24:51.187500,50.50
9:24:51.203125,79.07
9:24:51.218750,94.52
9:24:51.234375,95.44
9:24:51.250000,82.83
9:24:51.265625,59.75
9:24:51.281250,30.62
9:24:51.296875,0.37
9:24:51.312500,-26.46
9:24:51.328125,-46.46
9:24:51.343750,-57.82
9:24:51.359375,-60.17
9:24:51.375000,-54.28
9:24:51.390625,-41.45
9:24:51.406250,-23.28
9:24:51.421875,-1.85
9:24:51.437500,20.08
9:24:51.453125,38.90
9:24:51.468750,50.81
9:24:51.484375,52.93
9:24:51.500000,44.51
9:24:51.515625,27.40
9:24:51.531250,5.42
9:24:51.546875,-17.10
9:24:51.562500,-36.87
9:24:51.578125,-52.34
9:24:51.593750,-63.34
9:24:51.609375,-69.95
9:24:51.625000,-71.41
9:24:51.640625,-66.03
9:24:51.656250,-52.07
9:24:51.671875,-29.33
9:24:51.687500,-0.37
9:24:51.703125,29.54
9:24:51.718750,53.69
9:24:51.734375,66.22
9:24:51.750000,64.26
9:24:51.765625,48.88
9:24:51.781250,24.57
9:24:51.796875,-2.69
9:24:51.812500,-27.61
9:24:51.828125,-47.15
9:24:51.843750,-60.81
9:24:51.859375,-69.64
9:24:51.875000,-74.78
9:24:51.890625,-76.36
9:24:51.906250,-73.46
9:24:51.921875,-65.06
9:24:51.937500,-51.17
9:24:51.953125,-33.58
9:24:51.968750,-15.55
9:24:51.984375,-0.63
9:24:52,8.60
9:24:52.015625,11.43
9:24:52.031250,9.11
9:24:52.046875,4.14
9:24:52.062500,-0.64
9:24:52.078125,-2.90
9:24:52.093750,-1.41
9:24:52.109375,3.77
9:24:52.125000,11.34
9:24:52.140625,19.14
9:24:52.156250,24.78
9:24:52.171875,26.43
9:24:52.187500,23.50
9:24:52.203125,16.94
9:24:52.218750,8.90
9:24:52.234375,1.95
9:24:52.250000,-1.85
9:24:52.265625,-1.52
9:24:52.281250,2.78
9:24:52.296875,10.09
9:24:52.312500,19.17
9:24:52.328125,28.71
9:24:52.343750,37.41
9:24:52.359375,43.94
9:24:52.375000,47.02
9:24:52.390625,45.81
9:24:52.406250,40.33
9:24:52.421875,31.61
9:24:52.437500,21.46
9:24:52.453125,11.92
9:24:52.468750,4.50
9:24:52.484375,-0.21
9:24:52.500000,-2.64
9:24:52.515625,-3.87
9:24:52.531250,-4.99
9:24:52.546875,-6.60
9:24:52.562500,-8.57
9:24:52.578125,-10.29
9:24:52.593750,-11.00
9:24:52.609375,-10.36
9:24:52.625000,-8.66
9:24:52.640625,-6.64
9:24:52.656250,-5.10
9:24:52.671875,-4.42
9:24:52.687500,-4.44
9:24:52.703125,-4.57
9:24:52.718750,-4.25
9:24:52.734375,-3.25
9:24:52.750000,-1.73
9:24:52.765625,-0.08
9:24:52.781250,1.37
9:24:52.796875,2.54
9:24:52.812500,3.65
9:24:52.828125,4.95
9:24:52.843750,6.64
9:24:52.859375,8.61
9:24:52.875000,10.50
9:24:52.890625,11.85
9:24:52.906250,12.28
9:24:52.921875,11.75
9:24:52.937500,10.66
9:24:52.953125,9.71
9:24:52.968750,9.59
9:24:52.984375,10.67
9:24:53,12.69
9:24:53.015625,14.96
9:24:53.031250,16.68
9:24:53.046875,17.40
9:24:53.062500,17.25
9:24:53.078125,16.84
9:24:53.093750,16.85
9:24:53.109375,17.50
9:24:53.125000,18.44
9:24:53.140625,18.91
9:24:53.156250,18.25
9:24:53.171875,16.31
9:24:53.187500,13.64
9:24:53.203125,11.15
9:24:53.218750,9.67
9:24:53.234375,9.46
9:24:53.250000,10.13
9:24:53.265625,10.96
9:24:53.281250,11.25
9:24:53.296875,10.70
9:24:53.312500,9.49
9:24:53.328125,8.07
9:24:53.343750,6.86
9:24:53.359375,5.99
9:24:53.375000,5.32
9:24:53.390625,4.42
9:24:53.406250,2.85
9:24:53.421875,0.28
9:24:53.437500,-3.30
9:24:53.453125,-7.52
9:24:53.468750,-11.65
9:24:53.484375,-14.85
9:24:53.500000,-16.51
9:24:53.515625,-16.56
9:24:53.531250,-15.47
9:24:53.546875,-14.06
9:24:53.562500,-13.01
9:24:53.578125,-12.56
9:24:53.593750,-12.43
9:24:53.609375,-12.10
9:24:53.625000,-11.16
9:24:53.640625,-9.64
9:24:53.656250,-7.91
9:24:53.671875,-6.50
9:24:53.687500,-5.68
9:24:53.703125,-5.39
9:24:53.718750,-5.25
9:24:53.734375,-4.86
9:24:53.750000,-3.93
9:24:53.765625,-2.48
9:24:53.781250,-0.71
9:24:53.796875,1.03
9:24:53.812500,2.46
9:24:53.828125,3.45
9:24:53.843750,4.03
9:24:53.859375,4.39
9:24:53.875000,4.72
9:24:53.890625,5.11
9:24:53.906250,5.50
9:24:53.921875,5.77
9:24:53.937500,5.82
9:24:53.953125,5.64
9:24:53.968750,5.27
9:24:53.984375,4.71
9:24:54,3.81
9:24:54.015625,2.36
9:24:54.031250,0.34
9:24:54.046875,-1.99
9:24:54.062500,-4.11
9:24:54.078125,-5.46
9:24:54.093750,-5.83
9:24:54.109375,-5.47
9:24:54.125000,-4.98
9:24:54.140625,-4.95
9:24:54.156250,-5.65
9:24:54.171875,-6.90
9:24:54.187500,-8.30
9:24:54.203125,-9.46
9:24:54.218750,-10.21
9:24:54.234375,-10.58
9:24:54.250000,-10.62
9:24:54.265625,-10.29
9:24:54.281250,-9.44
9:24:54.296875,-8.07
9:24:54.312500,-6.43
9:24:54.328125,-4.98
9:24:54.343750,-4.15
9:24:54.359375,-4.06
9:24:54.375000,-4.41
9:24:54.390625,-4.57
9:24:54.406250,-3.96
9:24:54.421875,-2.33
9:24:54.437500,0.15
9:24:54.453125,2.99
9:24:54.468750,5.63
9:24:54.484375,7.69
9:24:54.500000,9.04
9:24:54.515625,9.83
9:24:54.531250,10.31
9:24:54.546875,10.78
9:24:54.562500,11.38
9:24:54.578125,12.12
9:24:54.593750,12.83
9:24:54.609375,13.25
9:24:54.625000,13.17
9:24:54.640625,12.62
9:24:54.656250,11.80
9:24:54.671875,11.05
9:24:54.687500,10.61
9:24:54.703125,10.45
9:24:54.718750,10.28
9:24:54.734375,9.72
9:24:54.750000,8.57
9:24:54.765625,6.87
9:24:54.781250,4.87
9:24:54.796875,2.84
9:24:54.812500,0.97
9:24:54.828125,-0.74
9:24:54.843750,-2.34
9:24:54.859375,-3.85
9:24:54.875000,-5.26
9:24:54.890625,-6.54
9:24:54.906250,-7.80
9:24:54.921875,-9.20
9:24:54.937500,-10.91
9:24:54.953125,-12.94
9:24:54.968750,-15.03
9:24:54.984375,-16.75
9:24:55,-17.74
9:24:55.015625,-17.90
9:24:55.031250,-17.54
9:24:55.046875,-17.26
9:24:55.062500,-17.70
9:24:55.078125,-19.24
9:24:55.093750,-21.81
9:24:55.109375,-24.87
9:24:55.125000,-27.58
9:24:55.140625,-29.18
9:24:55.156250,-29.29
9:24:55.171875,-28.10
9:24:55.187500,-26.31
9:24:55.203125,-24.85
9:24:55.218750,-24.46
9:24:55.234375,-25.42
9:24:55.250000,-27.44
9:24:55.265625,-29.87
9:24:55.281250,-32.08
9:24:55.296875,-33.89
9:24:55.312500,-35.69
9:24:55.328125,-38.34
9:24:55.343750,-42.75
9:24:55.359375,-49.46
9:24:55.375000,-58.32
9:24:55.390625,-68.57
9:24:55.406250,-79.17
9:24:55.421875,-89.18
9:24:55.437500,-98.09
9:24:55.453125,-105.83
9:24:55.468750,-112.75
9:24:55.484375,-119.48
9:24:55.500000,-127.12
9:24:55.515625,-137.31
9:24:55.531250,-151.92
9:24:55.546875,-171.99
9:24:55.562500,-196.74
9:24:55.578125,-222.99
9:24:55.593750,-245.60
9:24:55.609375,-259.25
9:24:55.625000,-260.50
9:24:55.640625,-249.29
9:24:55.656250,-229.01
9:24:55.671875,-204.91
9:24:55.687500,-181.69
9:24:55.703125,-161.98
9:24:55.718750,-146.04
9:24:55.734375,-132.69
9:24:55.750000,-120.54
9:24:55.765625,-108.94
9:24:55.781250,-97.93
9:24:55.796875,-87.74
9:24:55.812500,-78.29
9:24:55.828125,-68.63
9:24:55.843750,-57.94
9:24:55.859375,-46.25
9:24:55.875000,-34.62
9:24:55.890625,-25.01
9:24:55.906250,-19.40
9:24:55.921875,-19.00
9:24:55.937500,-23.84
9:24:55.953125,-32.80
9:24:55.968750,-42.78
9:24:55.984375,-50.73
9:24:56,-54.59
9:24:56.015625,-53.82
9:24:56.031250,-49.04
9:24:56.046875,-41.27
9:24:56.062500,-31.24
9:24:56.078125,-19.24
9:24:56.093750,-5.55
9:24:56.109375,12.23
9:24:56.125000,35.74
9:24:56.140625,64.97
9:24:56.156250,97.98
9:24:56.171875,131.87
9:24:56.187500,164.14
9:24:56.203125,193.63
9:24:56.218750,220.36
9:24:56.234375,244.49
9:24:56.250000,270.70
9:24:56.265625,302.61
9:24:56.281250,341.41
9:24:56.296875,385.50
9:24:56.312500,431.90
9:24:56.328125,478.09
9:24:56.343750,523.21
9:24:56.359375,567.42
9:24:56.375000,610.21
9:24:56.390625,656.40
9:24:56.406250,708.90
9:24:56.421875,767.31
9:24:56.437500,827.80
9:24:56.453125,885.13
9:24:56.468750,935.22
9:24:56.484375,976.49
9:24:56.500000,1009.04
9:24:56.515625,1003.48
9:24:56.531250,942.94
9:24:56.546875,824.57
9:24:56.562500,662.36
9:24:56.578125,479.58
9:24:56.593750,296.98
9:24:56.609375,126.60
9:24:56.625000,-26.88
9:24:56.640625,-155.30
9:24:56.656250,-263.90
9:24:56.671875,-351.67
9:24:56.687500,-417.43
9:24:56.703125,-462.97
9:24:56.718750,-494.41
9:24:56.734375,-520.67
9:24:56.750000,-550.11
9:24:56.765625,-584.30
9:24:56.781250,-620.78
9:24:56.796875,-654.50
9:24:56.812500,-672.94
9:24:56.828125,-664.70
9:24:56.843750,-623.68
9:24:56.859375,-551.82
9:24:56.875000,-458.75
9:24:56.890625,-358.65
9:24:56.906250,-265.70
9:24:56.921875,-190.38
9:24:56.937500,-137.76
9:24:56.953125,-103.43
9:24:56.968750,-80.13
9:24:56.984375,-61.84
9:24:57,-46.26
9:24:57.015625,-34.11
9:24:57.031250,-26.55
9:24:57.046875,-22.82
9:24:57.062500,-20.50
9:24:57.078125,-17.39
9:24:57.093750,-11.14
9:24:57.109375,-2.42
9:24:57.125000,5.59
9:24:57.140625,9.88
9:24:57.156250,10.35
9:24:57.171875,10.72
9:24:57.187500,16.91
9:24:57.203125,33.66
9:24:57.218750,62.15
9:24:57.234375,100.56
9:24:57.250000,144.31
9:24:57.265625,187.71
9:24:57.281250,225.27
9:24:57.296875,252.08
9:24:57.312500,263.91
9:24:57.328125,257.75
9:24:57.343750,232.27
9:24:57.359375,188.68
9:24:57.375000,130.94
9:24:57.390625,64.64
9:24:57.406250,-4.63
9:24:57.421875,-72.68
9:24:57.437500,-136.84
9:24:57.453125,-195.69
9:24:57.468750,-248.25
9:24:57.484375,-293.90
9:24:57.500000,-332.91
9:24:57.515625,-367.31
9:24:57.531250,-401.09
9:24:57.546875,-439.04
9:24:57.562500,-484.55
9:24:57.578125,-537.08
9:24:57.593750,-590.88
9:24:57.609375,-636.04
9:24:57.625000,-661.73
9:24:57.640625,-660.44
9:24:57.656250,-630.94
9:24:57.671875,-578.58
9:24:57.687500,-512.72
9:24:57.703125,-442.77
9:24:57.718750,-374.91
9:24:57.734375,-311.05
9:24:57.750000,-250.29
9:24:57.765625,-191.31
9:24:57.781250,-134.19
9:24:57.796875,-80.43
9:24:57.812500,-31.74
9:24:57.828125,11.95
9:24:57.843750,53.16
9:24:57.859375,95.98
9:24:57.875000,144.20
9:24:57.890625,199.76
9:24:57.906250,262.06
9:24:57.921875,328.16
9:24:57.937500,393.70
9:24:57.953125,453.64
9:24:57.968750,502.74
9:24:57.984375,535.95
9:24:58,549.27
9:24:58.015625,540.97
9:24:58.031250,512.69
9:24:58.046875,469.58
9:24:58.062500,419.03
9:24:58.078125,368.24
9:24:58.093750,322.10
9:24:58.109375,282.19
9:24:58.125000,247.42
9:24:58.140625,215.78
9:24:58.156250,185.89
9:24:58.171875,157.64
9:24:58.187500,131.63
9:24:58.203125,108.09
9:24:58.218750,86.01
9:24:58.234375,63.55
9:24:58.250000,38.72
9:24:58.265625,10.48
9:24:58.281250,-20.30
9:24:58.296875,-50.98
9:24:58.312500,-78.13
9:24:58.328125,-98.99
9:24:58.343750,-112.59
9:24:58.359375,-120.09
9:24:58.375000,-123.44
9:24:58.390625,-123.93
9:24:58.406250,-121.23
9:24:58.421875,-113.53
9:24:58.437500,-98.89
9:24:58.453125,-76.92
9:24:58.468750,-48.98
9:24:58.484375,-17.59
9:24:58.500000,14.87
9:24:58.515625,47.92
9:24:58.531250,81.87
9:24:58.546875,116.32
9:24:58.562500,148.72
9:24:58.578125,174.46
9:24:58.593750,188.19
9:24:58.609375,187.02
9:24:58.625000,171.56
9:24:58.640625,145.55
9:24:58.656250,115.51
9:24:58.671875,88.07
9:24:58.687500,68.15
9:24:58.703125,58.18
9:24:58.718750,58.00
9:24:58.734375,64.99
9:24:58.750000,76.69
9:24:58.765625,91.06
9:24:58.781250,106.84
9:24:58.796875,124.65
9:24:58.812500,145.25
9:24:58.828125,168.31
9:24:58.843750,191.94
9:24:58.859375,213.33
9:24:58.875000,229.32
9:24:58.890625,239.60
9:24:58.906250,245.66
9:24:58.921875,241.48
9:24:58.937500,222.66
9:24:58.953125,187.49
9:24:58.968750,138.71
9:24:58.984375,82.94
9:24:59,32.82
9:24:59.015625,-9.69
9:24:59.031250,-45.85
9:24:59.046875,-77.20
9:24:59.062500,-104.13
9:24:59.078125,-124.54
9:24:59.093750,-134.23
9:24:59.109375,-129.73
9:24:59.125000,-111.01
9:24:59.140625,-82.72
9:24:59.156250,-53.90
9:24:59.171875,-32.68
9:24:59.187500,-23.66
9:24:59.203125,-26.17
9:24:59.218750,-33.80
9:24:59.234375,-38.32
9:24:59.250000,-34.20
9:24:59.265625,-21.63
9:24:59.281250,-6.53
9:24:59.296875,1.44
9:24:59.312500,-5.39
9:24:59.328125,-30.52
9:24:59.343750,-72.87
9:24:59.359375,-127.76
9:24:59.375000,-189.75
9:24:59.390625,-254.38
9:24:59.406250,-317.71
9:24:59.421875,-374.47
9:24:59.437500,-417.37
9:24:59.453125,-436.92
9:24:59.468750,-425.45
9:24:59.484375,-381.49
9:24:59.500000,-311.55
9:24:59.515625,-229.05
9:24:59.531250,-149.49
9:24:59.546875,-84.56
9:24:59.562500,-38.24
9:24:59.578125,-7.58
9:24:59.593750,14.95
9:24:59.609375,36.68
9:24:59.625000,61.46
9:24:59.640625,89.04
9:24:59.656250,116.44
9:24:59.671875,140.23
9:24:59.687500,158.55
9:24:59.703125,171.89
9:24:59.718750,181.63
9:24:59.734375,189.73
9:24:59.750000,197.06
9:24:59.765625,201.98
9:24:59.781250,200.66
9:24:59.796875,188.74
9:24:59.812500,164.22
9:24:59.828125,129.93
9:24:59.843750,93.42
9:24:59.859375,62.49
9:24:59.875000,42.64
9:24:59.890625,34.20
9:24:59.906250,32.09
9:24:59.921875,28.67
9:24:59.937500,17.22
9:24:59.953125,-5.24
9:24:59.968750,-37.31
9:24:59.984375,-75.28
9:25:00,-117.61
9:25:00.015625,-164.60
9:25:00.031250,-217.58
9:25:00.046875,-277.23
9:25:00.062500,-341.66
9:25:00.078125,-406.36
9:25:00.093750,-465.45
9:25:00.109375,-513.15
9:25:00.125000,-533.05
9:25:00.140625,-514.52
9:25:00.156250,-455.07
9:25:00.171875,-362.56
9:25:00.187500,-252.83
9:25:00.203125,-142.31
9:25:00.218750,-42.34
9:25:00.234375,42.29
9:25:00.250000,111.84
9:25:00.265625,167.42
9:25:00.281250,207.54
9:25:00.296875,230.38
9:25:00.312500,235.22
9:25:00.328125,223.88
9:25:00.343750,200.04
9:25:00.359375,168.06
9:25:00.375000,131.81
9:25:00.390625,94.53
9:25:00.406250,56.78
9:25:00.421875,15.61
9:25:00.437500,-32.92
9:25:00.453125,-88.03
9:25:00.468750,-147.82
9:25:00.484375,-207.96
9:25:00.500000,-262.06
9:25:00.515625,-308.30
9:25:00.531250,-339.47
9:25:00.546875,-349.55
9:25:00.562500,-337.77
9:25:00.578125,-308.58
9:25:00.593750,-270.02
9:25:00.609375,-231.35
9:25:00.625000,-196.26
9:25:00.640625,-167.72
9:25:00.656250,-145.73
9:25:00.671875,-127.44
9:25:00.687500,-110.64
9:25:00.703125,-95.04
9:25:00.718750,-81.37
9:25:00.734375,-70.26
9:25:00.750000,-61.54
9:25:00.765625,-53.59
9:25:00.781250,-44.69
9:25:00.796875,-33.33
9:25:00.812500,-18.56
9:25:00.828125,-1.31
9:25:00.843750,16.19
9:25:00.859375,32.02
9:25:00.875000,45.52
9:25:00.890625,57.28
9:25:00.906250,69.02
9:25:00.921875,82.34
9:25:00.937500,98.40
9:25:00.953125,117.77
9:25:00.968750,139.46
9:25:00.984375,161.76
9:25:01,183.11
9:25:01.015625,202.84
9:25:01.031250,221.21
9:25:01.046875,239.21
9:25:01.062500,257.84
9:25:01.078125,278.24
9:25:01.093750,301.77
9:25:01.109375,329.20
9:25:01.125000,360.16
9:25:01.140625,392.65
9:25:01.156250,422.64
9:25:01.171875,444.56
9:25:01.187500,452.78
9:25:01.203125,443.45
9:25:01.218750,416.14
9:25:01.234375,374.46
9:25:01.250000,324.18
9:25:01.265625,271.40
9:25:01.281250,220.78
9:25:01.296875,175.02
9:25:01.312500,135.23
9:25:01.328125,101.82
9:25:01.343750,74.96
9:25:01.359375,54.57
9:25:01.375000,40.67
9:25:01.390625,32.08
9:25:01.406250,26.70
9:25:01.421875,22.21
9:25:01.437500,16.90
9:25:01.453125,10.37
9:25:01.468750,3.67
9:25:01.484375,-1.36
9:25:01.500000,-2.88
9:25:01.515625,1.31
9:25:01.531250,11.99
9:25:01.546875,28.53
9:25:01.562500,49.51
9:25:01.578125,73.41
9:25:01.593750,99.11
9:25:01.609375,125.95
9:25:01.625000,152.92
9:25:01.640625,177.99
9:25:01.656250,199.44
9:25:01.671875,214.53
9:25:01.687500,220.30
9:25:01.703125,214.55
9:25:01.718750,196.83
9:25:01.734375,168.82
9:25:01.750000,134.24
9:25:01.765625,97.84
9:25:01.781250,54.90
9:25:01.796875,4.50
9:25:01.812500,-51.55
9:25:01.828125,-108.93
9:25:01.843750,-162.52
9:25:01.859375,-208.63
9:25:01.875000,-245.95
9:25:01.890625,-274.90
9:25:01.906250,-296.46
9:25:01.921875,-311.77
9:25:01.937500,-320.66
9:25:01.953125,-323.49
9:25:01.968750,-321.71
9:25:01.984375,-317.87
9:25:02,-314.68
9:25:02.015625,-315.39
9:25:02.031250,-322.34
9:25:02.046875,-336.29
9:25:02.062500,-355.92
9:25:02.078125,-376.28
9:25:02.093750,-390.29
9:25:02.109375,-390.68
9:25:02.125000,-372.47
9:25:02.140625,-334.91
9:25:02.156250,-281.76
9:25:02.171875,-219.51
9:25:02.187500,-154.63
9:25:02.203125,-90.90
9:25:02.218750,-30.87
9:25:02.234375,25.12
9:25:02.250000,77.64
9:25:02.265625,126.99
9:25:02.281250,172.46
9:25:02.296875,212.93
9:25:02.312500,248.09
9:25:02.328125,278.88
9:25:02.343750,307.30
9:25:02.359375,335.92
