10:23:24,-0.00
10:23:24.015625,-0.00
10:23:24.031250,-0.00
10:23:24.046875,-0.00
10:23:24.062500,-0.00
10:23:24.078125,-0.00
10:23:24.093750,-0.00
10:23:24.109375,-0.00
10:23:24.125000,-0.00
10:23:24.140625,-0.00
10:23:24.156250,0.00
10:23:24.171875,0.01
10:23:24.187500,0.01
10:23:24.203125,-0.00
10:23:24.218750,-0.03
10:23:24.234375,-0.05
10:23:24.250000,-0.05
10:23:24.265625,0.00
10:23:24.281250,0.13
10:23:24.296875,0.36
10:23:24.312500,0.66
10:23:24.328125,1.01
10:23:24.343750,1.37
10:23:24.359375,1.72
10:23:24.375000,2.06
10:23:24.390625,2.40
10:23:24.406250,2.79
10:23:24.421875,3.24
10:23:24.437500,3.80
10:23:24.453125,4.42
10:23:24.468750,5.06
10:23:24.484375,5.66
10:23:24.500000,6.20
10:23:24.515625,6.68
10:23:24.531250,7.15
10:23:24.546875,7.68
10:23:24.562500,8.31
10:23:24.578125,9.14
10:23:24.593750,10.09
10:23:24.609375,11.04
10:23:24.625000,11.88
10:23:24.640625,12.56
10:23:24.656250,13.14
10:23:24.671875,13.76
10:23:24.687500,14.65
10:23:24.703125,15.96
10:23:24.718750,17.91
10:23:24.734375,20.32
10:23:24.750000,22.90
10:23:24.765625,25.38
10:23:24.781250,27.58
10:23:24.796875,29.57
10:23:24.812500,31.68
10:23:24.828125,34.32
10:23:24.843750,37.81
10:23:24.859375,42.54
10:23:24.875000,48.15
10:23:24.890625,54.10
10:23:24.906250,59.83
10:23:24.921875,64.97
10:23:24.937500,69.58
10:23:24.953125,74.14
10:23:24.968750,79.34
10:23:24.984375,85.71
10:23:25,93.76
10:23:25.015625,103.00
10:23:25.031250,112.62
10:23:25.046875,121.73
10:23:25.062500,129.77
10:23:25.078125,136.75
10:23:25.093750,143.30
10:23:25.109375,150.75
10:23:25.125000,157.77
10:23:25.140625,166.64
10:23:25.156250,177.95
10:23:25.171875,191.79
10:23:25.187500,206.97
10:23:25.203125,220.57
10:23:25.218750,228.25
10:23:25.234375,225.36
10:23:25.250000,208.53
10:23:25.265625,176.87
10:23:25.281250,132.76
10:23:25.296875,80.05
10:23:25.312500,23.07
10:23:25.328125,-34.94
10:23:25.343750,-92.44
10:23:25.359375,-149.16
10:23:25.375000,-205.23
10:23:25.390625,-260.37
10:23:25.406250,-313.74
10:23:25.421875,-363.87
10:23:25.437500,-409.83
10:23:25.453125,-450.91
10:23:25.468750,-486.50
10:23:25.484375,-515.74
10:23:25.500000,-537.23
10:23:25.515625,-549.22
10:23:25.531250,-549.96
10:23:25.546875,-538.37
10:23:25.562500,-514.21
10:23:25.578125,-478.67
10:23:25.593750,-433.88
10:23:25.609375,-382.45
10:23:25.625000,-327.02
10:23:25.640625,-269.84
10:23:25.656250,-212.63
10:23:25.671875,-156.66
10:23:25.687500,-102.95
10:23:25.703125,-52.37
10:23:25.718750,-5.90
10:23:25.734375,35.58
10:23:25.750000,71.43
10:23:25.765625,101.35
10:23:25.781250,125.50
10:23:25.796875,144.38
10:23:25.812500,158.69
10:23:25.828125,169.15
10:23:25.843750,176.37
10:23:25.859375,180.75
10:23:25.875000,182.57
10:23:25.890625,182.07
10:23:25.906250,179.51
10:23:25.921875,175.23
10:23:25.937500,169.65
10:23:25.953125,163.18
10:23:25.968750,156.15
10:23:25.984375,148.81
10:23:26,141.30
10:23:26.015625,133.69
10:23:26.031250,126.02
10:23:26.046875,118.33
10:23:26.062500,110.69
10:23:26.078125,103.16
10:23:26.093750,95.80
10:23:26.109375,88.68
10:23:26.125000,81.83
10:23:26.140625,75.25
10:23:26.156250,68.95
10:23:26.171875,62.95
10:23:26.187500,57.25
10:23:26.203125,51.86
10:23:26.218750,46.78
10:23:26.234375,42.03
10:23:26.250000,37.59
10:23:26.265625,33.45
10:23:26.281250,29.61
10:23:26.296875,26.07
10:23:26.312500,22.81
10:23:26.328125,19.83
10:23:26.343750,17.11
10:23:26.359375,14.67
10:23:26.375000,12.48
10:23:26.390625,10.54
10:23:26.406250,8.83
10:23:26.421875,7.35
10:23:26.437500,6.06
10:23:26.453125,4.97
10:23:26.468750,4.05
10:23:26.484375,3.28
10:23:26.500000,2.65
10:23:26.515625,2.12
10:23:26.531250,1.66
10:23:26.546875,1.26
10:23:26.562500,0.90
10:23:26.578125,0.60
10:23:26.593750,0.34
10:23:26.609375,0.15
10:23:26.625000,0.01
10:23:26.640625,-0.08
10:23:26.656250,-0.14
10:23:26.671875,-0.21
10:23:26.687500,-0.29
10:23:26.703125,-0.39
10:23:26.718750,-0.49
10:23:26.734375,-0.56
10:23:26.750000,-0.60
10:23:26.765625,-0.59
10:23:26.781250,-0.56
10:23:26.796875,-0.53
10:23:26.812500,-0.55
10:23:26.828125,-0.64
10:23:26.843750,-0.79
10:23:26.859375,-0.97
10:23:26.875000,-1.11
10:23:26.890625,-1.17
10:23:26.906250,-1.14
10:23:26.921875,-1.05
10:23:26.937500,-1.00
10:23:26.953125,-1.09
10:23:26.968750,-1.37
10:23:26.984375,-1.83
10:23:27,-2.36
10:23:27.015625,-2.82
10:23:27.031250,-3.07
10:23:27.046875,-3.08
10:23:27.062500,-2.95
10:23:27.078125,-2.87
10:23:27.093750,-3.05
10:23:27.109375,-3.61
10:23:27.125000,-4.51
10:23:27.140625,-5.55
10:23:27.156250,-6.44
10:23:27.171875,-6.95
10:23:27.187500,-7.01
10:23:27.203125,-6.78
10:23:27.218750,-6.57
10:23:27.234375,-6.75
10:23:27.250000,-7.51
10:23:27.265625,-8.80
10:23:27.281250,-10.31
10:23:27.296875,-11.60
10:23:27.312500,-12.38
10:23:27.328125,-12.52
10:23:27.343750,-12.21
10:23:27.359375,-11.77
10:23:27.375000,-11.56
10:23:27.390625,-11.87
10:23:27.406250,-12.91
10:23:27.421875,-14.84
10:23:27.437500,-17.58
10:23:27.453125,-20.56
10:23:27.468750,-22.61
10:23:27.484375,-22.17
10:23:27.500000,-17.83
10:23:27.515625,-9.18
10:23:27.531250,2.94
10:23:27.546875,16.52
10:23:27.562500,29.26
10:23:27.578125,39.36
10:23:27.593750,46.21
10:23:27.609375,50.22
10:23:27.625000,52.33
10:23:27.640625,53.27
10:23:27.656250,53.21
10:23:27.671875,51.96
10:23:27.687500,49.35
10:23:27.703125,45.54
10:23:27.718750,41.05
10:23:27.734375,36.58
10:23:27.750000,32.24
10:23:27.765625,27.90
10:23:27.781250,23.23
10:23:27.796875,17.94
10:23:27.812500,11.94
10:23:27.828125,5.59
10:23:27.843750,-0.55
10:23:27.859375,-5.89
10:23:27.875000,-10.04
10:23:27.890625,-12.90
10:23:27.906250,-14.62
10:23:27.921875,-15.52
10:23:27.937500,-15.95
10:23:27.953125,-16.16
10:23:27.968750,-16.29
10:23:27.984375,-16.33
10:23:28,-16.16
10:23:28.015625,-15.66
10:23:28.031250,-14.77
10:23:28.046875,-13.58
10:23:28.062500,-12.38
10:23:28.078125,-11.51
10:23:28.093750,-11.24
10:23:28.109375,-11.58
10:23:28.125000,-12.28
10:23:28.140625,-12.89
10:23:28.156250,-13.04
10:23:28.171875,-12.58
10:23:28.187500,-11.68
10:23:28.203125,-10.70
10:23:28.218750,-10.05
10:23:28.234375,-9.97
10:23:28.250000,-10.52
10:23:28.265625,-11.52
10:23:28.281250,-12.63
10:23:28.296875,-13.39
10:23:28.312500,-13.31
10:23:28.328125,-11.91
10:23:28.343750,-8.96
10:23:28.359375,-4.57
10:23:28.375000,0.74
10:23:28.390625,6.18
10:23:28.406250,10.93
10:23:28.421875,14.33
10:23:28.437500,16.08
10:23:28.453125,16.26
10:23:28.468750,15.16
10:23:28.484375,13.26
10:23:28.500000,11.07
10:23:28.515625,9.09
10:23:28.531250,7.69
10:23:28.546875,7.09
10:23:28.562500,7.26
10:23:28.578125,7.93
10:23:28.593750,8.69
10:23:28.609375,9.06
10:23:28.625000,8.76
10:23:28.640625,7.72
10:23:28.656250,6.17
10:23:28.671875,4.53
10:23:28.687500,3.29
10:23:28.703125,2.81
10:23:28.718750,3.30
10:23:28.734375,4.82
10:23:28.750000,7.09
10:23:28.765625,9.66
10:23:28.781250,12.06
10:23:28.796875,13.86
10:23:28.812500,14.82
10:23:28.828125,14.80
10:23:28.843750,13.72
10:23:28.859375,11.59
10:23:28.875000,8.49
10:23:28.890625,4.70
10:23:28.906250,0.60
10:23:28.921875,-3.27
10:23:28.937500,-6.44
10:23:28.953125,-8.68
10:23:28.968750,-10.12
10:23:28.984375,-11.13
10:23:29,-12.25
10:23:29.015625,-13.83
10:23:29.031250,-15.95
10:23:29.046875,-18.40
10:23:29.062500,-20.79
10:23:29.078125,-22.90
10:23:29.093750,-24.71
10:23:29.109375,-26.48
10:23:29.125000,-28.46
10:23:29.140625,-30.62
10:23:29.156250,-32.47
10:23:29.171875,-33.27
10:23:29.187500,-32.32
10:23:29.203125,-29.38
10:23:29.218750,-24.80
10:23:29.234375,-19.36
10:23:29.250000,-13.92
10:23:29.265625,-8.97
10:23:29.281250,-4.51
10:23:29.296875,-0.20
10:23:29.312500,4.31
10:23:29.328125,9.05
10:23:29.343750,13.72
10:23:29.359375,17.81
10:23:29.375000,20.93
10:23:29.390625,23.04
10:23:29.406250,24.39
10:23:29.421875,25.41
10:23:29.437500,26.40
10:23:29.453125,27.39
10:23:29.468750,28.20
10:23:29.484375,28.62
10:23:29.500000,28.54
10:23:29.515625,28.03
10:23:29.531250,27.28
10:23:29.546875,26.42
10:23:29.562500,25.48
10:23:29.578125,24.30
10:23:29.593750,22.76
10:23:29.609375,20.80
10:23:29.625000,18.53
10:23:29.640625,16.12
10:23:29.656250,13.77
10:23:29.671875,11.57
10:23:29.687500,9.46
10:23:29.703125,7.40
10:23:29.718750,5.28
10:23:29.734375,3.08
10:23:29.750000,0.80
10:23:29.765625,-1.55
10:23:29.781250,-3.92
10:23:29.796875,-6.30
10:23:29.812500,-8.67
10:23:29.828125,-11.01
10:23:29.843750,-13.38
10:23:29.859375,-15.87
10:23:29.875000,-18.56
10:23:29.890625,-21.49
10:23:29.906250,-24.56
10:23:29.921875,-27.56
10:23:29.937500,-30.12
10:23:29.953125,-31.80
10:23:29.968750,-32.22
10:23:29.984375,-31.10
10:23:30,-28.40
10:23:30.015625,-24.35
10:23:30.031250,-19.37
10:23:30.046875,-14.04
10:23:30.062500,-8.83
10:23:30.078125,-4.06
10:23:30.093750,0.21
10:23:30.109375,4.08
10:23:30.125000,7.69
10:23:30.140625,10.99
10:23:30.156250,13.75
10:23:30.171875,15.60
10:23:30.187500,16.30
10:23:30.203125,15.88
10:23:30.218750,14.68
10:23:30.234375,13.25
10:23:30.250000,12.08
10:23:30.265625,11.41
10:23:30.281250,11.15
10:23:30.296875,11.00
10:23:30.312500,10.66
10:23:30.328125,9.99
10:23:30.343750,9.11
10:23:30.359375,8.24
10:23:30.375000,7.55
10:23:30.390625,7.02
10:23:30.406250,6.46
10:23:30.421875,5.62
10:23:30.437500,4.35
10:23:30.453125,2.67
10:23:30.468750,0.71
10:23:30.484375,-1.36
10:23:30.500000,-3.45
10:23:30.515625,-5.55
10:23:30.531250,-7.78
10:23:30.546875,-10.23
10:23:30.562500,-12.95
10:23:30.578125,-15.91
10:23:30.593750,-19.07
10:23:30.609375,-22.39
10:23:30.625000,-25.80
10:23:30.640625,-29.14
10:23:30.656250,-32.09
10:23:30.671875,-34.16
10:23:30.687500,-34.81
10:23:30.703125,-33.64
10:23:30.718750,-30.54
10:23:30.734375,-25.77
10:23:30.750000,-19.89
10:23:30.765625,-13.57
10:23:30.781250,-7.40
10:23:30.796875,-1.76
10:23:30.812500,3.24
10:23:30.828125,7.59
10:23:30.843750,11.34
10:23:30.859375,14.41
10:23:30.875000,16.62
10:23:30.890625,17.74
10:23:30.906250,17.65
10:23:30.921875,16.49
10:23:30.937500,14.63
10:23:30.953125,12.61
10:23:30.968750,10.90
10:23:30.984375,9.81
10:23:31,9.31
10:23:31.015625,9.17
10:23:31.031250,9.08
10:23:31.046875,8.87
10:23:31.062500,8.50
10:23:31.078125,8.13
10:23:31.093750,7.87
10:23:31.109375,7.74
10:23:31.125000,7.58
10:23:31.140625,7.12
10:23:31.156250,6.12
10:23:31.171875,4.45
10:23:31.187500,2.18
10:23:31.203125,-0.46
10:23:31.218750,-3.18
10:23:31.234375,-5.74
10:23:31.250000,-8.08
10:23:31.265625,-10.28
10:23:31.281250,-12.59
10:23:31.296875,-15.27
10:23:31.312500,-18.53
10:23:31.328125,-22.42
10:23:31.343750,-26.79
10:23:31.359375,-31.26
10:23:31.375000,-35.21
10:23:31.390625,-37.94
10:23:31.406250,-38.76
10:23:31.421875,-37.27
10:23:31.437500,-33.45
10:23:31.453125,-27.76
10:23:31.468750,-20.99
10:23:31.484375,-14.03
10:23:31.500000,-7.63
10:23:31.515625,-2.21
10:23:31.531250,2.19
10:23:31.546875,5.81
10:23:31.562500,8.96
10:23:31.578125,11.84
10:23:31.593750,14.45
10:23:31.609375,16.62
10:23:31.625000,18.16
10:23:31.640625,18.95
10:23:31.656250,19.00
10:23:31.671875,18.44
10:23:31.687500,17.50
10:23:31.703125,16.39
10:23:31.718750,15.33
10:23:31.734375,14.44
10:23:31.750000,13.80
10:23:31.765625,13.40
10:23:31.781250,13.24
10:23:31.796875,13.25
10:23:31.812500,13.39
10:23:31.828125,13.57
10:23:31.843750,13.62
10:23:31.859375,13.34
10:23:31.875000,12.49
10:23:31.890625,10.95
10:23:31.906250,8.71
10:23:31.921875,5.94
10:23:31.937500,2.89
10:23:31.953125,-0.18
10:23:31.968750,-3.11
10:23:31.984375,-5.89
10:23:32,-8.62
10:23:32.015625,-11.49
10:23:32.031250,-14.70
10:23:32.046875,-18.43
10:23:32.062500,-22.71
10:23:32.078125,-27.34
10:23:32.093750,-31.85
10:23:32.109375,-35.51
10:23:32.125000,-37.54
10:23:32.140625,-37.39
10:23:32.156250,-34.92
10:23:32.171875,-30.44
10:23:32.187500,-24.63
10:23:32.203125,-18.27
10:23:32.218750,-12.05
10:23:32.234375,-6.43
10:23:32.250000,-1.59
10:23:32.265625,2.43
10:23:32.281250,5.72
10:23:32.296875,8.34
10:23:32.312500,10.36
10:23:32.328125,11.79
10:23:32.343750,12.64
10:23:32.359375,12.90
10:23:32.375000,12.60
10:23:32.390625,11.79
10:23:32.406250,10.56
10:23:32.421875,9.01
10:23:32.437500,7.22
10:23:32.453125,5.30
10:23:32.468750,3.37
10:23:32.484375,1.53
10:23:32.500000,-0.09
10:23:32.515625,-1.48
10:23:32.531250,-2.68
10:23:32.546875,-3.87
10:23:32.562500,-5.23
10:23:32.578125,-6.87
10:23:32.593750,-8.76
10:23:32.609375,-10.72
10:23:32.625000,-12.52
10:23:32.640625,-13.94
10:23:32.656250,-14.79
10:23:32.671875,-14.93
10:23:32.687500,-14.26
10:23:32.703125,-12.71
10:23:32.718750,-10.28
10:23:32.734375,-7.13
10:23:32.750000,-3.52
10:23:32.765625,0.22
10:23:32.781250,3.77
10:23:32.796875,6.94
10:23:32.812500,9.61
10:23:32.828125,11.69
10:23:32.843750,13.04
10:23:32.859375,13.42
10:23:32.875000,12.56
10:23:32.890625,10.26
10:23:32.906250,6.53
10:23:32.921875,1.76
10:23:32.937500,-3.33
10:23:32.953125,-7.83
10:23:32.968750,-10.79
10:23:32.984375,-11.54
10:23:33,-9.88
10:23:33.015625,-6.08
10:23:33.031250,-0.84
10:23:33.046875,4.93
10:23:33.062500,10.40
10:23:33.078125,15.03
10:23:33.093750,18.65
10:23:33.109375,21.42
10:23:33.125000,23.68
10:23:33.140625,25.70
10:23:33.156250,27.62
10:23:33.171875,29.37
10:23:33.187500,30.82
10:23:33.203125,31.83
10:23:33.218750,32.31
10:23:33.234375,32.29
10:23:33.250000,31.80
10:23:33.265625,30.90
10:23:33.281250,29.67
10:23:33.296875,28.25
10:23:33.312500,26.80
10:23:33.328125,25.56
10:23:33.343750,24.66
10:23:33.359375,24.14
10:23:33.375000,23.85
10:23:33.390625,23.59
10:23:33.406250,23.14
10:23:33.421875,22.40
10:23:33.437500,21.38
10:23:33.453125,20.11
10:23:33.468750,18.65
10:23:33.484375,16.95
10:23:33.500000,15.01
10:23:33.515625,12.81
10:23:33.531250,10.41
10:23:33.546875,7.85
10:23:33.562500,5.24
10:23:33.578125,2.60
10:23:33.593750,-0.01
10:23:33.609375,-2.54
10:23:33.625000,-4.93
10:23:33.640625,-7.13
10:23:33.656250,-9.09
10:23:33.671875,-10.86
10:23:33.687500,-12.52
10:23:33.703125,-14.17
10:23:33.718750,-15.83
10:23:33.734375,-17.52
10:23:33.750000,-19.25
10:23:33.765625,-21.17
10:23:33.781250,-23.49
10:23:33.796875,-26.44
10:23:33.812500,-30.09
10:23:33.828125,-34.20
10:23:33.843750,-38.20
10:23:33.859375,-41.30
10:23:33.875000,-42.67
10:23:33.890625,-41.72
10:23:33.906250,-38.29
10:23:33.921875,-32.76
10:23:33.937500,-25.89
10:23:33.953125,-18.67
10:23:33.968750,-11.99
10:23:33.984375,-6.35
10:23:34,-1.79
10:23:34.015625,1.96
10:23:34.031250,5.32
10:23:34.046875,8.52
10:23:34.062500,11.51
10:23:34.078125,14.03
10:23:34.093750,15.82
10:23:34.109375,16.80
10:23:34.125000,17.15
10:23:34.140625,17.25
10:23:34.156250,17.42
10:23:34.171875,17.80
10:23:34.187500,18.37
10:23:34.203125,18.96
10:23:34.218750,19.45
10:23:34.234375,19.76
10:23:34.250000,19.90
10:23:34.265625,19.80
10:23:34.281250,19.35
10:23:34.296875,18.42
10:23:34.312500,16.99
10:23:34.328125,15.21
10:23:34.343750,13.34
10:23:34.359375,11.66
10:23:34.375000,10.28
10:23:34.390625,9.10
10:23:34.406250,7.84
10:23:34.421875,6.21
10:23:34.437500,3.99
10:23:34.453125,1.17
10:23:34.468750,-2.10
10:23:34.484375,-5.55
10:23:34.500000,-8.96
10:23:34.515625,-12.17
10:23:34.531250,-15.18
10:23:34.546875,-18.10
10:23:34.562500,-21.07
10:23:34.578125,-24.13
10:23:34.593750,-27.13
10:23:34.609375,-29.74
10:23:34.625000,-31.55
10:23:34.640625,-32.25
10:23:34.656250,-31.80
10:23:34.671875,-30.45
10:23:34.687500,-28.57
10:23:34.703125,-26.45
10:23:34.718750,-24.20
10:23:34.734375,-21.71
10:23:34.750000,-18.83
10:23:34.765625,-15.59
10:23:34.781250,-12.25
10:23:34.796875,-9.29
10:23:34.812500,-7.19
10:23:34.828125,-6.22
10:23:34.843750,-6.37
10:23:34.859375,-7.43
10:23:34.875000,-9.15
10:23:34.890625,-11.37
10:23:34.906250,-13.95
10:23:34.921875,-16.58
10:23:34.937500,-18.63
10:23:34.953125,-19.29
10:23:34.968750,-17.96
10:23:34.984375,-14.66
10:23:35,-10.24
10:23:35.015625,-6.11
10:23:35.031250,-3.73
10:23:35.046875,-3.96
10:23:35.062500,-6.87
10:23:35.078125,-11.76
10:23:35.093750,-17.54
10:23:35.109375,-23.03
10:23:35.125000,-27.15
10:23:35.140625,-28.76
10:23:35.156250,-26.78
10:23:35.171875,-20.31
10:23:35.187500,-9.15
10:23:35.203125,5.88
10:23:35.218750,22.88
10:23:35.234375,39.23
10:23:35.250000,52.32
10:23:35.265625,60.27
10:23:35.281250,62.40
10:23:35.296875,59.20
10:23:35.312500,52.06
10:23:35.328125,42.78
10:23:35.343750,33.14
10:23:35.359375,24.58
10:23:35.375000,18.09
10:23:35.390625,14.24
10:23:35.406250,13.21
10:23:35.421875,14.85
10:23:35.437500,18.75
10:23:35.453125,24.25
10:23:35.468750,30.55
10:23:35.484375,36.82
10:23:35.500000,42.33
10:23:35.515625,46.54
10:23:35.531250,49.18
10:23:35.546875,50.18
10:23:35.562500,49.65
10:23:35.578125,47.83
10:23:35.593750,45.00
10:23:35.609375,41.54
10:23:35.625000,37.86
10:23:35.640625,34.33
10:23:35.656250,31.22
10:23:35.671875,28.60
10:23:35.687500,26.33
10:23:35.703125,24.16
10:23:35.718750,21.88
10:23:35.734375,19.48
10:23:35.750000,17.14
10:23:35.765625,15.06
10:23:35.781250,13.32
10:23:35.796875,11.77
10:23:35.812500,10.06
10:23:35.828125,7.90
10:23:35.843750,5.10
10:23:35.859375,1.77
10:23:35.875000,-1.85
10:23:35.890625,-5.49
10:23:35.906250,-8.96
10:23:35.921875,-12.20
10:23:35.937500,-15.20
10:23:35.953125,-18.01
10:23:35.968750,-20.70
10:23:35.984375,-23.40
10:23:36,-26.29
10:23:36.015625,-29.54
10:23:36.031250,-33.20
10:23:36.046875,-37.06
10:23:36.062500,-40.64
10:23:36.078125,-43.24
10:23:36.093750,-44.19
10:23:36.109375,-43.01
10:23:36.125000,-39.61
10:23:36.140625,-34.35
10:23:36.156250,-27.90
10:23:36.171875,-21.10
10:23:36.187500,-14.70
10:23:36.203125,-9.16
10:23:36.218750,-4.57
10:23:36.234375,-0.78
10:23:36.250000,2.51
10:23:36.265625,5.49
10:23:36.281250,8.16
10:23:36.296875,10.35
10:23:36.312500,11.89
10:23:36.328125,12.74
10:23:36.343750,13.07
10:23:36.359375,13.17
10:23:36.375000,13.31
10:23:36.390625,13.62
10:23:36.406250,14.00
10:23:36.421875,14.29
10:23:36.437500,14.38
10:23:36.453125,14.30
10:23:36.468750,14.24
10:23:36.484375,14.36
10:23:36.500000,14.69
10:23:36.515625,15.05
10:23:36.531250,15.14
10:23:36.546875,14.62
10:23:36.562500,13.32
10:23:36.578125,11.32
10:23:36.593750,8.87
10:23:36.609375,6.31
10:23:36.625000,3.89
10:23:36.640625,1.70
10:23:36.656250,-0.33
10:23:36.671875,-2.38
10:23:36.687500,-4.60
10:23:36.703125,-7.00
10:23:36.718750,-9.42
10:23:36.734375,-11.65
10:23:36.750000,-13.50
10:23:36.765625,-14.99
10:23:36.781250,-16.35
10:23:36.796875,-17.90
10:23:36.812500,-19.95
10:23:36.828125,-22.63
10:23:36.843750,-25.87
10:23:36.859375,-29.47
10:23:36.875000,-33.18
10:23:36.890625,-36.74
10:23:36.906250,-39.86
10:23:36.921875,-42.21
10:23:36.937500,-43.35
10:23:36.953125,-42.88
10:23:36.968750,-40.57
10:23:36.984375,-36.45
10:23:37,-30.85
10:23:37.015625,-24.35
10:23:37.031250,-17.57
10:23:37.046875,-11.04
10:23:37.062500,-5.12
10:23:37.078125,-0.01
10:23:37.093750,4.19
10:23:37.109375,7.48
10:23:37.125000,9.96
10:23:37.140625,11.83
10:23:37.156250,13.33
10:23:37.171875,14.69
10:23:37.187500,16.03
10:23:37.203125,17.34
10:23:37.218750,18.47
10:23:37.234375,19.29
10:23:37.250000,19.69
10:23:37.265625,19.69
10:23:37.281250,19.37
10:23:37.296875,18.92
10:23:37.312500,18.51
10:23:37.328125,18.30
10:23:37.343750,18.30
10:23:37.359375,18.40
10:23:37.375000,18.34
10:23:37.390625,17.85
10:23:37.406250,16.78
10:23:37.421875,15.13
10:23:37.437500,13.14
10:23:37.453125,11.07
10:23:37.468750,9.15
10:23:37.484375,7.42
10:23:37.500000,5.76
10:23:37.515625,4.00
10:23:37.531250,1.98
10:23:37.546875,-0.32
10:23:37.562500,-2.87
10:23:37.578125,-5.54
10:23:37.593750,-8.28
10:23:37.609375,-11.03
10:23:37.625000,-13.78
10:23:37.640625,-16.54
10:23:37.656250,-19.31
10:23:37.671875,-22.13
10:23:37.687500,-25.03
10:23:37.703125,-28.01
10:23:37.718750,-30.99
10:23:37.734375,-33.77
10:23:37.750000,-35.96
10:23:37.765625,-37.10
10:23:37.781250,-36.73
10:23:37.796875,-34.58
10:23:37.812500,-30.71
10:23:37.828125,-25.44
10:23:37.843750,-19.38
10:23:37.859375,-13.15
10:23:37.875000,-7.26
10:23:37.890625,-1.99
10:23:37.906250,2.60
10:23:37.921875,6.59
10:23:37.937500,10.09
10:23:37.953125,13.15
10:23:37.968750,15.75
10:23:37.984375,17.81
10:23:38,19.26
10:23:38.015625,20.09
10:23:38.031250,20.36
10:23:38.046875,20.19
10:23:38.062500,19.69
10:23:38.078125,19.05
10:23:38.093750,18.38
10:23:38.109375,17.84
10:23:38.125000,17.48
10:23:38.140625,17.34
10:23:38.156250,17.39
10:23:38.171875,17.53
10:23:38.187500,17.62
10:23:38.203125,17.47
10:23:38.218750,16.92
10:23:38.234375,15.87
10:23:38.250000,14.32
10:23:38.265625,12.40
10:23:38.281250,10.27
10:23:38.296875,8.13
10:23:38.312500,6.02
10:23:38.328125,3.94
10:23:38.343750,1.80
10:23:38.359375,-0.48
10:23:38.375000,-2.90
10:23:38.390625,-5.38
10:23:38.406250,-7.80
10:23:38.421875,-10.07
10:23:38.437500,-12.18
10:23:38.453125,-14.17
10:23:38.468750,-16.22
10:23:38.484375,-18.56
10:23:38.500000,-21.47
10:23:38.515625,-25.12
10:23:38.531250,-29.45
10:23:38.546875,-34.08
10:23:38.562500,-38.32
10:23:38.578125,-41.36
10:23:38.593750,-42.54
10:23:38.609375,-41.62
10:23:38.625000,-38.82
10:23:38.640625,-34.72
10:23:38.656250,-30.04
10:23:38.671875,-25.42
10:23:38.687500,-21.26
10:23:38.703125,-17.77
10:23:38.718750,-15.03
10:23:38.734375,-13.02
10:23:38.750000,-11.71
10:23:38.765625,-11.06
10:23:38.781250,-11.06
10:23:38.796875,-11.76
10:23:38.812500,-13.23
10:23:38.828125,-15.51
10:23:38.843750,-18.54
10:23:38.859375,-22.12
10:23:38.875000,-26.00
10:23:38.890625,-29.98
10:23:38.906250,-33.94
10:23:38.921875,-37.86
10:23:38.937500,-41.79
10:23:38.953125,-45.75
10:23:38.968750,-49.78
10:23:38.984375,-53.95
10:23:39,-58.40
10:23:39.015625,-63.24
10:23:39.031250,-68.49
10:23:39.046875,-74.03
10:23:39.062500,-79.41
10:23:39.078125,-83.90
10:23:39.093750,-86.87
10:23:39.109375,-87.85
10:23:39.125000,-86.80
10:23:39.140625,-83.99
10:23:39.156250,-79.82
10:23:39.171875,-74.65
10:23:39.187500,-68.79
10:23:39.203125,-62.28
10:23:39.218750,-54.81
10:23:39.234375,-45.86
10:23:39.250000,-34.95
10:23:39.265625,-21.87
10:23:39.281250,-6.96
10:23:39.296875,9.01
10:23:39.312500,24.80
10:23:39.328125,38.76
10:23:39.343750,49.73
10:23:39.359375,57.44
10:23:39.375000,62.41
10:23:39.390625,65.66
10:23:39.406250,68.30
10:23:39.421875,71.11
10:23:39.437500,74.71
10:23:39.453125,79.16
10:23:39.468750,83.35
10:23:39.484375,86.37
10:23:39.500000,88.06
10:23:39.515625,88.47
10:23:39.531250,87.80
10:23:39.546875,86.22
10:23:39.562500,83.84
10:23:39.578125,81.52
10:23:39.593750,80.01
10:23:39.609375,78.30
10:23:39.625000,75.92
10:23:39.640625,73.46
10:23:39.656250,71.44
10:23:39.671875,70.10
10:23:39.687500,69.41
10:23:39.703125,69.01
10:23:39.718750,69.68
10:23:39.734375,71.86
10:23:39.750000,72.91
10:23:39.765625,70.71
10:23:39.781250,64.79
10:23:39.796875,54.95
10:23:39.812500,41.60
10:23:39.828125,25.99
10:23:39.843750,10.19
10:23:39.859375,-1.50
10:23:39.875000,-5.17
10:23:39.890625,-1.66
10:23:39.906250,7.66
10:23:39.921875,22.14
10:23:39.937500,40.24
10:23:39.953125,60.30
10:23:39.968750,81.12
10:23:39.984375,91.25
10:23:40,83.17
10:23:40.015625,73.67
10:23:40.031250,70.33
10:23:40.046875,68.34
10:23:40.062500,65.73
10:23:40.078125,61.23
10:23:40.093750,54.54
10:23:40.109375,46.22
10:23:40.125000,37.23
10:23:40.140625,30.16
10:23:40.156250,26.80
10:23:40.171875,24.47
10:23:40.187500,20.91
10:23:40.203125,15.97
10:23:40.218750,9.82
10:23:40.234375,2.98
10:23:40.250000,-3.76
10:23:40.265625,-9.72
10:23:40.281250,-13.19
10:23:40.296875,-13.16
10:23:40.312500,-11.93
10:23:40.328125,-11.31
10:23:40.343750,-11.31
10:23:40.359375,-11.65
10:23:40.375000,-11.89
10:23:40.390625,-11.75
10:23:40.406250,-11.41
10:23:40.421875,-10.64
10:23:40.437500,-9.58
10:23:40.453125,-9.99
10:23:40.468750,-12.66
10:23:40.484375,-16.73
10:23:40.500000,-21.09
10:23:40.515625,-24.85
10:23:40.531250,-27.79
10:23:40.546875,-30.38
10:23:40.562500,-32.99
10:23:40.578125,-35.84
10:23:40.593750,-39.42
10:23:40.609375,-43.44
10:23:40.625000,-46.86
10:23:40.640625,-48.92
10:23:40.656250,-49.49
10:23:40.671875,-49.13
10:23:40.687500,-48.74
10:23:40.703125,-48.96
10:23:40.718750,-49.98
10:23:40.734375,-51.77
10:23:40.750000,-53.88
10:23:40.765625,-55.61
10:23:40.781250,-56.53
10:23:40.796875,-56.57
10:23:40.812500,-55.86
10:23:40.828125,-54.53
10:23:40.843750,-52.56
10:23:40.859375,-49.76
10:23:40.875000,-46.01
10:23:40.890625,-41.48
10:23:40.906250,-36.74
10:23:40.921875,-32.63
10:23:40.937500,-30.02
10:23:40.953125,-29.36
10:23:40.968750,-30.54
10:23:40.984375,-32.87
10:23:41,-35.40
10:23:41.015625,-37.19
10:23:41.031250,-37.65
10:23:41.046875,-36.65
10:23:41.062500,-34.48
10:23:41.078125,-31.70
10:23:41.093750,-28.86
10:23:41.109375,-26.36
10:23:41.125000,-24.26
10:23:41.140625,-22.34
10:23:41.156250,-20.19
10:23:41.171875,-17.45
10:23:41.187500,-13.90
10:23:41.203125,-9.63
10:23:41.218750,-4.95
10:23:41.234375,-0.35
10:23:41.250000,3.72
10:23:41.265625,6.95
10:23:41.281250,9.20
10:23:41.296875,10.57
10:23:41.312500,11.23
10:23:41.328125,11.41
10:23:41.343750,11.31
10:23:41.359375,11.02
10:23:41.375000,10.60
10:23:41.390625,10.08
10:23:41.406250,9.50
10:23:41.421875,8.89
10:23:41.437500,8.26
10:23:41.453125,7.52
10:23:41.468750,6.59
10:23:41.484375,5.47
10:23:41.500000,4.29
10:23:41.515625,3.36
10:23:41.531250,2.98
10:23:41.546875,3.26
10:23:41.562500,3.94
10:23:41.578125,4.51
10:23:41.593750,4.36
10:23:41.609375,3.07
10:23:41.625000,0.60
10:23:41.640625,-2.77
10:23:41.656250,-6.55
10:23:41.671875,-10.25
10:23:41.687500,-13.44
10:23:41.703125,-15.72
10:23:41.718750,-16.70
10:23:41.734375,-16.08
10:23:41.750000,-13.71
10:23:41.765625,-9.76
10:23:41.781250,-4.76
10:23:41.796875,0.56
10:23:41.812500,5.45
10:23:41.828125,9.36
10:23:41.843750,12.10
10:23:41.859375,13.90
10:23:41.875000,15.35
10:23:41.890625,17.23
10:23:41.906250,20.25
10:23:41.921875,24.78
10:23:41.937500,30.74
10:23:41.953125,37.57
10:23:41.968750,44.50
10:23:41.984375,50.89
10:23:42,56.42
10:23:42.015625,61.12
10:23:42.031250,65.15
10:23:42.046875,68.57
10:23:42.062500,71.10
10:23:42.078125,72.35
10:23:42.093750,71.97
10:23:42.109375,70.05
10:23:42.125000,67.22
10:23:42.140625,64.60
10:23:42.156250,63.48
10:23:42.171875,64.95
10:23:42.187500,69.57
10:23:42.203125,77.22
10:23:42.218750,87.13
10:23:42.234375,98.07
10:23:42.250000,108.74
10:23:42.265625,118.10
10:23:42.281250,125.52
10:23:42.296875,130.78
10:23:42.312500,133.89
10:23:42.328125,134.82
10:23:42.343750,133.53
10:23:42.359375,130.01
10:23:42.375000,124.53
10:23:42.390625,117.70
10:23:42.406250,110.45
10:23:42.421875,103.79
10:23:42.437500,98.58
10:23:42.453125,95.38
10:23:42.468750,94.28
10:23:42.484375,94.83
10:23:42.500000,95.84
10:23:42.515625,95.21
10:23:42.531250,90.14
10:23:42.546875,77.74
10:23:42.562500,56.31
10:23:42.578125,26.61
10:23:42.593750,-7.45
10:23:42.609375,-39.35
10:23:42.625000,-62.08
10:23:42.640625,-70.82
10:23:42.656250,-65.17
10:23:42.671875,-49.43
10:23:42.687500,-30.93
10:23:42.703125,-17.19
10:23:42.718750,-13.13
10:23:42.734375,-19.82
10:23:42.750000,-34.86
10:23:42.765625,-53.77
10:23:42.781250,-71.68
10:23:42.796875,-84.53
10:23:42.812500,-89.81
10:23:42.828125,-86.87
10:23:42.843750,-76.90
10:23:42.859375,-62.74
10:23:42.875000,-48.54
10:23:42.890625,-39.05
10:23:42.906250,-38.67
10:23:42.921875,-49.98
10:23:42.937500,-72.30
10:23:42.953125,-100.86
10:23:42.968750,-127.60
10:23:42.984375,-143.64
10:23:43,-142.91
10:23:43.015625,-124.97
10:23:43.031250,-95.49
10:23:43.046875,-63.88
10:23:43.062500,-38.93
10:23:43.078125,-25.15
10:23:43.093750,-21.74
10:23:43.109375,-24.25
10:23:43.125000,-27.94
10:23:43.140625,-30.26
10:23:43.156250,-31.30
10:23:43.171875,-32.21
10:23:43.187500,-33.51
10:23:43.203125,-34.39
10:23:43.218750,-33.51
10:23:43.234375,-30.14
10:23:43.250000,-24.81
10:23:43.265625,-18.85
10:23:43.281250,-13.25
10:23:43.296875,-7.85
10:23:43.312500,-1.45
10:23:43.328125,7.50
10:23:43.343750,20.02
10:23:43.359375,36.27
10:23:43.375000,55.62
10:23:43.390625,77.04
10:23:43.406250,99.07
10:23:43.421875,119.73
10:23:43.437500,136.42
10:23:43.453125,146.21
10:23:43.468750,146.54
10:23:43.484375,136.18
10:23:43.500000,115.67
10:23:43.515625,87.10
10:23:43.531250,53.14
10:23:43.546875,15.96
10:23:43.562500,-23.30
10:23:43.578125,-64.23
10:23:43.593750,-106.35
10:23:43.609375,-148.32
10:23:43.625000,-187.91
10:23:43.640625,-222.71
10:23:43.656250,-251.10
10:23:43.671875,-272.73
10:23:43.687500,-288.20
10:23:43.703125,-298.31
10:23:43.718750,-303.36
10:23:43.734375,-302.87
10:23:43.750000,-295.93
10:23:43.765625,-281.85
10:23:43.781250,-260.67
10:23:43.796875,-233.26
10:23:43.812500,-201.23
10:23:43.828125,-166.54
10:23:43.843750,-131.30
10:23:43.859375,-97.43
10:23:43.875000,-66.27
10:23:43.890625,-38.34
10:23:43.906250,-13.21
10:23:43.921875,10.18
10:23:43.937500,32.93
10:23:43.953125,55.46
10:23:43.968750,77.23
10:23:43.984375,96.95
10:23:44,113.25
10:23:44.015625,125.42
10:23:44.031250,133.72
10:23:44.046875,139.10
10:23:44.062500,142.62
10:23:44.078125,144.84
10:23:44.093750,145.58
10:23:44.109375,144.15
10:23:44.125000,139.87
10:23:44.140625,132.58
10:23:44.156250,122.83
10:23:44.171875,111.69
10:23:44.187500,100.36
10:23:44.203125,89.60
10:23:44.218750,79.63
10:23:44.234375,70.19
10:23:44.250000,60.93
10:23:44.265625,51.74
10:23:44.281250,42.93
10:23:44.296875,35.01
10:23:44.312500,28.34
10:23:44.328125,22.78
10:23:44.343750,17.68
10:23:44.359375,12.00
10:23:44.375000,4.73
10:23:44.390625,-4.72
10:23:44.406250,-16.33
10:23:44.421875,-29.61
10:23:44.437500,-43.78
10:23:44.453125,-58.13
10:23:44.468750,-72.07
10:23:44.484375,-85.12
10:23:44.500000,-96.76
10:23:44.515625,-106.39
10:23:44.531250,-113.42
10:23:44.546875,-117.42
10:23:44.562500,-118.32
10:23:44.578125,-116.45
10:23:44.593750,-112.44
10:23:44.609375,-107.01
10:23:44.625000,-100.76
10:23:44.640625,-94.05
10:23:44.656250,-86.98
10:23:44.671875,-79.42
10:23:44.687500,-71.10
10:23:44.703125,-61.61
10:23:44.718750,-50.58
10:23:44.734375,-37.70
10:23:44.750000,-22.97
10:23:44.765625,-6.74
10:23:44.781250,10.36
10:23:44.796875,27.59
10:23:44.812500,44.32
10:23:44.828125,60.12
10:23:44.843750,74.81
10:23:44.859375,88.20
10:23:44.875000,99.96
10:23:44.890625,109.55
10:23:44.906250,116.32
10:23:44.921875,119.87
10:23:44.937500,120.19
10:23:44.953125,117.82
10:23:44.968750,113.54
10:23:44.984375,108.10
10:23:45,101.90
10:23:45.015625,95.00
10:23:45.031250,87.37
10:23:45.046875,79.14
10:23:45.062500,70.79
10:23:45.078125,63.05
10:23:45.093750,56.71
10:23:45.109375,52.25
10:23:45.125000,49.68
10:23:45.140625,48.52
10:23:45.156250,47.85
10:23:45.171875,46.55
10:23:45.187500,43.45
10:23:45.203125,37.77
10:23:45.218750,29.42
10:23:45.234375,19.31
10:23:45.250000,9.15
10:23:45.265625,1.05
10:23:45.281250,-3.28
10:23:45.296875,-3.13
10:23:45.312500,1.07
10:23:45.328125,7.94
10:23:45.343750,15.77
10:23:45.359375,23.10
10:23:45.375000,28.92
10:23:45.390625,32.70
10:23:45.406250,34.12
10:23:45.421875,32.94
10:23:45.437500,29.08
10:23:45.453125,22.73
10:23:45.468750,14.50
10:23:45.484375,5.39
10:23:45.500000,-3.51
10:23:45.515625,-11.33
10:23:45.531250,-17.65
10:23:45.546875,-22.60
10:23:45.562500,-26.61
10:23:45.578125,-30.16
10:23:45.593750,-33.40
10:23:45.609375,-36.17
10:23:45.625000,-38.07
10:23:45.640625,-38.76
10:23:45.656250,-38.32
10:23:45.671875,-37.27
10:23:45.687500,-36.42
10:23:45.703125,-36.58
10:23:45.718750,-38.19
10:23:45.734375,-41.20
10:23:45.750000,-45.17
10:23:45.765625,-49.49
10:23:45.781250,-53.69
10:23:45.796875,-57.47
10:23:45.812500,-60.71
10:23:45.828125,-63.33
10:23:45.843750,-65.24
10:23:45.859375,-66.28
10:23:45.875000,-66.31
10:23:45.890625,-65.27
10:23:45.906250,-63.31
10:23:45.921875,-60.85
10:23:45.937500,-58.47
10:23:45.953125,-56.86
10:23:45.968750,-56.58
10:23:45.984375,-57.85
10:23:46,-60.42
10:23:46.015625,-63.56
10:23:46.031250,-66.36
10:23:46.046875,-67.93
10:23:46.062500,-67.78
10:23:46.078125,-65.85
10:23:46.093750,-62.51
10:23:46.109375,-58.35
10:23:46.125000,-53.97
10:23:46.140625,-49.85
10:23:46.156250,-46.25
10:23:46.171875,-43.26
10:23:46.187500,-40.84
10:23:46.203125,-38.93
10:23:46.218750,-37.55
10:23:46.234375,-36.76
10:23:46.250000,-36.67
10:23:46.265625,-37.36
10:23:46.281250,-38.92
10:23:46.296875,-41.38
10:23:46.312500,-44.69
10:23:46.328125,-48.64
10:23:46.343750,-52.63
10:23:46.359375,-55.67
10:23:46.375000,-56.50
10:23:46.390625,-53.96
10:23:46.406250,-47.40
10:23:46.421875,-36.92
10:23:46.437500,-23.24
10:23:46.453125,-7.42
10:23:46.468750,9.55
10:23:46.484375,26.83
10:23:46.500000,43.68
10:23:46.515625,59.35
10:23:46.531250,73.02
10:23:46.546875,83.99
10:23:46.562500,91.81
10:23:46.578125,96.39
10:23:46.593750,97.93
10:23:46.609375,96.82
10:23:46.625000,93.73
10:23:46.640625,89.74
10:23:46.656250,86.57
10:23:46.671875,86.37
10:23:46.687500,91.39
10:23:46.703125,103.24
10:23:46.718750,122.28
10:23:46.734375,147.28
10:23:46.750000,175.54
10:23:46.765625,203.52
10:23:46.781250,227.62
10:23:46.796875,245.04
10:23:46.812500,254.37
10:23:46.828125,255.72
10:23:46.843750,250.48
10:23:46.859375,240.72
10:23:46.875000,228.39
10:23:46.890625,214.75
10:23:46.906250,200.01
10:23:46.921875,183.70
10:23:46.937500,165.31
10:23:46.953125,144.96
10:23:46.968750,123.74
10:23:46.984375,103.52
10:23:47,86.22
10:23:47.015625,72.83
10:23:47.031250,62.90
10:23:47.046875,54.47
10:23:47.062500,44.85
10:23:47.078125,31.64
10:23:47.093750,13.80
10:23:47.109375,-7.86
10:23:47.125000,-30.97
10:23:47.140625,-52.37
10:23:47.156250,-69.25
10:23:47.171875,-79.94
10:23:47.187500,-84.50
10:23:47.203125,-84.44
10:23:47.218750,-82.16
10:23:47.234375,-80.24
10:23:47.250000,-80.70
10:23:47.265625,-84.76
10:23:47.281250,-92.78
10:23:47.296875,-104.59
10:23:47.312500,-119.52
10:23:47.328125,-136.44
10:23:47.343750,-153.81
10:23:47.359375,-169.78
10:23:47.375000,-182.47
10:23:47.390625,-190.60
10:23:47.406250,-193.70
10:23:47.421875,-192.02
10:23:47.437500,-186.02
10:23:47.453125,-176.09
10:23:47.468750,-162.71
10:23:47.484375,-146.85
10:23:47.500000,-130.22
10:23:47.515625,-115.07
10:23:47.531250,-103.36
10:23:47.546875,-95.87
10:23:47.562500,-91.76
10:23:47.578125,-88.86
10:23:47.593750,-84.47
10:23:47.609375,-76.20
10:23:47.625000,-62.36
10:23:47.640625,-42.05
10:23:47.656250,-15.15
10:23:47.671875,17.50
10:23:47.687500,53.75
10:23:47.703125,89.97
10:23:47.718750,121.51
10:23:47.734375,143.88
10:23:47.750000,153.95
10:23:47.765625,151.02
10:23:47.781250,136.76
10:23:47.796875,114.43
10:23:47.812500,87.85
10:23:47.828125,60.52
10:23:47.843750,35.01
10:23:47.859375,12.84
10:23:47.875000,-5.39
10:23:47.890625,-19.77
10:23:47.906250,-30.76
10:23:47.921875,-38.92
10:23:47.937500,-44.73
10:23:47.953125,-48.42
10:23:47.968750,-50.19
10:23:47.984375,-50.34
10:23:48,-49.34
10:23:48.015625,-47.78
10:23:48.031250,-46.21
10:23:48.046875,-44.97
10:23:48.062500,-44.22
10:23:48.078125,-43.99
10:23:48.093750,-44.41
10:23:48.109375,-45.64
10:23:48.125000,-47.76
10:23:48.140625,-50.45
10:23:48.156250,-53.01
10:23:48.171875,-54.45
10:23:48.187500,-53.91
10:23:48.203125,-51.01
10:23:48.218750,-46.03
10:23:48.234375,-39.66
10:23:48.250000,-32.67
10:23:48.265625,-25.55
10:23:48.281250,-18.50
10:23:48.296875,-11.61
10:23:48.312500,-5.09
10:23:48.328125,0.64
10:23:48.343750,5.02
10:23:48.359375,7.71
10:23:48.375000,8.73
10:23:48.390625,8.46
10:23:48.406250,7.54
10:23:48.421875,6.49
10:23:48.437500,5.62
10:23:48.453125,5.00
10:23:48.468750,4.58
10:23:48.484375,4.33
10:23:48.500000,4.35
10:23:48.515625,4.76
10:23:48.531250,5.60
10:23:48.546875,6.75
10:23:48.562500,7.87
10:23:48.578125,8.51
10:23:48.593750,8.34
10:23:48.609375,7.28
10:23:48.625000,5.56
10:23:48.640625,3.66
10:23:48.656250,2.09
10:23:48.671875,1.23
10:23:48.687500,1.23
10:23:48.703125,2.01
10:23:48.718750,3.38
10:23:48.734375,5.12
10:23:48.750000,7.12
10:23:48.765625,9.31
10:23:48.781250,11.82
10:23:48.796875,14.80
10:23:48.812500,18.51
10:23:48.828125,23.10
10:23:48.843750,28.51
10:23:48.859375,34.39
10:23:48.875000,40.14
10:23:48.890625,45.11
10:23:48.906250,48.91
10:23:48.921875,51.64
10:23:48.937500,53.87
10:23:48.953125,56.47
10:23:48.968750,60.19
10:23:48.984375,65.28
10:23:49,71.34
10:23:49.015625,77.37
10:23:49.031250,82.16
10:23:49.046875,84.74
10:23:49.062500,84.72
10:23:49.078125,82.43
10:23:49.093750,78.87
10:23:49.109375,75.29
10:23:49.125000,72.66
10:23:49.140625,71.23
10:23:49.156250,70.20
10:23:49.171875,67.91
10:23:49.187500,62.14
10:23:49.203125,50.85
10:23:49.218750,32.88
10:23:49.234375,8.52
10:23:49.250000,-20.40
10:23:49.265625,-50.77
10:23:49.281250,-78.95
10:23:49.296875,-101.64
10:23:49.312500,-116.61
10:23:49.328125,-123.18
10:23:49.343750,-122.15
10:23:49.359375,-115.36
10:23:49.375000,-105.09
10:23:49.390625,-93.35
10:23:49.406250,-81.62
10:23:49.421875,-70.76
10:23:49.437500,-61.28
10:23:49.453125,-53.60
10:23:49.468750,-48.08
10:23:49.484375,-44.90
10:23:49.500000,-43.81
10:23:49.515625,-43.97
10:23:49.531250,-44.16
10:23:49.546875,-43.11
10:23:49.562500,-39.98
10:23:49.578125,-34.56
10:23:49.593750,-27.19
10:23:49.609375,-18.30
10:23:49.625000,-8.13
10:23:49.640625,3.44
10:23:49.656250,16.62
10:23:49.671875,31.29
10:23:49.687500,46.87
10:23:49.703125,62.32
10:23:49.718750,76.63
10:23:49.734375,89.18
10:23:49.750000,99.97
10:23:49.765625,109.42
10:23:49.781250,118.04
10:23:49.796875,125.92
10:23:49.812500,132.66
10:23:49.828125,137.39
10:23:49.843750,139.17
10:23:49.859375,137.45
10:23:49.875000,132.15
10:23:49.890625,123.74
10:23:49.906250,112.98
10:23:49.921875,100.69
10:23:49.937500,87.59
10:23:49.953125,74.30
10:23:49.968750,61.26
10:23:49.984375,48.61
10:23:50,36.06
10:23:50.015625,22.84
10:23:50.031250,7.86
10:23:50.046875,-9.70
10:23:50.062500,-29.79
10:23:50.078125,-50.95
10:23:50.093750,-70.24
10:23:50.109375,-83.76
10:23:50.125000,-87.83
10:23:50.140625,-80.10
10:23:50.156250,-60.55
10:23:50.171875,-31.75
10:23:50.187500,1.59
10:23:50.203125,33.81
10:23:50.218750,59.78
10:23:50.234375,76.40
10:23:50.250000,83.23
10:23:50.265625,82.27
10:23:50.281250,76.76
10:23:50.296875,69.67
10:23:50.312500,62.62
10:23:50.328125,55.79
10:23:50.343750,48.74
10:23:50.359375,41.51
10:23:50.375000,35.28
10:23:50.390625,31.92
10:23:50.406250,32.94
10:23:50.421875,38.35
10:23:50.437500,46.43
10:23:50.453125,54.56
10:23:50.468750,60.59
10:23:50.484375,64.02
10:23:50.500000,66.08
10:23:50.515625,68.91
10:23:50.531250,74.14
10:23:50.546875,81.93
10:23:50.562500,90.86
10:23:50.578125,98.74
10:23:50.593750,103.83
10:23:50.609375,105.57
10:23:50.625000,104.60
10:23:50.640625,102.02
10:23:50.656250,98.46
10:23:50.671875,93.57
10:23:50.687500,86.07
10:23:50.703125,74.42
10:23:50.718750,57.60
10:23:50.734375,35.56
10:23:50.750000,9.30
10:23:50.765625,-19.61
10:23:50.781250,-49.41
10:23:50.796875,-78.51
10:23:50.812500,-105.46
10:23:50.828125,-128.87
10:23:50.843750,-147.41
10:23:50.859375,-160.03
10:23:50.875000,-166.30
10:23:50.890625,-166.58
10:23:50.906250,-162.07
10:23:50.921875,-154.44
10:23:50.937500,-145.43
10:23:50.953125,-136.51
10:23:50.968750,-128.66
10:23:50.984375,-122.43
10:23:51,-118.05
10:23:51.015625,-115.58
10:23:51.031250,-114.96
10:23:51.046875,-116.05
10:23:51.062500,-118.53
10:23:51.078125,-121.91
10:23:51.093750,-125.58
10:23:51.109375,-128.85
10:23:51.125000,-131.05
10:23:51.140625,-131.61
10:23:51.156250,-130.04
10:23:51.171875,-126.04
10:23:51.187500,-119.51
10:23:51.203125,-110.55
10:23:51.218750,-99.54
10:23:51.234375,-87.11
10:23:51.250000,-74.17
10:23:51.265625,-61.78
10:23:51.281250,-51.03
10:23:51.296875,-42.78
10:23:51.312500,-37.50
10:23:51.328125,-35.15
10:23:51.343750,-35.27
10:23:51.359375,-37.14
10:23:51.375000,-40.04
10:23:51.390625,-43.43
10:23:51.406250,-46.96
10:23:51.421875,-50.44
10:23:51.437500,-53.61
10:23:51.453125,-56.14
10:23:51.468750,-57.58
10:23:51.484375,-57.53
10:23:51.500000,-55.71
10:23:51.515625,-52.09
10:23:51.531250,-46.88
10:23:51.546875,-40.48
10:23:51.562500,-33.46
10:23:51.578125,-26.43
10:23:51.593750,-20.02
10:23:51.609375,-14.71
10:23:51.625000,-10.80
10:23:51.640625,-8.38
10:23:51.656250,-7.37
10:23:51.671875,-7.52
10:23:51.687500,-8.51
10:23:51.703125,-9.95
10:23:51.718750,-11.39
10:23:51.734375,-12.44
10:23:51.750000,-12.79
10:23:51.765625,-12.35
10:23:51.781250,-11.21
10:23:51.796875,-9.60
10:23:51.812500,-7.77
10:23:51.828125,-5.86
10:23:51.843750,-3.88
10:23:51.859375,-1.79
10:23:51.875000,0.43
10:23:51.890625,2.69
10:23:51.906250,4.80
10:23:51.921875,6.54
10:23:51.937500,7.73
10:23:51.953125,8.35
10:23:51.968750,8.44
10:23:51.984375,8.10
10:23:52,7.42
10:23:52.015625,6.40
10:23:52.031250,5.02
10:23:52.046875,3.26
10:23:52.062500,1.19
10:23:52.078125,-1.03
10:23:52.093750,-3.14
10:23:52.109375,-4.88
10:23:52.125000,-6.04
10:23:52.140625,-6.52
10:23:52.156250,-6.30
10:23:52.171875,-5.44
10:23:52.187500,-4.10
10:23:52.203125,-2.54
10:23:52.218750,-1.09
10:23:52.234375,-0.14
10:23:52.250000,-0.03
10:23:52.265625,-0.99
10:23:52.281250,-3.08
10:23:52.296875,-6.19
10:23:52.312500,-10.00
10:23:52.328125,-14.06
10:23:52.343750,-17.79
10:23:52.359375,-20.57
10:23:52.375000,-21.89
10:23:52.390625,-21.49
10:23:52.406250,-19.43
10:23:52.421875,-16.07
10:23:52.437500,-11.91
10:23:52.453125,-7.47
10:23:52.468750,-3.15
10:23:52.484375,0.78
10:23:52.500000,4.17
10:23:52.515625,6.89
10:23:52.531250,8.85
10:23:52.546875,10.05
10:23:52.562500,10.62
10:23:52.578125,10.75
10:23:52.593750,10.59
10:23:52.609375,10.20
10:23:52.625000,9.56
10:23:52.640625,8.66
10:23:52.656250,7.53
10:23:52.671875,6.37
10:23:52.687500,5.40
10:23:52.703125,4.82
10:23:52.718750,4.71
10:23:52.734375,4.96
10:23:52.750000,5.37
10:23:52.765625,5.71
10:23:52.781250,5.80
10:23:52.796875,5.53
10:23:52.812500,4.90
10:23:52.828125,3.95
10:23:52.843750,2.79
10:23:52.859375,1.48
10:23:52.875000,0.01
10:23:52.890625,-1.66
10:23:52.906250,-3.56
10:23:52.921875,-5.60
10:23:52.937500,-7.54
10:23:52.953125,-9.12
10:23:52.968750,-10.11
10:23:52.984375,-10.51
10:23:53,-10.58
10:23:53.015625,-10.72
10:23:53.031250,-11.31
10:23:53.046875,-12.61
10:23:53.062500,-14.61
10:23:53.078125,-17.10
10:23:53.093750,-19.79
10:23:53.109375,-22.32
10:23:53.125000,-24.30
10:23:53.140625,-25.39
10:23:53.156250,-25.36
10:23:53.171875,-24.12
10:23:53.187500,-21.77
10:23:53.203125,-18.63
10:23:53.218750,-15.07
10:23:53.234375,-11.44
10:23:53.250000,-8.01
10:23:53.265625,-4.86
10:23:53.281250,-1.99
10:23:53.296875,0.68
10:23:53.312500,3.24
10:23:53.328125,5.68
10:23:53.343750,7.94
10:23:53.359375,9.82
10:23:53.375000,11.13
10:23:53.390625,11.72
10:23:53.406250,11.66
10:23:53.421875,11.20
10:23:53.437500,10.76
10:23:53.453125,10.69
10:23:53.468750,11.18
10:23:53.484375,12.12
10:23:53.500000,13.13
10:23:53.515625,13.77
10:23:53.531250,13.73
10:23:53.546875,12.95
10:23:53.562500,11.69
10:23:53.578125,10.32
10:23:53.593750,9.20
10:23:53.609375,8.42
10:23:53.625000,7.84
10:23:53.640625,7.17
10:23:53.656250,6.09
10:23:53.671875,4.46
10:23:53.687500,2.30
10:23:53.703125,-0.19
10:23:53.718750,-2.78
10:23:53.734375,-5.22
10:23:53.750000,-7.36
10:23:53.765625,-9.15
10:23:53.781250,-10.71
10:23:53.796875,-12.27
10:23:53.812500,-14.21
10:23:53.828125,-16.88
10:23:53.843750,-20.48
10:23:53.859375,-24.92
10:23:53.875000,-29.83
10:23:53.890625,-34.62
10:23:53.906250,-38.66
10:23:53.921875,-41.42
10:23:53.937500,-42.55
10:23:53.953125,-41.89
10:23:53.968750,-39.50
10:23:53.984375,-35.61
10:23:54,-30.61
10:23:54.015625,-24.99
10:23:54.031250,-19.23
10:23:54.046875,-13.70
10:23:54.062500,-8.53
10:23:54.078125,-3.70
10:23:54.093750,0.96
10:23:54.109375,5.54
10:23:54.125000,10.01
10:23:54.140625,14.20
10:23:54.156250,17.87
10:23:54.171875,20.81
10:23:54.187500,22.97
10:23:54.203125,24.43
10:23:54.218750,25.40
10:23:54.234375,26.10
10:23:54.250000,26.70
10:23:54.265625,27.25
10:23:54.281250,27.75
10:23:54.296875,28.12
10:23:54.312500,28.35
10:23:54.328125,28.35
10:23:54.343750,28.12
10:23:54.359375,27.59
10:23:54.375000,26.71
10:23:54.390625,25.39
10:23:54.406250,23.62
10:23:54.421875,21.51
10:23:54.437500,19.23
10:23:54.453125,16.95
10:23:54.468750,14.76
10:23:54.484375,12.57
10:23:54.500000,10.23
10:23:54.515625,7.60
10:23:54.531250,4.67
10:23:54.546875,1.64
10:23:54.562500,-1.23
10:23:54.578125,-3.72
10:23:54.593750,-5.87
10:23:54.609375,-7.94
10:23:54.625000,-10.35
10:23:54.640625,-13.42
10:23:54.656250,-17.28
10:23:54.671875,-21.80
10:23:54.687500,-26.59
10:23:54.703125,-31.08
10:23:54.718750,-34.62
10:23:54.734375,-36.66
10:23:54.750000,-36.84
10:23:54.765625,-35.10
10:23:54.781250,-31.70
10:23:54.796875,-27.07
10:23:54.812500,-21.66
10:23:54.828125,-15.81
10:23:54.843750,-9.71
10:23:54.859375,-3.47
10:23:54.875000,2.74
10:23:54.890625,8.69
10:23:54.906250,14.08
10:23:54.921875,18.66
10:23:54.937500,22.28
10:23:54.953125,25.01
10:23:54.968750,26.92
10:23:54.984375,28.12
10:23:55,28.68
10:23:55.015625,28.69
10:23:55.031250,28.35
10:23:55.046875,27.94
10:23:55.062500,27.74
10:23:55.078125,27.94
10:23:55.093750,28.56
10:23:55.109375,29.38
10:23:55.125000,30.11
10:23:55.140625,30.46
10:23:55.156250,30.29
10:23:55.171875,29.64
10:23:55.187500,28.68
10:23:55.203125,27.64
10:23:55.218750,26.69
10:23:55.234375,25.81
10:23:55.250000,24.87
10:23:55.265625,23.66
10:23:55.281250,21.99
10:23:55.296875,19.80
10:23:55.312500,17.11
10:23:55.328125,14.04
10:23:55.343750,10.72
10:23:55.359375,7.34
10:23:55.375000,4.08
10:23:55.390625,1.07
10:23:55.406250,-1.55
10:23:55.421875,-3.86
10:23:55.437500,-6.09
10:23:55.453125,-8.67
10:23:55.468750,-12.05
10:23:55.484375,-16.55
10:23:55.500000,-22.16
10:23:55.515625,-28.42
10:23:55.531250,-34.54
10:23:55.546875,-39.52
10:23:55.562500,-42.46
10:23:55.578125,-42.79
10:23:55.593750,-40.42
10:23:55.609375,-35.69
10:23:55.625000,-29.26
10:23:55.640625,-21.93
10:23:55.656250,-14.39
10:23:55.671875,-7.15
10:23:55.687500,-0.46
10:23:55.703125,5.56
10:23:55.718750,10.95
10:23:55.734375,15.76
10:23:55.750000,20.05
10:23:55.765625,23.84
10:23:55.781250,27.05
10:23:55.796875,29.51
10:23:55.812500,31.05
10:23:55.828125,31.57
10:23:55.843750,31.25
10:23:55.859375,30.46
10:23:55.875000,29.75
10:23:55.890625,29.56
10:23:55.906250,30.06
10:23:55.921875,31.08
10:23:55.937500,32.21
10:23:55.953125,33.01
10:23:55.968750,33.18
10:23:55.984375,32.69
10:23:56,31.67
10:23:56.015625,30.36
10:23:56.031250,28.96
10:23:56.046875,27.56
10:23:56.062500,26.14
10:23:56.078125,24.58
10:23:56.093750,22.75
10:23:56.109375,20.50
10:23:56.125000,17.77
10:23:56.140625,14.61
10:23:56.156250,11.15
10:23:56.171875,7.60
10:23:56.187500,4.17
10:23:56.203125,1.00
10:23:56.218750,-1.83
10:23:56.234375,-4.36
10:23:56.250000,-6.75
10:23:56.265625,-9.32
10:23:56.281250,-12.47
10:23:56.296875,-16.58
10:23:56.312500,-21.77
10:23:56.328125,-27.74
10:23:56.343750,-33.70
10:23:56.359375,-38.58
10:23:56.375000,-41.36
10:23:56.390625,-41.39
10:23:56.406250,-38.64
10:23:56.421875,-33.57
10:23:56.437500,-26.94
10:23:56.453125,-19.48
10:23:56.468750,-11.75
10:23:56.484375,-4.11
10:23:56.500000,3.13
10:23:56.515625,9.69
10:23:56.531250,15.31
10:23:56.546875,19.83
10:23:56.562500,23.27
10:23:56.578125,25.80
10:23:56.593750,27.65
10:23:56.609375,29.00
10:23:56.625000,29.89
10:23:56.640625,30.29
10:23:56.656250,30.24
10:23:56.671875,29.85
10:23:56.687500,29.35
10:23:56.703125,28.99
10:23:56.718750,28.86
10:23:56.734375,28.90
10:23:56.750000,28.95
10:23:56.765625,28.83
10:23:56.781250,28.46
10:23:56.796875,27.83
10:23:56.812500,27.02
10:23:56.828125,26.05
10:23:56.843750,24.85
10:23:56.859375,23.30
10:23:56.875000,21.28
10:23:56.890625,18.74
10:23:56.906250,15.74
10:23:56.921875,12.45
10:23:56.937500,9.05
10:23:56.953125,5.72
10:23:56.968750,2.66
10:23:56.984375,0.01
10:23:57,-2.26
10:23:57.015625,-4.41
10:23:57.031250,-6.94
10:23:57.046875,-10.46
10:23:57.062500,-15.41
10:23:57.078125,-21.70
10:23:57.093750,-28.69
10:23:57.109375,-35.25
10:23:57.125000,-40.18
10:23:57.140625,-42.60
10:23:57.156250,-42.20
10:23:57.171875,-39.25
10:23:57.187500,-34.29
10:23:57.203125,-27.96
10:23:57.218750,-20.76
10:23:57.234375,-13.11
10:23:57.250000,-5.38
10:23:57.265625,2.01
10:23:57.281250,8.67
10:23:57.296875,14.30
10:23:57.312500,18.77
10:23:57.328125,22.10
10:23:57.343750,24.38
10:23:57.359375,25.76
10:23:57.375000,26.40
10:23:57.390625,26.51
10:23:57.406250,26.31
10:23:57.421875,25.99
10:23:57.437500,25.65
10:23:57.453125,25.33
10:23:57.468750,24.98
10:23:57.484375,24.58
10:23:57.500000,24.19
10:23:57.515625,23.86
10:23:57.531250,23.64
10:23:57.546875,23.46
10:23:57.562500,23.16
10:23:57.578125,22.52
10:23:57.593750,21.36
10:23:57.609375,19.58
10:23:57.625000,17.18
10:23:57.640625,14.28
10:23:57.656250,11.02
10:23:57.671875,7.55
10:23:57.687500,4.07
10:23:57.703125,0.73
10:23:57.718750,-2.34
10:23:57.734375,-5.14
10:23:57.750000,-7.83
10:23:57.765625,-10.77
10:23:57.781250,-14.38
10:23:57.796875,-19.02
10:23:57.812500,-24.76
10:23:57.828125,-31.16
10:23:57.843750,-37.36
10:23:57.859375,-42.24
10:23:57.875000,-44.82
10:23:57.890625,-44.56
10:23:57.906250,-41.52
10:23:57.921875,-36.28
10:23:57.937500,-29.60
10:23:57.953125,-22.27
10:23:57.968750,-14.80
10:23:57.984375,-7.52
10:23:58,-0.61
10:23:58.015625,5.76
10:23:58.031250,11.44
10:23:58.046875,16.30
10:23:58.062500,20.21
10:23:58.078125,23.19
10:23:58.093750,25.30
10:23:58.109375,26.72
10:23:58.125000,27.66
10:23:58.140625,28.33
10:23:58.156250,28.87
10:23:58.171875,29.33
10:23:58.187500,29.68
10:23:58.203125,29.88
10:23:58.218750,29.88
10:23:58.234375,29.72
10:23:58.250000,29.43
10:23:58.265625,29.07
10:23:58.281250,28.60
10:23:58.296875,27.98
10:23:58.312500,27.15
10:23:58.328125,26.13
10:23:58.343750,24.85
10:23:58.359375,23.26
10:23:58.375000,21.21
10:23:58.390625,18.56
10:23:58.406250,15.24
10:23:58.421875,11.32
10:23:58.437500,7.07
10:23:58.453125,2.83
10:23:58.468750,-1.06
10:23:58.484375,-4.44
10:23:58.500000,-7.31
10:23:58.515625,-9.97
10:23:58.531250,-12.84
10:23:58.546875,-16.38
10:23:58.562500,-20.93
10:23:58.578125,-26.46
10:23:58.593750,-32.54
10:23:58.609375,-38.37
10:23:58.625000,-42.97
10:23:58.640625,-45.51
10:23:58.656250,-45.57
10:23:58.671875,-43.13
10:23:58.687500,-38.57
10:23:58.703125,-32.37
10:23:58.718750,-25.02
10:23:58.734375,-16.98
10:23:58.750000,-8.65
10:23:58.765625,-0.48
10:23:58.781250,7.09
10:23:58.796875,13.68
10:23:58.812500,19.08
10:23:58.828125,23.26
10:23:58.843750,26.35
10:23:58.859375,28.55
10:23:58.875000,30.02
10:23:58.890625,30.87
10:23:58.906250,31.23
10:23:58.921875,31.17
10:23:58.937500,30.85
10:23:58.953125,30.47
10:23:58.968750,30.20
10:23:58.984375,30.22
10:23:59,30.58
10:23:59.015625,31.19
10:23:59.031250,31.88
10:23:59.046875,32.44
10:23:59.062500,32.66
10:23:59.078125,32.43
10:23:59.093750,31.69
10:23:59.109375,30.41
10:23:59.125000,28.63
10:23:59.140625,26.37
10:23:59.156250,23.70
10:23:59.171875,20.71
10:23:59.187500,17.45
10:23:59.203125,13.95
10:23:59.218750,10.24
10:23:59.234375,6.44
10:23:59.250000,2.67
10:23:59.265625,-0.87
10:23:59.281250,-4.01
10:23:59.296875,-6.75
10:23:59.312500,-9.28
10:23:59.328125,-11.90
10:23:59.343750,-14.97
10:23:59.359375,-18.80
10:23:59.375000,-23.48
10:23:59.390625,-28.92
10:23:59.406250,-34.73
10:23:59.421875,-40.27
10:23:59.437500,-44.67
10:23:59.453125,-47.07
10:23:59.468750,-46.86
10:23:59.484375,-43.84
10:23:59.500000,-38.36
10:23:59.515625,-31.18
10:23:59.531250,-23.19
10:23:59.546875,-15.17
10:23:59.562500,-7.62
10:23:59.578125,-0.76
10:23:59.593750,5.42
10:23:59.609375,10.92
10:23:59.625000,15.73
10:23:59.640625,19.74
10:23:59.656250,22.85
10:23:59.671875,24.97
10:23:59.687500,26.14
10:23:59.703125,26.53
10:23:59.718750,26.41
10:23:59.734375,26.14
10:23:59.750000,26.01
10:23:59.765625,26.17
10:23:59.781250,26.58
10:23:59.796875,27.11
10:23:59.812500,27.57
10:23:59.828125,27.83
10:23:59.843750,27.81
10:23:59.859375,27.45
10:23:59.875000,26.72
10:23:59.890625,25.58
10:23:59.906250,24.11
10:23:59.921875,22.51
10:23:59.937500,20.99
10:23:59.953125,19.68
10:23:59.968750,18.55
10:23:59.984375,17.36
10:24:00,15.78
10:24:00.015625,13.56
10:24:00.031250,10.67
10:24:00.046875,7.27
10:24:00.062500,3.64
10:24:00.078125,0.08
10:24:00.093750,-3.27
10:24:00.109375,-6.37
10:24:00.125000,-9.36
10:24:00.140625,-12.45
10:24:00.156250,-15.92
10:24:00.171875,-20.08
10:24:00.187500,-25.06
10:24:00.203125,-30.70
10:24:00.218750,-36.43
10:24:00.234375,-41.40
10:24:00.250000,-44.68
10:24:00.265625,-45.53
10:24:00.281250,-43.69
10:24:00.296875,-39.37
10:24:00.312500,-33.17
10:24:00.328125,-25.88
10:24:00.343750,-18.26
10:24:00.359375,-10.90
10:24:00.375000,-4.19
10:24:00.390625,1.68
10:24:00.406250,6.66
10:24:00.421875,10.82
10:24:00.437500,14.31
10:24:00.453125,17.28
10:24:00.468750,19.85
10:24:00.484375,22.03
10:24:00.500000,23.71
10:24:00.515625,24.75
10:24:00.531250,25.05
10:24:00.546875,24.69
10:24:00.562500,23.90
10:24:00.578125,23.09
10:24:00.593750,22.63
10:24:00.609375,22.72
10:24:00.625000,23.29
10:24:00.640625,24.03
10:24:00.656250,24.52
10:24:00.671875,24.37
10:24:00.687500,23.45
10:24:00.703125,21.83
10:24:00.718750,19.79
10:24:00.734375,17.63
10:24:00.750000,15.56
10:24:00.765625,13.63
10:24:00.781250,11.76
10:24:00.796875,9.77
10:24:00.812500,7.53
10:24:00.828125,4.97
10:24:00.843750,2.16
10:24:00.859375,-0.72
10:24:00.875000,-3.50
10:24:00.890625,-6.10
10:24:00.906250,-8.58
10:24:00.921875,-11.13
10:24:00.937500,-13.97
10:24:00.953125,-17.28
10:24:00.968750,-21.11
10:24:00.984375,-25.42
10:24:01,-30.05
10:24:01.015625,-34.73
10:24:01.031250,-39.06
10:24:01.046875,-42.45
10:24:01.062500,-44.28
10:24:01.078125,-44.02
10:24:01.093750,-41.44
10:24:01.109375,-36.72
10:24:01.125000,-30.44
10:24:01.140625,-23.34
10:24:01.156250,-16.14
10:24:01.171875,-9.35
10:24:01.187500,-3.23
10:24:01.203125,2.09
10:24:01.218750,6.62
10:24:01.234375,10.35
10:24:01.250000,13.25
10:24:01.265625,15.35
10:24:01.281250,16.73
10:24:01.296875,17.52
10:24:01.312500,17.89
10:24:01.328125,18.05
10:24:01.343750,18.14
10:24:01.359375,18.29
10:24:01.375000,18.53
10:24:01.390625,18.82
10:24:01.406250,19.07
10:24:01.421875,19.22
10:24:01.437500,19.25
10:24:01.453125,19.16
10:24:01.468750,18.89
10:24:01.484375,18.36
10:24:01.500000,17.45
10:24:01.515625,16.10
10:24:01.531250,14.33
10:24:01.546875,12.32
10:24:01.562500,10.25
10:24:01.578125,8.26
10:24:01.593750,6.33
10:24:01.609375,4.38
10:24:01.625000,2.26
10:24:01.640625,-0.08
10:24:01.656250,-2.55
10:24:01.671875,-5.01
10:24:01.687500,-7.34
10:24:01.703125,-9.56
10:24:01.718750,-11.83
10:24:01.734375,-14.44
10:24:01.750000,-17.67
10:24:01.765625,-21.65
10:24:01.781250,-26.29
10:24:01.796875,-31.21
10:24:01.812500,-35.77
10:24:01.828125,-39.19
10:24:01.843750,-40.75
10:24:01.859375,-40.05
10:24:01.875000,-37.08
10:24:01.890625,-32.25
10:24:01.906250,-26.23
10:24:01.921875,-19.76
10:24:01.937500,-13.40
10:24:01.953125,-7.51
10:24:01.968750,-2.29
10:24:01.984375,2.15
10:24:02,5.76
10:24:02.015625,8.57
10:24:02.031250,10.70
10:24:02.046875,12.39
10:24:02.062500,13.92
10:24:02.078125,15.51
10:24:02.093750,17.21
10:24:02.109375,18.82
10:24:02.125000,19.94
10:24:02.140625,20.15
10:24:02.156250,19.17
10:24:02.171875,17.03
10:24:02.187500,14.14
10:24:02.203125,11.16
10:24:02.218750,8.81
10:24:02.234375,7.63
10:24:02.250000,7.78
10:24:02.265625,9.03
10:24:02.281250,10.82
10:24:02.296875,12.42
10:24:02.312500,13.14
10:24:02.328125,12.45
10:24:02.343750,10.15
10:24:02.359375,6.41
10:24:02.375000,1.73
10:24:02.390625,-3.11
10:24:02.406250,-7.33
10:24:02.421875,-10.39
10:24:02.437500,-12.19
10:24:02.453125,-13.08
10:24:02.468750,-13.71
10:24:02.484375,-14.85
10:24:02.500000,-17.07
10:24:02.515625,-20.48
10:24:02.531250,-24.80
10:24:02.546875,-29.29
10:24:02.562500,-33.06
10:24:02.578125,-35.30
10:24:02.593750,-35.53
10:24:02.609375,-33.77
10:24:02.625000,-30.42
10:24:02.640625,-26.10
10:24:02.656250,-21.36
10:24:02.671875,-16.59
10:24:02.687500,-12.02
10:24:02.703125,-7.74
10:24:02.718750,-3.87
10:24:02.734375,-0.49
10:24:02.750000,2.44
10:24:02.765625,5.11
10:24:02.781250,7.80
10:24:02.796875,10.73
10:24:02.812500,13.82
10:24:02.828125,16.72
10:24:02.843750,18.95
10:24:02.859375,20.11
10:24:02.875000,20.16
10:24:02.890625,19.38
10:24:02.906250,18.29
10:24:02.921875,17.36
10:24:02.937500,16.83
10:24:02.953125,16.72
10:24:02.968750,16.96
10:24:02.984375,17.42
10:24:03,18.04
10:24:03.015625,18.68
10:24:03.031250,19.08
10:24:03.046875,18.87
10:24:03.062500,17.68
10:24:03.078125,15.34
10:24:03.093750,12.03
10:24:03.109375,8.19
10:24:03.125000,4.35
10:24:03.140625,0.87
10:24:03.156250,-2.16
10:24:03.171875,-4.92
10:24:03.187500,-7.66
10:24:03.203125,-10.54
10:24:03.218750,-13.65
10:24:03.234375,-16.97
10:24:03.250000,-20.57
10:24:03.265625,-24.55
10:24:03.281250,-28.96
10:24:03.296875,-33.58
10:24:03.312500,-37.90
10:24:03.328125,-41.18
10:24:03.343750,-42.73
10:24:03.359375,-42.15
10:24:03.375000,-39.50
10:24:03.390625,-35.25
10:24:03.406250,-30.02
10:24:03.421875,-24.39
10:24:03.437500,-18.65
10:24:03.453125,-12.88
10:24:03.468750,-7.04
10:24:03.484375,-1.09
10:24:03.500000,4.83
10:24:03.515625,10.46
10:24:03.531250,15.46
10:24:03.546875,19.53
10:24:03.562500,22.50
10:24:03.578125,24.40
10:24:03.593750,25.43
10:24:03.609375,25.86
10:24:03.625000,25.94
10:24:03.640625,25.82
10:24:03.656250,25.56
10:24:03.671875,25.18
10:24:03.687500,24.74
10:24:03.703125,24.36
10:24:03.718750,24.21
10:24:03.734375,24.38
10:24:03.750000,24.86
10:24:03.765625,25.44
10:24:03.781250,25.79
10:24:03.796875,25.56
10:24:03.812500,24.53
10:24:03.828125,22.73
10:24:03.843750,20.39
10:24:03.859375,17.89
10:24:03.875000,15.58
10:24:03.890625,13.63
10:24:03.906250,11.98
10:24:03.921875,10.31
10:24:03.937500,8.28
10:24:03.953125,5.64
10:24:03.968750,2.42
10:24:03.984375,-1.13
10:24:04,-4.62
10:24:04.015625,-7.68
10:24:04.031250,-10.23
10:24:04.046875,-12.40
10:24:04.062500,-14.52
10:24:04.078125,-16.96
10:24:04.093750,-20.01
10:24:04.109375,-23.84
10:24:04.125000,-28.48
10:24:04.140625,-33.85
10:24:04.156250,-39.63
10:24:04.171875,-45.25
10:24:04.187500,-49.82
10:24:04.203125,-52.33
10:24:04.218750,-51.96
10:24:04.234375,-48.40
10:24:04.250000,-42.05
10:24:04.265625,-33.83
10:24:04.281250,-24.91
10:24:04.296875,-16.29
10:24:04.312500,-8.50
10:24:04.328125,-1.68
10:24:04.343750,4.30
10:24:04.359375,9.59
10:24:04.375000,14.24
10:24:04.390625,18.19
10:24:04.406250,21.38
10:24:04.421875,23.83
10:24:04.437500,25.68
10:24:04.453125,27.14
10:24:04.468750,28.40
10:24:04.484375,29.59
10:24:04.500000,30.74
10:24:04.515625,31.76
10:24:04.531250,32.57
10:24:04.546875,33.11
10:24:04.562500,33.38
10:24:04.578125,33.41
10:24:04.593750,33.23
10:24:04.609375,32.86
10:24:04.625000,32.27
10:24:04.640625,31.49
10:24:04.656250,30.52
10:24:04.671875,29.47
10:24:04.687500,28.47
10:24:04.703125,27.62
10:24:04.718750,26.88
10:24:04.734375,26.17
10:24:04.750000,25.29
10:24:04.765625,24.05
10:24:04.781250,22.31
10:24:04.796875,20.05
10:24:04.812500,17.35
10:24:04.828125,14.40
10:24:04.843750,11.47
10:24:04.859375,8.83
10:24:04.875000,6.71
10:24:04.890625,5.24
10:24:04.906250,4.36
10:24:04.921875,3.84
10:24:04.937500,3.32
10:24:04.953125,2.39
10:24:04.968750,0.72
10:24:04.984375,-1.87
10:24:05,-5.37
10:24:05.015625,-9.56
10:24:05.031250,-14.04
10:24:05.046875,-18.39
10:24:05.062500,-22.17
10:24:05.078125,-25.12
10:24:05.093750,-27.28
10:24:05.109375,-29.05
10:24:05.125000,-31.10
10:24:05.140625,-34.13
10:24:05.156250,-38.50
10:24:05.171875,-43.99
10:24:05.187500,-49.71
10:24:05.203125,-54.35
10:24:05.218750,-56.67
10:24:05.234375,-55.90
10:24:05.250000,-52.02
10:24:05.265625,-45.72
10:24:05.281250,-38.05
10:24:05.296875,-30.07
10:24:05.312500,-22.50
10:24:05.328125,-15.65
10:24:05.343750,-9.55
10:24:05.359375,-4.10
10:24:05.375000,0.67
10:24:05.390625,4.64
10:24:05.406250,7.64
10:24:05.421875,9.63
10:24:05.437500,10.73
10:24:05.453125,11.27
10:24:05.468750,11.63
10:24:05.484375,12.12
10:24:05.500000,12.83
10:24:05.515625,13.76
10:24:05.531250,14.86
10:24:05.546875,16.09
10:24:05.562500,17.50
10:24:05.578125,19.11
10:24:05.593750,20.87
10:24:05.609375,22.68
10:24:05.625000,24.41
10:24:05.640625,25.99
10:24:05.656250,27.48
10:24:05.671875,28.92
10:24:05.687500,30.28
10:24:05.703125,31.40
10:24:05.718750,31.94
10:24:05.734375,31.57
10:24:05.750000,30.04
10:24:05.765625,27.28
10:24:05.781250,23.43
10:24:05.796875,18.78
10:24:05.812500,13.67
10:24:05.828125,8.48
10:24:05.843750,3.56
10:24:05.859375,-0.75
10:24:05.875000,-4.20
10:24:05.890625,-6.58
10:24:05.906250,-7.80
10:24:05.921875,-7.83
10:24:05.937500,-6.80
10:24:05.953125,-4.91
10:24:05.968750,-2.53
10:24:05.984375,-0.19
10:24:06,1.44
10:24:06.015625,1.69
10:24:06.031250,-0.01
10:24:06.046875,-3.93
10:24:06.062500,-9.87
10:24:06.078125,-17.18
10:24:06.093750,-24.73
10:24:06.109375,-31.24
10:24:06.125000,-35.58
10:24:06.140625,-37.09
10:24:06.156250,-35.70
10:24:06.171875,-31.78
10:24:06.187500,-25.84
10:24:06.203125,-18.26
10:24:06.218750,-9.32
10:24:06.234375,0.75
10:24:06.250000,11.34
10:24:06.265625,21.43
10:24:06.281250,29.76
10:24:06.296875,35.22
10:24:06.312500,37.21
10:24:06.328125,35.80
10:24:06.343750,31.59
10:24:06.359375,25.44
10:24:06.375000,18.24
10:24:06.390625,10.88
10:24:06.406250,4.22
10:24:06.421875,-0.87
10:24:06.437500,-3.61
10:24:06.453125,-3.53
10:24:06.468750,-0.61
10:24:06.484375,4.66
10:24:06.500000,11.46
10:24:06.515625,18.81
10:24:06.531250,25.86
10:24:06.546875,31.97
10:24:06.562500,36.70
10:24:06.578125,39.73
10:24:06.593750,40.71
10:24:06.609375,39.23
10:24:06.625000,34.96
10:24:06.640625,27.86
10:24:06.656250,18.41
10:24:06.671875,7.70
10:24:06.687500,-2.83
10:24:06.703125,-11.73
10:24:06.718750,-18.08
10:24:06.734375,-21.59
10:24:06.750000,-22.59
10:24:06.765625,-21.70
10:24:06.781250,-19.60
10:24:06.796875,-16.81
10:24:06.812500,-13.78
10:24:06.828125,-10.92
10:24:06.843750,-8.66
10:24:06.859375,-7.40
10:24:06.875000,-7.34
10:24:06.890625,-8.43
10:24:06.906250,-10.34
10:24:06.921875,-12.57
10:24:06.937500,-14.55
10:24:06.953125,-15.78
10:24:06.968750,-15.91
10:24:06.984375,-14.80
10:24:07,-12.58
10:24:07.015625,-9.56
10:24:07.031250,-6.17
10:24:07.046875,-2.80
10:24:07.062500,0.29
10:24:07.078125,3.00
10:24:07.093750,5.31
10:24:07.109375,7.17
10:24:07.125000,8.46
10:24:07.140625,8.96
10:24:07.156250,8.54
10:24:07.171875,7.18
10:24:07.187500,5.04
10:24:07.203125,2.36
10:24:07.218750,-0.61
10:24:07.234375,-3.66
10:24:07.250000,-6.56
10:24:07.265625,-8.97
10:24:07.281250,-10.47
10:24:07.296875,-10.58
10:24:07.312500,-9.05
10:24:07.328125,-5.99
10:24:07.343750,-1.95
10:24:07.359375,2.29
10:24:07.375000,5.89
10:24:07.390625,8.25
10:24:07.406250,9.01
10:24:07.421875,8.15
10:24:07.437500,5.79
10:24:07.453125,2.16
10:24:07.468750,-2.46
10:24:07.484375,-7.68
10:24:07.500000,-13.04
10:24:07.515625,-17.95
10:24:07.531250,-21.75
10:24:07.546875,-23.93
10:24:07.562500,-24.17
10:24:07.578125,-22.55
10:24:07.593750,-19.43
10:24:07.609375,-15.42
10:24:07.625000,-11.10
10:24:07.640625,-6.89
10:24:07.656250,-3.05
10:24:07.671875,0.33
10:24:07.687500,3.19
10:24:07.703125,5.39
10:24:07.718750,6.79
10:24:07.734375,7.33
10:24:07.750000,7.07
10:24:07.765625,6.30
10:24:07.781250,5.39
10:24:07.796875,4.70
10:24:07.812500,4.46
10:24:07.828125,4.71
10:24:07.843750,5.34
10:24:07.859375,6.19
10:24:07.875000,7.05
10:24:07.890625,7.79
10:24:07.906250,8.28
10:24:07.921875,8.42
10:24:07.937500,8.07
10:24:07.953125,7.11
10:24:07.968750,5.44
10:24:07.984375,3.11
10:24:08,0.27
10:24:08.015625,-2.78
10:24:08.031250,-5.71
10:24:08.046875,-8.26
10:24:08.062500,-10.27
10:24:08.078125,-11.70
10:24:08.093750,-12.64
10:24:08.109375,-13.22
10:24:08.125000,-13.65
10:24:08.140625,-14.18
10:24:08.156250,-15.00
10:24:08.171875,-16.27
10:24:08.187500,-17.91
10:24:08.203125,-19.62
10:24:08.218750,-20.97
10:24:08.234375,-21.45
10:24:08.250000,-20.82
10:24:08.265625,-19.08
10:24:08.281250,-16.48
10:24:08.296875,-13.40
10:24:08.312500,-10.13
10:24:08.328125,-6.77
10:24:08.343750,-3.29
10:24:08.359375,0.33
10:24:08.375000,3.94
10:24:08.390625,7.12
10:24:08.406250,9.30
10:24:08.421875,9.99
10:24:08.437500,9.03
10:24:08.453125,6.70
10:24:08.468750,3.65
10:24:08.484375,0.70
10:24:08.500000,-1.42
10:24:08.515625,-2.24
10:24:08.531250,-1.58
10:24:08.546875,0.52
10:24:08.562500,3.84
10:24:08.578125,8.01
10:24:08.593750,12.43
10:24:08.609375,16.31
10:24:08.625000,18.85
10:24:08.640625,19.51
10:24:08.656250,18.31
10:24:08.671875,15.82
10:24:08.687500,13.02
10:24:08.703125,10.72
10:24:08.718750,9.22
10:24:08.734375,8.20
10:24:08.750000,6.97
10:24:08.765625,4.99
10:24:08.781250,2.20
10:24:08.796875,-0.82
10:24:08.812500,-3.14
10:24:08.828125,-3.91
10:24:08.843750,-2.80
10:24:08.859375,-0.17
10:24:08.875000,3.11
10:24:08.890625,5.93
10:24:08.906250,7.39
10:24:08.921875,7.03
10:24:08.937500,5.01
10:24:08.953125,2.03
10:24:08.968750,-0.93
10:24:08.984375,-2.85
10:24:09,-2.98
10:24:09.015625,-1.06
10:24:09.031250,2.67
10:24:09.046875,7.48
10:24:09.062500,12.41
10:24:09.078125,16.45
10:24:09.093750,18.86
10:24:09.109375,19.28
10:24:09.125000,17.77
10:24:09.140625,14.82
10:24:09.156250,11.10
10:24:09.171875,7.39
10:24:09.187500,4.48
10:24:09.203125,2.99
10:24:09.218750,3.33
10:24:09.234375,5.42
10:24:09.250000,8.79
10:24:09.265625,12.56
10:24:09.281250,15.76
10:24:09.296875,17.67
10:24:09.312500,18.01
10:24:09.328125,17.02
10:24:09.343750,15.23
10:24:09.359375,13.25
10:24:09.375000,11.46
10:24:09.390625,9.95
10:24:09.406250,8.55
10:24:09.421875,6.92
10:24:09.437500,4.71
10:24:09.453125,1.54
10:24:09.468750,-2.87
10:24:09.484375,-8.78
10:24:09.500000,-16.31
10:24:09.515625,-25.41
10:24:09.531250,-35.70
10:24:09.546875,-46.41
10:24:09.562500,-56.39
10:24:09.578125,-64.33
10:24:09.593750,-69.07
10:24:09.609375,-69.90
10:24:09.625000,-66.76
10:24:09.640625,-60.15
10:24:09.656250,-50.87
10:24:09.671875,-39.76
10:24:09.687500,-27.53
10:24:09.703125,-14.88
10:24:09.718750,-2.52
10:24:09.734375,8.67
10:24:09.750000,17.82
10:24:09.765625,24.29
10:24:09.781250,27.87
10:24:09.796875,28.75
10:24:09.812500,27.42
10:24:09.828125,24.40
10:24:09.843750,20.11
10:24:09.859375,14.98
10:24:09.875000,9.52
10:24:09.890625,4.36
10:24:09.906250,0.16
10:24:09.921875,-2.63
10:24:09.937500,-3.90
10:24:09.953125,-3.88
10:24:09.968750,-2.90
10:24:09.984375,-1.30
10:24:10,0.80
10:24:10.015625,3.30
10:24:10.031250,6.04
10:24:10.046875,8.70
10:24:10.062500,10.83
10:24:10.078125,12.00
10:24:10.093750,12.01
10:24:10.109375,10.98
10:24:10.125000,9.24
10:24:10.140625,7.25
10:24:10.156250,5.41
10:24:10.171875,4.01
10:24:10.187500,3.23
10:24:10.203125,3.18
10:24:10.218750,4.01
10:24:10.234375,6.04
10:24:10.250000,9.80
10:24:10.265625,15.88
10:24:10.281250,24.84
10:24:10.296875,36.79
10:24:10.312500,51.19
10:24:10.328125,66.91
10:24:10.343750,82.34
10:24:10.359375,95.77
10:24:10.375000,105.82
10:24:10.390625,111.65
10:24:10.406250,113.12
10:24:10.421875,110.69
10:24:10.437500,105.13
10:24:10.453125,97.23
10:24:10.468750,87.66
10:24:10.484375,76.83
10:24:10.500000,65.22
10:24:10.515625,53.50
10:24:10.531250,42.71
10:24:10.546875,34.10
10:24:10.562500,28.96
10:24:10.578125,28.34
10:24:10.593750,32.84
10:24:10.609375,42.51
10:24:10.625000,56.54
10:24:10.640625,73.04
10:24:10.656250,89.07
10:24:10.671875,101.02
10:24:10.687500,105.62
10:24:10.703125,101.10
10:24:10.718750,87.87
10:24:10.734375,68.52
10:24:10.750000,46.69
10:24:10.765625,25.68
10:24:10.781250,7.36
10:24:10.796875,-8.02
10:24:10.812500,-21.21
10:24:10.828125,-32.91
10:24:10.843750,-43.08
10:24:10.859375,-50.95
10:24:10.875000,-55.61
10:24:10.890625,-56.79
10:24:10.906250,-55.28
10:24:10.921875,-52.70
10:24:10.937500,-50.92
10:24:10.953125,-51.36
10:24:10.968750,-54.47
10:24:10.984375,-59.80
10:24:11,-66.32
10:24:11.015625,-73.08
10:24:11.031250,-79.53
10:24:11.046875,-85.67
10:24:11.062500,-91.82
10:24:11.078125,-98.28
10:24:11.093750,-105.13
10:24:11.109375,-112.18
10:24:11.125000,-119.17
10:24:11.140625,-125.92
10:24:11.156250,-132.35
10:24:11.171875,-138.28
10:24:11.187500,-143.16
10:24:11.203125,-145.94
10:24:11.218750,-145.41
10:24:11.234375,-140.60
10:24:11.250000,-131.34
10:24:11.265625,-118.36
10:24:11.281250,-103.12
10:24:11.296875,-87.21
10:24:11.312500,-71.87
10:24:11.328125,-57.69
10:24:11.343750,-44.87
10:24:11.359375,-33.44
10:24:11.375000,-23.71
10:24:11.390625,-16.18
10:24:11.406250,-11.34
10:24:11.421875,-9.32
10:24:11.437500,-9.58
10:24:11.453125,-11.09
10:24:11.468750,-12.63
10:24:11.484375,-13.24
10:24:11.500000,-12.46
10:24:11.515625,-10.40
10:24:11.531250,-7.46
10:24:11.546875,-4.10
10:24:11.562500,-0.62
10:24:11.578125,2.85
10:24:11.593750,6.13
10:24:11.609375,8.88
10:24:11.625000,10.67
10:24:11.640625,11.18
10:24:11.656250,10.40
10:24:11.671875,8.83
10:24:11.687500,7.21
10:24:11.703125,6.15
10:24:11.718750,5.82
10:24:11.734375,5.82
10:24:11.750000,5.39
10:24:11.765625,3.86
10:24:11.781250,1.04
10:24:11.796875,-2.72
10:24:11.812500,-6.62
10:24:11.828125,-9.74
10:24:11.843750,-11.35
10:24:11.859375,-11.18
10:24:11.875000,-9.42
10:24:11.890625,-6.71
10:24:11.906250,-3.95
10:24:11.921875,-2.08
10:24:11.937500,-1.92
10:24:11.953125,-3.98
10:24:11.968750,-8.35
10:24:11.984375,-14.74
10:24:12,-22.41
10:24:12.015625,-30.35
10:24:12.031250,-37.41
10:24:12.046875,-42.46
10:24:12.062500,-44.65
10:24:12.078125,-43.53
10:24:12.093750,-39.22
10:24:12.109375,-32.28
10:24:12.125000,-23.57
10:24:12.140625,-14.12
10:24:12.156250,-4.86
10:24:12.171875,3.41
10:24:12.187500,10.15
10:24:12.203125,15.08
10:24:12.218750,18.18
10:24:12.234375,19.72
10:24:12.250000,20.08
10:24:12.265625,19.63
10:24:12.281250,18.67
10:24:12.296875,17.30
10:24:12.312500,15.60
10:24:12.328125,13.72
10:24:12.343750,12.00
10:24:12.359375,10.93
10:24:12.375000,10.96
10:24:12.390625,12.34
10:24:12.406250,14.89
10:24:12.421875,18.04
10:24:12.437500,21.02
10:24:12.453125,23.09
10:24:12.468750,23.74
10:24:12.484375,22.81
10:24:12.500000,20.47
10:24:12.515625,17.01
10:24:12.531250,12.78
10:24:12.546875,8.15
10:24:12.562500,3.48
10:24:12.578125,-0.80
10:24:12.593750,-4.22
10:24:12.609375,-6.43
10:24:12.625000,-7.28
10:24:12.640625,-6.98
10:24:12.656250,-6.05
10:24:12.671875,-5.22
10:24:12.687500,-5.23
10:24:12.703125,-6.64
10:24:12.718750,-9.65
10:24:12.734375,-14.09
10:24:12.750000,-19.45
10:24:12.765625,-24.94
10:24:12.781250,-29.64
10:24:12.796875,-32.73
10:24:12.812500,-33.72
10:24:12.828125,-32.59
10:24:12.843750,-29.76
10:24:12.859375,-25.85
10:24:12.875000,-21.39
10:24:12.890625,-16.62
10:24:12.906250,-11.52
10:24:12.921875,-6.05
10:24:12.937500,-0.32
10:24:12.953125,5.29
10:24:12.968750,10.28
10:24:12.984375,14.22
10:24:13,16.93
10:24:13.015625,18.54
10:24:13.031250,19.26
10:24:13.046875,19.34
10:24:13.062500,18.93
10:24:13.078125,18.19
10:24:13.093750,17.32
10:24:13.109375,16.65
10:24:13.125000,16.54
10:24:13.140625,17.19
10:24:13.156250,18.60
10:24:13.171875,20.63
10:24:13.187500,23.01
10:24:13.203125,25.43
10:24:13.218750,27.60
10:24:13.234375,29.20
10:24:13.250000,29.91
10:24:13.265625,29.47
10:24:13.281250,27.77
10:24:13.296875,24.91
10:24:13.312500,21.16
10:24:13.328125,16.97
10:24:13.343750,12.71
10:24:13.359375,8.68
10:24:13.375000,4.97
10:24:13.390625,1.62
10:24:13.406250,-1.41
10:24:13.421875,-4.12
10:24:13.437500,-6.45
10:24:13.453125,-8.37
10:24:13.468750,-10.00
10:24:13.484375,-11.64
10:24:13.500000,-13.80
10:24:13.515625,-16.92
10:24:13.531250,-21.25
10:24:13.546875,-26.57
10:24:13.562500,-32.16
10:24:13.578125,-37.02
10:24:13.593750,-40.13
10:24:13.609375,-40.80
10:24:13.625000,-38.92
10:24:13.640625,-34.90
10:24:13.656250,-29.56
10:24:13.671875,-23.72
10:24:13.687500,-17.96
10:24:13.703125,-12.55
10:24:13.718750,-7.40
10:24:13.734375,-2.36
10:24:13.750000,2.62
10:24:13.765625,7.32
10:24:13.781250,11.34
10:24:13.796875,14.22
10:24:13.812500,15.69
10:24:13.828125,15.86
10:24:13.843750,15.17
10:24:13.859375,14.27
10:24:13.875000,13.78
10:24:13.890625,14.04
10:24:13.906250,15.04
10:24:13.921875,16.53
10:24:13.937500,18.20
10:24:13.953125,19.82
10:24:13.968750,21.40
10:24:13.984375,22.94
10:24:14,24.45
10:24:14.015625,25.72
10:24:14.031250,26.35
10:24:14.046875,25.96
10:24:14.062500,24.30
10:24:14.078125,21.40
10:24:14.093750,17.62
10:24:14.109375,13.47
10:24:14.125000,9.41
10:24:14.140625,5.74
10:24:14.156250,2.56
10:24:14.171875,-0.19
10:24:14.187500,-2.63
10:24:14.203125,-4.88
10:24:14.218750,-7.07
10:24:14.234375,-9.39
10:24:14.250000,-12.05
10:24:14.265625,-15.31
10:24:14.281250,-19.38
10:24:14.296875,-24.34
10:24:14.312500,-30.04
10:24:14.328125,-35.98
10:24:14.343750,-41.43
10:24:14.359375,-45.46
10:24:14.375000,-47.28
10:24:14.390625,-46.37
10:24:14.406250,-42.66
10:24:14.421875,-36.58
10:24:14.437500,-28.90
10:24:14.453125,-20.56
10:24:14.468750,-12.39
10:24:14.484375,-4.92
10:24:14.500000,1.62
10:24:14.515625,7.24
10:24:14.531250,12.03
10:24:14.546875,16.04
10:24:14.562500,19.26
10:24:14.578125,21.71
10:24:14.593750,23.45
10:24:14.609375,24.75
10:24:14.625000,25.90
10:24:14.640625,27.18
10:24:14.656250,28.69
10:24:14.671875,30.32
10:24:14.687500,31.87
10:24:14.703125,33.19
10:24:14.718750,34.35
10:24:14.734375,35.56
10:24:14.750000,37.06
10:24:14.765625,38.92
10:24:14.781250,40.85
10:24:14.796875,42.43
10:24:14.812500,43.15
10:24:14.828125,42.72
10:24:14.843750,41.13
10:24:14.859375,38.59
10:24:14.875000,35.25
10:24:14.890625,31.12
10:24:14.906250,26.02
10:24:14.921875,19.79
10:24:14.937500,12.45
10:24:14.953125,4.32
10:24:14.968750,-3.90
10:24:14.984375,-11.42
10:24:15,-17.47
10:24:15.015625,-21.60
10:24:15.031250,-23.66
10:24:15.046875,-23.88
10:24:15.062500,-22.80
10:24:15.078125,-21.22
10:24:15.093750,-20.06
10:24:15.109375,-20.24
10:24:15.125000,-22.53
10:24:15.140625,-27.31
10:24:15.156250,-34.37
10:24:15.171875,-42.83
10:24:15.187500,-51.04
10:24:15.203125,-57.01
10:24:15.218750,-58.85
10:24:15.234375,-55.43
10:24:15.250000,-46.89
10:24:15.265625,-34.68
10:24:15.281250,-21.07
10:24:15.296875,-8.36
10:24:15.312500,1.97
10:24:15.328125,9.80
10:24:15.343750,16.04
10:24:15.359375,22.15
10:24:15.375000,29.28
10:24:15.390625,37.73
10:24:15.406250,46.86
10:24:15.421875,55.32
10:24:15.437500,61.58
10:24:15.453125,64.32
10:24:15.468750,62.77
10:24:15.484375,56.79
10:24:15.500000,47.03
10:24:15.515625,34.84
10:24:15.531250,22.09
10:24:15.546875,10.80
10:24:15.562500,2.74
10:24:15.578125,-0.99
10:24:15.593750,-0.11
10:24:15.609375,4.89
10:24:15.625000,12.94
10:24:15.640625,22.67
10:24:15.656250,32.59
10:24:15.671875,41.31
10:24:15.687500,47.73
10:24:15.703125,51.20
10:24:15.718750,51.70
10:24:15.734375,49.73
10:24:15.750000,46.22
10:24:15.765625,42.08
10:24:15.781250,37.96
10:24:15.796875,34.03
10:24:15.812500,30.13
10:24:15.828125,26.04
10:24:15.843750,21.73
10:24:15.859375,17.48
10:24:15.875000,13.79
10:24:15.890625,11.13
10:24:15.906250,9.64
10:24:15.921875,9.03
10:24:15.937500,8.58
10:24:15.953125,7.37
10:24:15.968750,4.66
10:24:15.984375,0.13
10:24:16,-5.89
10:24:16.015625,-12.52
10:24:16.031250,-18.59
10:24:16.046875,-23.01
10:24:16.062500,-25.06
10:24:16.078125,-24.59
10:24:16.093750,-21.97
10:24:16.109375,-17.99
10:24:16.125000,-13.51
10:24:16.140625,-9.33
10:24:16.156250,-5.92
10:24:16.171875,-3.49
10:24:16.187500,-1.98
10:24:16.203125,-1.19
10:24:16.218750,-0.81
10:24:16.234375,-0.55
10:24:16.250000,-0.16
10:24:16.265625,0.51
10:24:16.281250,1.46
10:24:16.296875,2.53
10:24:16.312500,3.53
10:24:16.328125,4.29
10:24:16.343750,4.78
10:24:16.359375,5.12
10:24:16.375000,5.54
10:24:16.390625,6.24
10:24:16.406250,7.36
10:24:16.421875,8.93
10:24:16.437500,10.90
10:24:16.453125,13.08
10:24:16.468750,15.24
10:24:16.484375,17.03
10:24:16.500000,18.19
10:24:16.515625,18.53
10:24:16.531250,18.03
10:24:16.546875,16.88
10:24:16.562500,15.28
10:24:16.578125,13.38
10:24:16.593750,11.15
10:24:16.609375,8.59
10:24:16.625000,5.73
10:24:16.640625,2.77
10:24:16.656250,-0.06
10:24:16.671875,-2.57
10:24:16.687500,-4.82
10:24:16.703125,-7.03
10:24:16.718750,-9.48
10:24:16.734375,-12.39
10:24:16.750000,-15.79
10:24:16.765625,-19.57
10:24:16.781250,-23.57
10:24:16.796875,-27.64
10:24:16.812500,-31.60
10:24:16.828125,-35.22
10:24:16.843750,-38.14
10:24:16.859375,-39.96
10:24:16.875000,-40.31
10:24:16.890625,-38.95
10:24:16.906250,-35.88
10:24:16.921875,-31.23
10:24:16.937500,-25.39
10:24:16.953125,-18.81
10:24:16.968750,-12.06
10:24:16.984375,-5.61
10:24:17,0.19
10:24:17.015625,5.21
10:24:17.031250,9.48
10:24:17.046875,13.13
10:24:17.062500,16.32
10:24:17.078125,19.13
10:24:17.093750,21.63
10:24:17.109375,23.83
10:24:17.125000,25.69
10:24:17.140625,27.16
10:24:17.156250,28.06
10:24:17.171875,28.19
10:24:17.187500,27.47
10:24:17.203125,26.02
10:24:17.218750,24.18
10:24:17.234375,22.42
10:24:17.250000,21.11
10:24:17.265625,20.38
10:24:17.281250,20.07
10:24:17.296875,19.85
10:24:17.312500,19.48
10:24:17.328125,18.84
10:24:17.343750,18.06
10:24:17.359375,17.27
10:24:17.375000,16.59
10:24:17.390625,15.96
10:24:17.406250,15.24
10:24:17.421875,14.30
10:24:17.437500,13.04
10:24:17.453125,11.48
10:24:17.468750,9.67
10:24:17.484375,7.68
10:24:17.500000,5.48
10:24:17.515625,2.97
10:24:17.531250,0.10
10:24:17.546875,-3.12
10:24:17.562500,-6.51
10:24:17.578125,-9.81
10:24:17.593750,-12.73
10:24:17.609375,-15.16
10:24:17.625000,-17.25
10:24:17.640625,-19.42
10:24:17.656250,-22.17
10:24:17.671875,-25.78
10:24:17.687500,-30.13
10:24:17.703125,-34.53
10:24:17.718750,-37.89
10:24:17.734375,-39.13
10:24:17.750000,-37.56
10:24:17.765625,-33.15
10:24:17.781250,-26.60
10:24:17.796875,-19.02
10:24:17.812500,-11.47
10:24:17.828125,-4.60
10:24:17.843750,1.55
10:24:17.859375,7.39
10:24:17.875000,13.41
10:24:17.890625,19.86
10:24:17.906250,26.48
10:24:17.921875,32.69
10:24:17.937500,37.80
10:24:17.953125,41.40
10:24:17.968750,43.42
10:24:17.984375,44.21
10:24:18,44.17
10:24:18.015625,43.58
10:24:18.031250,42.49
10:24:18.046875,40.80
10:24:18.062500,38.43
10:24:18.078125,35.32
10:24:18.093750,31.62
10:24:18.109375,27.46
10:24:18.125000,22.97
10:24:18.140625,18.27
10:24:18.156250,13.55
10:24:18.171875,9.13
10:24:18.187500,5.49
10:24:18.203125,3.03
10:24:18.218750,1.72
10:24:18.234375,1.01
10:24:18.250000,-0.16
10:24:18.265625,-3.13
10:24:18.281250,-8.69
10:24:18.296875,-16.60
10:24:18.312500,-25.63
10:24:18.328125,-34.13
10:24:18.343750,-40.72
10:24:18.359375,-44.72
10:24:18.375000,-46.02
10:24:18.390625,-44.99
10:24:18.406250,-42.17
10:24:18.421875,-37.89
10:24:18.437500,-32.25
10:24:18.453125,-25.46
10:24:18.468750,-18.29
10:24:18.484375,-11.96
10:24:18.500000,-7.70
10:24:18.515625,-6.01
10:24:18.531250,-6.43
10:24:18.546875,-8.36
10:24:18.562500,-10.94
10:24:18.578125,-13.56
10:24:18.593750,-16.19
10:24:18.609375,-19.58
10:24:18.625000,-24.72
10:24:18.640625,-31.98
10:24:18.656250,-40.48
10:24:18.671875,-48.31
10:24:18.687500,-54.72
10:24:18.703125,-58.99
10:24:18.718750,-60.15
10:24:18.734375,-57.38
10:24:18.750000,-50.88
10:24:18.765625,-41.88
10:24:18.781250,-31.90
10:24:18.796875,-22.14
10:24:18.812500,-13.10
10:24:18.828125,-7.87
10:24:18.843750,-8.17
10:24:18.859375,-12.79
10:24:18.875000,-18.27
10:24:18.890625,-21.69
10:24:18.906250,-21.81
10:24:18.921875,-18.80
10:24:18.937500,-13.42
10:24:18.953125,-6.61
10:24:18.968750,-4.08
10:24:18.984375,-9.63
10:24:19,-21.97
10:24:19.015625,-35.82
10:24:19.031250,-46.22
10:24:19.046875,-50.96
10:24:19.062500,-50.46
10:24:19.078125,-46.80
10:24:19.093750,-42.90
10:24:19.109375,-48.19
10:24:19.125000,-69.44
10:24:19.140625,-106.48
10:24:19.156250,-153.43
10:24:19.171875,-204.26
10:24:19.187500,-255.91
10:24:19.203125,-307.78
10:24:19.218750,-360.37
10:24:19.234375,-373.61
10:24:19.250000,-326.36
10:24:19.265625,-232.02
10:24:19.281250,-126.63
10:24:19.296875,-37.64
10:24:19.312500,26.27
10:24:19.328125,67.55
10:24:19.343750,92.31
10:24:19.359375,106.87
10:24:19.375000,116.81
10:24:19.390625,119.86
10:24:19.406250,113.92
10:24:19.421875,100.85
10:24:19.437500,85.79
10:24:19.453125,72.83
10:24:19.468750,63.61
10:24:19.484375,58.62
10:24:19.500000,58.14
10:24:19.515625,62.39
10:24:19.531250,66.00
10:24:19.546875,64.23
10:24:19.562500,56.30
10:24:19.578125,45.38
10:24:19.593750,34.99
10:24:19.609375,27.37
10:24:19.625000,23.49
10:24:19.640625,23.32
10:24:19.656250,26.24
10:24:19.671875,28.32
10:24:19.687500,26.67
10:24:19.703125,21.73
10:24:19.718750,16.66
10:24:19.734375,14.27
10:24:19.750000,14.77
10:24:19.765625,18.24
10:24:19.781250,23.46
10:24:19.796875,29.14
10:24:19.812500,32.81
10:24:19.828125,32.98
10:24:19.843750,29.69
10:24:19.859375,24.40
10:24:19.875000,18.39
10:24:19.890625,12.19
10:24:19.906250,6.05
10:24:19.921875,-0.21
10:24:19.937500,-6.61
10:24:19.953125,-13.96
10:24:19.968750,-23.00
10:24:19.984375,-34.16
10:24:20,-47.02
10:24:20.015625,-60.92
10:24:20.031250,-75.02
10:24:20.046875,-88.25
10:24:20.062500,-99.88
10:24:20.078125,-109.68
10:24:20.093750,-118.17
10:24:20.109375,-126.37
10:24:20.125000,-135.25
10:24:20.140625,-144.53
10:24:20.156250,-153.13
10:24:20.171875,-159.52
10:24:20.187500,-162.45
10:24:20.203125,-161.78
10:24:20.218750,-158.32
10:24:20.234375,-153.24
10:24:20.250000,-146.86
10:24:20.265625,-141.58
10:24:20.281250,-137.75
10:24:20.296875,-134.75
10:24:20.312500,-131.70
10:24:20.328125,-127.95
10:24:20.343750,-123.42
10:24:20.359375,-118.33
10:24:20.375000,-112.88
10:24:20.390625,-107.08
10:24:20.406250,-100.95
10:24:20.421875,-94.07
10:24:20.437500,-86.24
10:24:20.453125,-77.62
10:24:20.468750,-68.46
10:24:20.484375,-59.07
10:24:20.500000,-49.55
10:24:20.515625,-39.93
10:24:20.531250,-30.18
10:24:20.546875,-20.46
10:24:20.562500,-10.73
10:24:20.578125,-1.14
10:24:20.593750,8.15
10:24:20.609375,17.07
10:24:20.625000,25.76
10:24:20.640625,34.60
10:24:20.656250,43.96
10:24:20.671875,54.04
10:24:20.687500,64.68
10:24:20.703125,75.63
10:24:20.718750,86.47
10:24:20.734375,96.86
10:24:20.750000,106.77
10:24:20.765625,116.65
10:24:20.781250,127.37
10:24:20.796875,139.93
10:24:20.812500,155.00
10:24:20.828125,172.41
10:24:20.843750,190.99
10:24:20.859375,208.71
10:24:20.875000,223.26
10:24:20.890625,232.95
10:24:20.906250,237.42
10:24:20.921875,237.78
10:24:20.937500,236.28
10:24:20.953125,235.65
10:24:20.968750,238.42
10:24:20.984375,246.22
10:24:21,259.40
10:24:21.015625,276.55
10:24:21.031250,294.63
10:24:21.046875,309.52
10:24:21.062500,317.12
10:24:21.078125,314.68
10:24:21.093750,301.87
10:24:21.109375,280.81
10:24:21.125000,255.21
10:24:21.140625,228.91
10:24:21.156250,204.65
10:24:21.171875,183.69
10:24:21.187500,166.23
10:24:21.203125,152.09
10:24:21.218750,141.12
10:24:21.234375,133.06
10:24:21.250000,127.13
10:24:21.265625,121.78
10:24:21.281250,115.08
10:24:21.296875,105.45
10:24:21.312500,92.45
10:24:21.328125,76.96
10:24:21.343750,60.77
10:24:21.359375,45.86
10:24:21.375000,33.45
10:24:21.390625,23.66
10:24:21.406250,15.65
10:24:21.421875,8.15
10:24:21.437500,0.12
10:24:21.453125,-8.80
10:24:21.468750,-18.29
10:24:21.484375,-27.55
10:24:21.500000,-35.83
10:24:21.515625,-42.72
10:24:21.531250,-48.37
10:24:21.546875,-53.17
10:24:21.562500,-57.57
10:24:21.578125,-61.73
10:24:21.593750,-65.43
10:24:21.609375,-68.29
10:24:21.625000,-70.01
10:24:21.640625,-70.61
10:24:21.656250,-70.42
10:24:21.671875,-69.85
10:24:21.687500,-69.33
10:24:21.703125,-69.10
10:24:21.718750,-69.30
10:24:21.734375,-70.08
10:24:21.750000,-71.57
10:24:21.765625,-73.75
10:24:21.781250,-76.31
10:24:21.796875,-78.50
10:24:21.812500,-79.30
10:24:21.828125,-77.81
10:24:21.843750,-73.56
10:24:21.859375,-66.77
10:24:21.875000,-58.15
10:24:21.890625,-48.59
10:24:21.906250,-38.82
10:24:21.921875,-29.21
10:24:21.937500,-19.89
10:24:21.953125,-10.98
10:24:21.968750,-2.73
10:24:21.984375,4.49
10:24:22,10.34
10:24:22.015625,14.66
10:24:22.031250,17.60
10:24:22.046875,19.42
10:24:22.062500,20.42
10:24:22.078125,20.76
10:24:22.093750,20.45
10:24:22.109375,19.53
10:24:22.125000,18.14
10:24:22.140625,16.56
10:24:22.156250,15.15
10:24:22.171875,14.19
10:24:22.187500,13.79
10:24:22.203125,13.85
10:24:22.218750,14.11
10:24:22.234375,14.21
10:24:22.250000,13.79
10:24:22.265625,12.51
10:24:22.281250,10.09
10:24:22.296875,6.43
10:24:22.312500,1.66
10:24:22.328125,-3.82
10:24:22.343750,-9.44
10:24:22.359375,-14.63
10:24:22.375000,-19.08
10:24:22.390625,-22.80
10:24:22.406250,-26.09
10:24:22.421875,-29.31
10:24:22.437500,-32.70
10:24:22.453125,-36.18
10:24:22.468750,-39.40
10:24:22.484375,-41.85
10:24:22.500000,-43.04
10:24:22.515625,-42.67
10:24:22.531250,-40.63
10:24:22.546875,-37.09
10:24:22.562500,-32.36
10:24:22.578125,-26.93
10:24:22.593750,-21.33
10:24:22.609375,-16.05
10:24:22.625000,-11.43
10:24:22.640625,-7.53
10:24:22.656250,-4.20
10:24:22.671875,-1.16
10:24:22.687500,1.82
10:24:22.703125,4.85
10:24:22.718750,7.83
10:24:22.734375,10.57
10:24:22.750000,12.95
10:24:22.765625,14.97
10:24:22.781250,16.73
10:24:22.796875,18.35
10:24:22.812500,19.86
10:24:22.828125,21.16
10:24:22.843750,22.00
10:24:22.859375,22.12
10:24:22.875000,21.31
10:24:22.890625,19.53
10:24:22.906250,16.90
10:24:22.921875,13.75
10:24:22.937500,10.44
10:24:22.953125,7.30
10:24:22.968750,4.55
10:24:22.984375,2.25
10:24:23,0.30
10:24:23.015625,-1.39
10:24:23.031250,-2.92
10:24:23.046875,-4.36
10:24:23.062500,-5.74
10:24:23.078125,-7.15
10:24:23.093750,-8.68
10:24:23.109375,-10.45
10:24:23.125000,-12.58
10:24:23.140625,-15.17
10:24:23.156250,-18.32
10:24:23.171875,-22.06
10:24:23.187500,-26.27
10:24:23.203125,-30.59
10:24:23.218750,-34.41
10:24:23.234375,-37.03
10:24:23.250000,-37.84
10:24:23.265625,-36.57
10:24:23.281250,-33.37
10:24:23.296875,-28.74
10:24:23.312500,-23.40
10:24:23.328125,-18.04
10:24:23.343750,-13.25
10:24:23.359375,-9.38
10:24:23.375000,-6.59
10:24:23.390625,-4.85
10:24:23.406250,-3.97
10:24:23.421875,-3.70
10:24:23.437500,-3.76
10:24:23.453125,-3.87
10:24:23.468750,-3.81
10:24:23.484375,-3.40
10:24:23.500000,-2.47
10:24:23.515625,-0.89
10:24:23.531250,1.36
10:24:23.546875,4.17
10:24:23.562500,7.26
10:24:23.578125,10.26
10:24:23.593750,12.90
10:24:23.609375,14.99
10:24:23.625000,16.56
10:24:23.640625,17.73
10:24:23.656250,18.61
10:24:23.671875,19.24
10:24:23.687500,19.52
10:24:23.703125,19.27
10:24:23.718750,18.33
10:24:23.734375,16.61
10:24:23.750000,14.15
10:24:23.765625,11.07
10:24:23.781250,7.61
10:24:23.796875,4.03
10:24:23.812500,0.57
10:24:23.828125,-2.68
10:24:23.843750,-5.79
10:24:23.859375,-9.00
10:24:23.875000,-12.63
10:24:23.890625,-17.00
10:24:23.906250,-22.28
10:24:23.921875,-28.41
10:24:23.937500,-35.09
10:24:23.953125,-41.68
10:24:23.968750,-47.37
10:24:23.984375,-51.24
10:24:24,-52.58
10:24:24.015625,-51.04
10:24:24.031250,-46.84
10:24:24.046875,-40.64
10:24:24.062500,-33.36
10:24:24.078125,-25.83
10:24:24.093750,-18.60
10:24:24.109375,-11.85
10:24:24.125000,-5.56
10:24:24.140625,0.37
10:24:24.156250,5.92
10:24:24.171875,10.90
10:24:24.187500,15.06
10:24:24.203125,18.12
10:24:24.218750,19.92
10:24:24.234375,20.43
10:24:24.250000,19.83
10:24:24.265625,18.40
10:24:24.281250,16.49
10:24:24.296875,14.41
10:24:24.312500,12.46
10:24:24.328125,10.83
10:24:24.343750,9.69
10:24:24.359375,9.13
10:24:24.375000,9.21
10:24:24.390625,9.86
10:24:24.406250,10.84
10:24:24.421875,11.77
10:24:24.437500,12.19
10:24:24.453125,11.77
10:24:24.468750,10.39
10:24:24.484375,8.24
10:24:24.500000,5.62
10:24:24.515625,2.90
10:24:24.531250,0.33
10:24:24.546875,-1.96
10:24:24.562500,-4.05
10:24:24.578125,-6.07
10:24:24.593750,-8.29
10:24:24.609375,-11.01
10:24:24.625000,-14.46
10:24:24.640625,-18.72
10:24:24.656250,-23.57
10:24:24.671875,-28.43
10:24:24.687500,-32.48
10:24:24.703125,-34.89
10:24:24.718750,-35.09
10:24:24.734375,-33.03
10:24:24.750000,-29.14
10:24:24.765625,-24.15
10:24:24.781250,-18.87
10:24:24.796875,-13.87
10:24:24.812500,-9.41
10:24:24.828125,-5.41
10:24:24.843750,-1.71
10:24:24.859375,1.92
10:24:24.875000,5.58
10:24:24.890625,9.21
10:24:24.906250,12.70
10:24:24.921875,15.85
10:24:24.937500,18.53
10:24:24.953125,20.70
10:24:24.968750,22.38
10:24:24.984375,23.66
10:24:25,24.65
10:24:25.015625,25.35
10:24:25.031250,25.64
10:24:25.046875,25.32
10:24:25.062500,24.09
10:24:25.078125,21.77
10:24:25.093750,18.32
10:24:25.109375,13.90
10:24:25.125000,8.83
10:24:25.140625,3.49
10:24:25.156250,-1.79
10:24:25.171875,-6.70
10:24:25.187500,-10.98
10:24:25.203125,-14.28
10:24:25.218750,-16.22
10:24:25.234375,-16.45
10:24:25.250000,-14.79
10:24:25.265625,-11.40
10:24:25.281250,-6.75
10:24:25.296875,-1.63
10:24:25.312500,3.09
10:24:25.328125,6.58
10:24:25.343750,8.21
10:24:25.359375,7.59
10:24:25.375000,4.62
10:24:25.390625,-0.49
10:24:25.406250,-7.27
10:24:25.421875,-14.93
10:24:25.437500,-22.52
10:24:25.453125,-29.08
10:24:25.468750,-33.75
10:24:25.484375,-36.04
10:24:25.500000,-35.73
10:24:25.515625,-32.91
10:24:25.531250,-27.83
10:24:25.546875,-20.78
10:24:25.562500,-12.06
10:24:25.578125,-2.00
10:24:25.593750,8.90
10:24:25.609375,19.93
10:24:25.625000,30.20
10:24:25.640625,38.64
10:24:25.656250,44.27
10:24:25.671875,46.44
10:24:25.687500,44.90
10:24:25.703125,40.01
10:24:25.718750,32.57
10:24:25.734375,23.68
10:24:25.750000,14.60
10:24:25.765625,6.43
10:24:25.781250,-0.02
10:24:25.796875,-4.30
10:24:25.812500,-6.35
10:24:25.828125,-6.40
10:24:25.843750,-4.83
10:24:25.859375,-2.05
10:24:25.875000,1.49
10:24:25.890625,5.26
10:24:25.906250,8.65
10:24:25.921875,11.03
10:24:25.937500,11.91
10:24:25.953125,11.14
10:24:25.968750,9.01
10:24:25.984375,6.17
10:24:26,3.46
10:24:26.015625,1.58
10:24:26.031250,0.84
10:24:26.046875,1.02
10:24:26.062500,1.37
10:24:26.078125,0.86
10:24:26.093750,-1.66
10:24:26.109375,-7.03
10:24:26.125000,-15.55
10:24:26.140625,-26.63
10:24:26.156250,-38.94
10:24:26.171875,-50.59
10:24:26.187500,-59.75
10:24:26.203125,-65.22
10:24:26.218750,-66.81
10:24:26.234375,-65.27
10:24:26.250000,-61.89
10:24:26.265625,-57.94
10:24:26.281250,-54.25
10:24:26.296875,-51.07
10:24:26.312500,-48.37
10:24:26.328125,-46.08
10:24:26.343750,-44.47
10:24:26.359375,-44.00
10:24:26.375000,-45.08
10:24:26.390625,-47.76
10:24:26.406250,-51.55
10:24:26.421875,-55.58
10:24:26.437500,-58.87
10:24:26.453125,-60.71
10:24:26.468750,-60.91
10:24:26.484375,-59.74
10:24:26.500000,-57.76
10:24:26.515625,-55.55
10:24:26.531250,-53.49
10:24:26.546875,-51.64
10:24:26.562500,-49.78
10:24:26.578125,-47.63
10:24:26.593750,-45.09
10:24:26.609375,-42.41
10:24:26.625000,-40.26
10:24:26.640625,-39.39
10:24:26.656250,-40.25
10:24:26.671875,-42.61
10:24:26.687500,-45.30
10:24:26.703125,-46.52
10:24:26.718750,-44.35
10:24:26.734375,-37.46
10:24:26.750000,-25.58
10:24:26.765625,-9.65
10:24:26.781250,8.36
10:24:26.796875,25.75
10:24:26.812500,39.42
10:24:26.828125,46.26
10:24:26.843750,43.88
10:24:26.859375,31.63
10:24:26.875000,11.49
10:24:26.890625,-11.71
10:24:26.906250,-31.49
10:24:26.921875,-41.80
10:24:26.937500,-39.34
10:24:26.953125,-24.68
10:24:26.968750,-1.63
10:24:26.984375,24.69
10:24:27,50.22
10:24:27.015625,73.13
10:24:27.031250,93.59
10:24:27.046875,112.41
10:24:27.062500,129.59
10:24:27.078125,143.89
10:24:27.093750,153.49
10:24:27.109375,157.24
10:24:27.125000,155.51
10:24:27.140625,150.16
10:24:27.156250,143.58
10:24:27.171875,137.45
10:24:27.187500,131.96
10:24:27.203125,125.95
10:24:27.218750,117.73
10:24:27.234375,106.20
10:24:27.250000,91.46
10:24:27.265625,74.87
10:24:27.281250,58.32
10:24:27.296875,43.27
10:24:27.312500,30.23
10:24:27.328125,18.73
10:24:27.343750,8.00
10:24:27.359375,-2.28
10:24:27.375000,-11.56
10:24:27.390625,-18.67
10:24:27.406250,-22.55
10:24:27.421875,-22.85
10:24:27.437500,-20.28
10:24:27.453125,-16.16
10:24:27.468750,-11.89
10:24:27.484375,-8.30
10:24:27.500000,-5.49
10:24:27.515625,-3.00
10:24:27.531250,-0.33
10:24:27.546875,2.72
10:24:27.562500,5.86
10:24:27.578125,8.38
10:24:27.593750,9.50
10:24:27.609375,8.73
10:24:27.625000,6.02
10:24:27.640625,1.80
10:24:27.656250,-3.26
10:24:27.671875,-8.49
10:24:27.687500,-13.48
10:24:27.703125,-18.08
10:24:27.718750,-22.44
10:24:27.734375,-26.75
10:24:27.750000,-31.20
10:24:27.765625,-35.94
10:24:27.781250,-41.03
10:24:27.796875,-46.53
10:24:27.812500,-52.35
10:24:27.828125,-58.20
10:24:27.843750,-63.47
10:24:27.859375,-67.28
10:24:27.875000,-68.73
10:24:27.890625,-67.09
10:24:27.906250,-62.21
10:24:27.921875,-54.54
10:24:27.937500,-45.12
10:24:27.953125,-35.30
10:24:27.968750,-26.45
10:24:27.984375,-19.63
10:24:28,-15.36
10:24:28.015625,-13.61
10:24:28.031250,-13.79
10:24:28.046875,-15.05
10:24:28.062500,-16.37
10:24:28.078125,-16.81
10:24:28.093750,-15.69
10:24:28.109375,-12.90
10:24:28.125000,-9.07
10:24:28.140625,-5.67
10:24:28.156250,-4.63
10:24:28.171875,-7.72
10:24:28.187500,-15.71
10:24:28.203125,-27.91
10:24:28.218750,-42.32
10:24:28.234375,-56.24
10:24:28.250000,-67.08
10:24:28.265625,-72.73
10:24:28.281250,-71.69
10:24:28.296875,-63.00
10:24:28.312500,-46.49
10:24:28.328125,-23.55
10:24:28.343750,2.26
10:24:28.359375,25.27
10:24:28.375000,38.97
10:24:28.390625,38.35
10:24:28.406250,22.19
10:24:28.421875,-6.01
10:24:28.437500,-38.94
10:24:28.453125,-68.26
10:24:28.468750,-87.69
10:24:28.484375,-94.98
10:24:28.500000,-91.96
10:24:28.515625,-83.04
10:24:28.531250,-73.09
10:24:28.546875,-65.96
10:24:28.562500,-63.98
10:24:28.578125,-68.29
10:24:28.593750,-79.16
10:24:28.609375,-96.29
10:24:28.625000,-118.66
10:24:28.640625,-144.57
10:24:28.656250,-171.65
10:24:28.671875,-197.19
10:24:28.687500,-218.32
10:24:28.703125,-232.14
10:24:28.718750,-236.12
10:24:28.734375,-228.69
10:24:28.750000,-209.97
10:24:28.765625,-182.05
10:24:28.781250,-148.57
10:24:28.796875,-113.42
10:24:28.812500,-79.23
10:24:28.828125,-46.71
10:24:28.843750,-15.01
10:24:28.859375,17.14
10:24:28.875000,50.18
10:24:28.890625,83.24
10:24:28.906250,114.48
10:24:28.921875,141.72
10:24:28.937500,163.17
10:24:28.953125,177.97
10:24:28.968750,186.39
10:24:28.984375,189.98
10:24:29,191.52
10:24:29.015625,194.39
10:24:29.031250,201.46
10:24:29.046875,213.95
10:24:29.062500,230.90
10:24:29.078125,249.76
10:24:29.093750,267.93
10:24:29.109375,284.04
10:24:29.125000,298.35
10:24:29.140625,311.92
10:24:29.156250,325.17
10:24:29.171875,336.81
10:24:29.187500,344.27
10:24:29.203125,345.05
10:24:29.218750,338.35
10:24:29.234375,325.74
10:24:29.250000,310.10
10:24:29.265625,293.56
10:24:29.281250,275.63
10:24:29.296875,253.17
10:24:29.312500,222.30
10:24:29.328125,181.00
10:24:29.343750,130.72
10:24:29.359375,75.71
10:24:29.375000,20.46
10:24:29.390625,-33.20
10:24:29.406250,-86.99
10:24:29.421875,-144.22
10:24:29.437500,-206.50
10:24:29.453125,-270.83
10:24:29.468750,-329.39
10:24:29.484375,-372.65
10:24:29.500000,-393.30
10:24:29.515625,-389.11
10:24:29.531250,-362.96
10:24:29.546875,-320.65
10:24:29.562500,-268.68
10:24:29.578125,-213.62
10:24:29.593750,-163.00
10:24:29.609375,-125.95
10:24:29.625000,-111.58
10:24:29.640625,-125.24
10:24:29.656250,-164.60
10:24:29.671875,-218.54
10:24:29.687500,-270.05
10:24:29.703125,-302.47
10:24:29.718750,-305.54
10:24:29.734375,-278.24
10:24:29.750000,-227.15
10:24:29.765625,-162.20
10:24:29.781250,-92.50
10:24:29.796875,-24.44
10:24:29.812500,37.62
10:24:29.828125,89.91
10:24:29.843750,128.62
10:24:29.859375,150.98
10:24:29.875000,156.94
10:24:29.890625,149.96
10:24:29.906250,135.97
10:24:29.921875,121.25
10:24:29.937500,109.94
10:24:29.953125,103.00
10:24:29.968750,98.74
10:24:29.984375,94.24
10:24:30,87.03
10:24:30.015625,75.96
10:24:30.031250,61.18
10:24:30.046875,43.66
10:24:30.062500,24.72
10:24:30.078125,5.79
10:24:30.093750,-11.60
10:24:30.109375,-25.93
10:24:30.125000,-36.06
10:24:30.140625,-41.75
10:24:30.156250,-44.08
10:24:30.171875,-45.24
10:24:30.187500,-47.40
10:24:30.203125,-51.38
10:24:30.218750,-55.60
10:24:30.234375,-56.11
10:24:30.250000,-47.89
10:24:30.265625,-26.71
10:24:30.281250,9.31
10:24:30.296875,59.28
10:24:30.312500,119.96
10:24:30.328125,186.41
10:24:30.343750,252.41
10:24:30.359375,310.70
10:24:30.375000,353.78
10:24:30.390625,375.77
10:24:30.406250,374.92
10:24:30.421875,355.48
10:24:30.437500,327.20
10:24:30.453125,302.12
10:24:30.468750,289.58
10:24:30.484375,292.02
10:24:30.500000,303.91
10:24:30.515625,314.57
10:24:30.531250,313.33
10:24:30.546875,294.30
10:24:30.562500,258.43
10:24:30.578125,212.19
10:24:30.593750,163.71
10:24:30.609375,119.12
10:24:30.625000,80.82
10:24:30.640625,47.98
10:24:30.656250,18.44
10:24:30.671875,-9.59
10:24:30.687500,-36.50
10:24:30.703125,-61.79
10:24:30.718750,-84.60
10:24:30.734375,-104.77
10:24:30.750000,-122.96
10:24:30.765625,-140.05
10:24:30.781250,-156.13
10:24:30.796875,-169.63
10:24:30.812500,-177.35
10:24:30.828125,-175.63
10:24:30.843750,-162.22
10:24:30.859375,-137.51
10:24:30.875000,-105.85
10:24:30.890625,-74.46
10:24:30.906250,-50.65
10:24:30.921875,-38.62
10:24:30.937500,-37.63
10:24:30.953125,-42.79
10:24:30.968750,-47.81
10:24:30.984375,-48.25
10:24:31,-42.12
10:24:31.015625,-31.17
10:24:31.031250,-19.28
10:24:31.046875,-9.76
10:24:31.062500,-3.59
10:24:31.078125,0.48
10:24:31.093750,3.99
10:24:31.109375,6.92
10:24:31.125000,7.29
10:24:31.140625,4.95
10:24:31.156250,-0.21
10:24:31.171875,-7.80
10:24:31.187500,-16.29
10:24:31.203125,-22.44
10:24:31.218750,-21.81
10:24:31.234375,-10.46
10:24:31.250000,13.35
10:24:31.265625,48.41
10:24:31.281250,94.81
10:24:31.296875,149.00
10:24:31.312500,203.62
10:24:31.328125,249.90
10:24:31.343750,281.39
10:24:31.359375,296.87
10:24:31.375000,299.80
10:24:31.390625,295.96
10:24:31.406250,290.66
10:24:31.421875,292.05
10:24:31.437500,302.80
10:24:31.453125,318.97
10:24:31.468750,332.87
10:24:31.484375,337.84
10:24:31.500000,332.11
10:24:31.515625,318.31
10:24:31.531250,301.10
10:24:31.546875,250.72
10:24:31.562500,156.11
10:24:31.578125,29.04
10:24:31.593750,-102.16
10:24:31.609375,-212.78
10:24:31.625000,-293.74
10:24:31.640625,-347.43
10:24:31.656250,-380.95
10:24:31.671875,-401.80
10:24:31.687500,-416.22
10:24:31.703125,-422.93
10:24:31.718750,-420.82
10:24:31.734375,-412.43
10:24:31.750000,-402.44
10:24:31.765625,-396.35
10:24:31.781250,-397.78
10:24:31.796875,-408.85
10:24:31.812500,-430.65
10:24:31.828125,-462.92
10:24:31.843750,-499.02
10:24:31.859375,-531.80
10:24:31.875000,-556.50
10:24:31.890625,-565.48
10:24:31.906250,-555.84
10:24:31.921875,-528.50
10:24:31.937500,-488.37
10:24:31.953125,-443.10
10:24:31.968750,-400.27
10:24:31.984375,-362.01
10:24:32,-327.64
10:24:32.015625,-295.52
10:24:32.031250,-264.52
10:24:32.046875,-235.28
10:24:32.062500,-208.64
10:24:32.078125,-185.08
10:24:32.093750,-164.29
10:24:32.109375,-145.00
10:24:32.125000,-124.18
10:24:32.140625,-99.60
10:24:32.156250,-70.90
10:24:32.171875,-39.31
10:24:32.187500,-7.60
10:24:32.203125,22.07
10:24:32.218750,48.61
10:24:32.234375,72.16
10:24:32.250000,93.66
10:24:32.265625,114.84
10:24:32.281250,137.03
10:24:32.296875,160.59
10:24:32.312500,185.12
10:24:32.328125,209.59
10:24:32.343750,233.48
10:24:32.359375,256.88
10:24:32.375000,280.04
10:24:32.390625,302.65
10:24:32.406250,323.27
10:24:32.421875,339.44
10:24:32.437500,348.48
10:24:32.453125,348.64
10:24:32.468750,339.66
10:24:32.484375,323.08
10:24:32.500000,301.49
10:24:32.515625,277.51
10:24:32.531250,252.97
10:24:32.546875,228.69
10:24:32.562500,204.87
10:24:32.578125,181.61
10:24:32.593750,159.28
10:24:32.609375,138.31
10:24:32.625000,119.07
10:24:32.640625,101.64
10:24:32.656250,85.86
10:24:32.671875,71.56
10:24:32.687500,58.79
10:24:32.703125,47.83
10:24:32.718750,39.05
10:24:32.734375,32.62
10:24:32.750000,28.30
10:24:32.765625,25.43
10:24:32.781250,23.13
10:24:32.796875,20.63
10:24:32.812500,17.47
10:24:32.828125,13.68
10:24:32.843750,9.70
10:24:32.859375,6.19
10:24:32.875000,3.68
10:24:32.890625,2.36
10:24:32.906250,1.91
10:24:32.921875,1.65
10:24:32.937500,0.81
10:24:32.953125,-1.16
10:24:32.968750,-4.36
10:24:32.984375,-8.43
10:24:33,-12.68
10:24:33.015625,-16.43
10:24:33.031250,-19.21
10:24:33.046875,-20.78
10:24:33.062500,-21.17
10:24:33.078125,-20.54
10:24:33.093750,-19.14
10:24:33.109375,-17.25
10:24:33.125000,-15.18
10:24:33.140625,-13.18
10:24:33.156250,-11.35
10:24:33.171875,-9.58
10:24:33.187500,-7.57
10:24:33.203125,-5.01
10:24:33.218750,-1.78
10:24:33.234375,1.97
10:24:33.250000,5.88
10:24:33.265625,9.44
10:24:33.281250,12.20
10:24:33.296875,13.84
10:24:33.312500,14.21
10:24:33.328125,13.25
10:24:33.343750,11.00
10:24:33.359375,7.54
10:24:33.375000,3.10
10:24:33.390625,-1.98
10:24:33.406250,-7.28
10:24:33.421875,-12.41
10:24:33.437500,-17.18
10:24:33.453125,-21.57
10:24:33.468750,-25.71
10:24:33.484375,-29.67
10:24:33.500000,-33.32
10:24:33.515625,-36.21
10:24:33.531250,-37.74
10:24:33.546875,-37.32
10:24:33.562500,-34.74
10:24:33.578125,-30.23
10:24:33.593750,-24.44
10:24:33.609375,-18.27
10:24:33.625000,-12.53
10:24:33.640625,-7.71
10:24:33.656250,-3.86
10:24:33.671875,-0.73
10:24:33.687500,2.05
10:24:33.703125,4.67
10:24:33.718750,7.00
10:24:33.734375,8.62
10:24:33.750000,9.09
10:24:33.765625,8.18
10:24:33.781250,5.96
10:24:33.796875,2.83
10:24:33.812500,-0.70
10:24:33.828125,-4.21
10:24:33.843750,-7.45
10:24:33.859375,-10.26
10:24:33.875000,-12.44
10:24:33.890625,-13.68
10:24:33.906250,-13.69
10:24:33.921875,-12.35
10:24:33.937500,-9.87
10:24:33.953125,-6.80
10:24:33.968750,-3.80
10:24:33.984375,-1.39
10:24:34,0.24
10:24:34.015625,1.25
10:24:34.031250,1.91
10:24:34.046875,2.46
10:24:34.062500,2.86
10:24:34.078125,2.81
10:24:34.093750,1.92
10:24:34.109375,-0.16
10:24:34.125000,-3.54
10:24:34.140625,-8.02
10:24:34.156250,-13.12
10:24:34.171875,-18.16
10:24:34.187500,-22.38
10:24:34.203125,-25.17
10:24:34.218750,-26.14
10:24:34.234375,-25.24
10:24:34.250000,-22.78
10:24:34.265625,-19.22
10:24:34.281250,-15.03
10:24:34.296875,-10.52
10:24:34.312500,-5.80
10:24:34.328125,-0.87
10:24:34.343750,4.21
10:24:34.359375,9.22
10:24:34.375000,13.72
10:24:34.390625,17.27
10:24:34.406250,19.54
10:24:34.421875,20.47
10:24:34.437500,20.28
10:24:34.453125,19.37
10:24:34.468750,18.09
10:24:34.484375,16.70
10:24:34.500000,15.26
10:24:34.515625,13.79
10:24:34.531250,12.29
10:24:34.546875,10.90
10:24:34.562500,9.84
10:24:34.578125,9.33
10:24:34.593750,9.57
10:24:34.609375,10.58
10:24:34.625000,12.24
10:24:34.640625,14.38
10:24:34.656250,16.82
10:24:34.671875,19.48
10:24:34.687500,22.42
10:24:34.703125,25.83
10:24:34.718750,29.90
10:24:34.734375,34.71
10:24:34.750000,40.18
10:24:34.765625,45.98
10:24:34.781250,51.68
10:24:34.796875,56.87
10:24:34.812500,61.27
10:24:34.828125,64.92
10:24:34.843750,68.06
10:24:34.859375,71.16
10:24:34.875000,74.62
10:24:34.890625,78.68
10:24:34.906250,83.28
10:24:34.921875,88.14
10:24:34.937500,92.94
10:24:34.953125,97.45
10:24:34.968750,101.67
10:24:34.984375,105.76
10:24:35,109.87
10:24:35.015625,114.01
10:24:35.031250,117.90
10:24:35.046875,121.21
10:24:35.062500,123.60
10:24:35.078125,124.90
10:24:35.093750,124.91
10:24:35.109375,123.28
10:24:35.125000,119.37
10:24:35.140625,112.45
10:24:35.156250,102.03
10:24:35.171875,88.33
10:24:35.187500,72.41
10:24:35.203125,55.86
10:24:35.218750,40.21
10:24:35.234375,26.43
10:24:35.250000,14.73
10:24:35.265625,4.79
10:24:35.281250,-3.82
10:24:35.296875,-11.23
10:24:35.312500,-17.24
10:24:35.328125,-21.68
10:24:35.343750,-24.79
10:24:35.359375,-27.53
10:24:35.375000,-31.47
10:24:35.390625,-38.35
10:24:35.406250,-49.59
10:24:35.421875,-65.81
10:24:35.437500,-86.88
10:24:35.453125,-112.16
10:24:35.468750,-140.89
10:24:35.484375,-172.39
10:24:35.500000,-205.76
10:24:35.515625,-239.44
10:24:35.531250,-270.86
10:24:35.546875,-296.76
10:24:35.562500,-314.12
10:24:35.578125,-321.36
10:24:35.593750,-319.05
10:24:35.609375,-309.76
10:24:35.625000,-296.76
10:24:35.640625,-282.39
10:24:35.656250,-266.93
10:24:35.671875,-248.56
10:24:35.687500,-224.44
10:24:35.703125,-192.35
10:24:35.718750,-151.95
10:24:35.734375,-105.32
10:24:35.750000,-56.79
10:24:35.765625,-12.17
10:24:35.781250,22.33
10:24:35.796875,41.58
10:24:35.812500,43.32
10:24:35.828125,29.81
10:24:35.843750,8.23
10:24:35.859375,-10.72
10:24:35.875000,-16.27
10:24:35.890625,-1.79
10:24:35.906250,32.10
10:24:35.921875,77.24
10:24:35.937500,120.70
10:24:35.953125,149.41
10:24:35.968750,154.46
10:24:35.984375,133.30
10:24:36,89.34
10:24:36.015625,29.66
10:24:36.031250,-37.38
10:24:36.046875,-103.80
10:24:36.062500,-162.67
10:24:36.078125,-208.51
10:24:36.093750,-237.83
10:24:36.109375,-250.13
10:24:36.125000,-248.40
10:24:36.140625,-238.71
10:24:36.156250,-228.30
10:24:36.171875,-223.03
10:24:36.187500,-225.15
10:24:36.203125,-232.65
10:24:36.218750,-240.43
10:24:36.234375,-242.53
10:24:36.250000,-234.79
10:24:36.265625,-216.20
10:24:36.281250,-188.90
10:24:36.296875,-157.00
10:24:36.312500,-124.81
10:24:36.328125,-95.70
10:24:36.343750,-71.52
10:24:36.359375,-52.84
10:24:36.375000,-39.34
10:24:36.390625,-30.18
10:24:36.406250,-24.13
10:24:36.421875,-19.70
10:24:36.437500,-15.41
10:24:36.453125,-10.22
10:24:36.468750,-3.94
10:24:36.484375,2.76
10:24:36.500000,8.66
10:24:36.515625,12.74
10:24:36.531250,14.87
10:24:36.546875,16.07
10:24:36.562500,18.40
10:24:36.578125,24.21
10:24:36.593750,35.19
10:24:36.609375,51.83
10:24:36.625000,73.19
10:24:36.640625,97.33
10:24:36.656250,122.12
10:24:36.671875,146.06
10:24:36.687500,168.96
10:24:36.703125,192.24
10:24:36.718750,218.87
10:24:36.734375,252.61
10:24:36.750000,296.52
10:24:36.765625,350.92
10:24:36.781250,411.78
10:24:36.796875,470.50
10:24:36.812500,515.88
10:24:36.828125,537.78
10:24:36.843750,531.01
10:24:36.859375,497.37
10:24:36.875000,444.77
10:24:36.890625,383.71
10:24:36.906250,323.05
10:24:36.921875,267.01
10:24:36.937500,215.05
10:24:36.953125,163.93
10:24:36.968750,110.46
10:24:36.984375,53.17
10:24:37,-7.66
10:24:37.015625,-70.71
10:24:37.031250,-134.09
10:24:37.046875,-194.76
10:24:37.062500,-248.03
10:24:37.078125,-288.16
10:24:37.093750,-310.44
10:24:37.109375,-313.65
10:24:37.125000,-301.18
10:24:37.140625,-279.69
10:24:37.156250,-255.90
10:24:37.171875,-233.31
10:24:37.187500,-211.00
10:24:37.203125,-185.25
10:24:37.218750,-152.57
10:24:37.234375,-112.31
10:24:37.250000,-67.11
10:24:37.265625,-21.01
10:24:37.281250,23.08
10:24:37.296875,64.97
10:24:37.312500,107.14
10:24:37.328125,153.17
10:24:37.343750,205.84
10:24:37.359375,265.72
10:24:37.375000,330.35
10:24:37.390625,394.21
10:24:37.406250,449.71
10:24:37.421875,488.82
10:24:37.437500,505.40
10:24:37.453125,497.41
10:24:37.468750,467.63
10:24:37.484375,422.60
10:24:37.500000,370.29
10:24:37.515625,317.37
10:24:37.531250,267.59
10:24:37.546875,221.68
10:24:37.562500,178.51
10:24:37.578125,136.30
10:24:37.593750,93.39
10:24:37.609375,48.50
10:24:37.625000,1.04
10:24:37.640625,-48.43
10:24:37.656250,-97.66
10:24:37.671875,-142.76
10:24:37.687500,-179.43
10:24:37.703125,-204.82
10:24:37.718750,-219.01
10:24:37.734375,-225.73
10:24:37.750000,-231.44
10:24:37.765625,-243.36
10:24:37.781250,-266.69
10:24:37.796875,-302.37
10:24:37.812500,-346.06
10:24:37.828125,-388.92
10:24:37.843750,-420.02
10:24:37.859375,-429.73
10:24:37.875000,-413.00
10:24:37.890625,-371.08
10:24:37.906250,-311.15
10:24:37.921875,-243.81
10:24:37.937500,-179.24
10:24:37.953125,-123.95
10:24:37.968750,-79.21
10:24:37.984375,-42.15
10:24:38,-8.47
10:24:38.015625,24.62
10:24:38.031250,56.82
10:24:38.046875,85.24
10:24:38.062500,106.38
10:24:38.078125,118.50
10:24:38.093750,122.62
10:24:38.109375,122.13
10:24:38.125000,120.89
10:24:38.140625,121.36
10:24:38.156250,123.74
10:24:38.171875,126.55
10:24:38.187500,128.17
10:24:38.203125,128.01
10:24:38.218750,126.64
10:24:38.234375,124.90
10:24:38.250000,122.79
10:24:38.265625,118.84
10:24:38.281250,110.55
10:24:38.296875,95.47
10:24:38.312500,72.17
10:24:38.328125,40.55
10:24:38.343750,1.34
10:24:38.359375,-44.52
10:24:38.375000,-96.09
10:24:38.390625,-151.88
10:24:38.406250,-209.01
10:24:38.421875,-262.69
10:24:38.437500,-306.80
10:24:38.453125,-335.53
10:24:38.468750,-345.19
10:24:38.484375,-335.42
10:24:38.500000,-308.91
10:24:38.515625,-270.02
10:24:38.531250,-223.02
10:24:38.546875,-171.16
10:24:38.562500,-116.82
10:24:38.578125,-62.43
10:24:38.593750,-11.06
10:24:38.609375,33.99
10:24:38.625000,70.33
10:24:38.640625,97.77
10:24:38.656250,118.49
10:24:38.671875,135.70
10:24:38.687500,151.66
10:24:38.703125,166.15
10:24:38.718750,176.39
10:24:38.734375,178.56
10:24:38.750000,170.08
10:24:38.765625,151.34
10:24:38.781250,125.86
10:24:38.796875,99.06
10:24:38.812500,76.13
10:24:38.828125,60.42
10:24:38.843750,52.61
10:24:38.859375,51.22
10:24:38.875000,53.60
10:24:38.890625,57.06
10:24:38.906250,59.56
10:24:38.921875,60.02
10:24:38.937500,58.13
10:24:38.953125,54.03
10:24:38.968750,48.09
10:24:38.984375,40.73
10:24:39,32.43
10:24:39.015625,23.76
10:24:39.031250,15.48
10:24:39.046875,8.32
10:24:39.062500,2.85
10:24:39.078125,-0.81
10:24:39.093750,-3.11
10:24:39.109375,-4.90
10:24:39.125000,-7.10
10:24:39.140625,-10.24
10:24:39.156250,-14.17
10:24:39.171875,-18.14
10:24:39.187500,-21.20
10:24:39.203125,-22.67
10:24:39.218750,-22.50
10:24:39.234375,-21.35
10:24:39.250000,-20.26
10:24:39.265625,-20.19
10:24:39.281250,-21.58
10:24:39.296875,-24.14
10:24:39.312500,-26.94
10:24:39.328125,-28.86
10:24:39.343750,-29.03
10:24:39.359375,-27.13
10:24:39.375000,-23.57
10:24:39.390625,-19.14
10:24:39.406250,-14.72
10:24:39.421875,-10.92
10:24:39.437500,-7.84
10:24:39.453125,-5.26
10:24:39.468750,-2.78
10:24:39.484375,-0.12
10:24:39.500000,2.66
10:24:39.515625,5.25
10:24:39.531250,7.15
10:24:39.546875,7.96
10:24:39.562500,7.46
10:24:39.578125,5.80
10:24:39.593750,3.39
10:24:39.609375,0.76
10:24:39.625000,-1.54
10:24:39.640625,-3.16
10:24:39.656250,-3.99
10:24:39.671875,-4.15
10:24:39.687500,-3.87
10:24:39.703125,-3.37
10:24:39.718750,-2.84
10:24:39.734375,-2.39
10:24:39.750000,-2.10
10:24:39.765625,-2.02
10:24:39.781250,-2.16
10:24:39.796875,-2.47
10:24:39.812500,-2.76
10:24:39.828125,-2.81
10:24:39.843750,-2.41
10:24:39.859375,-1.53
10:24:39.875000,-0.37
10:24:39.890625,0.71
10:24:39.906250,1.26
10:24:39.921875,1.02
10:24:39.937500,-0.05
10:24:39.953125,-1.73
10:24:39.968750,-3.64
10:24:39.984375,-5.44
10:24:40,-6.91
10:24:40.015625,-7.97
10:24:40.031250,-8.64
10:24:40.046875,-8.98
10:24:40.062500,-9.10
10:24:40.078125,-9.16
10:24:40.093750,-9.33
10:24:40.109375,-9.86
10:24:40.125000,-10.94
10:24:40.140625,-12.62
10:24:40.156250,-14.72
10:24:40.171875,-16.88
10:24:40.187500,-18.57
10:24:40.203125,-19.31
10:24:40.218750,-18.82
10:24:40.234375,-17.09
10:24:40.250000,-14.46
10:24:40.265625,-11.38
10:24:40.281250,-8.37
10:24:40.296875,-5.77
10:24:40.312500,-3.71
10:24:40.328125,-2.07
10:24:40.343750,-0.69
10:24:40.359375,0.62
10:24:40.375000,1.95
10:24:40.390625,3.34
10:24:40.406250,4.75
10:24:40.421875,6.15
10:24:40.437500,7.46
10:24:40.453125,8.54
10:24:40.468750,9.23
10:24:40.484375,9.46
10:24:40.500000,9.24
10:24:40.515625,8.79
10:24:40.531250,8.41
10:24:40.546875,8.35
10:24:40.562500,8.74
10:24:40.578125,9.47
10:24:40.593750,10.34
10:24:40.609375,11.12
10:24:40.625000,11.66
10:24:40.640625,11.89
10:24:40.656250,11.79
10:24:40.671875,11.31
10:24:40.687500,10.41
10:24:40.703125,9.10
10:24:40.718750,7.56
10:24:40.734375,5.99
10:24:40.750000,4.63
10:24:40.765625,3.58
10:24:40.781250,2.77
10:24:40.796875,2.06
10:24:40.812500,1.31
10:24:40.828125,0.51
10:24:40.843750,-0.30
10:24:40.859375,-1.02
10:24:40.875000,-1.67
10:24:40.890625,-2.33
10:24:40.906250,-3.10
10:24:40.921875,-3.99
10:24:40.937500,-4.90
10:24:40.953125,-5.66
10:24:40.968750,-6.14
10:24:40.984375,-6.35
10:24:41,-6.44
10:24:41.015625,-6.66
10:24:41.031250,-7.26
10:24:41.046875,-8.44
10:24:41.062500,-10.19
10:24:41.078125,-12.39
10:24:41.093750,-14.73
10:24:41.109375,-16.84
10:24:41.125000,-18.33
10:24:41.140625,-18.89
10:24:41.156250,-18.33
10:24:41.171875,-16.62
10:24:41.187500,-13.93
10:24:41.203125,-10.59
10:24:41.218750,-7.02
10:24:41.234375,-3.67
10:24:41.250000,-0.88
10:24:41.265625,1.13
10:24:41.281250,2.34
10:24:41.296875,2.87
10:24:41.312500,2.95
10:24:41.328125,2.83
10:24:41.343750,2.71
10:24:41.359375,2.75
10:24:41.375000,3.02
10:24:41.390625,3.53
10:24:41.406250,4.19
10:24:41.421875,4.86
10:24:41.437500,5.40
10:24:41.453125,5.71
10:24:41.468750,5.78
10:24:41.484375,5.66
10:24:41.500000,5.46
10:24:41.515625,5.22
10:24:41.531250,4.93
10:24:41.546875,4.50
10:24:41.562500,3.83
10:24:41.578125,2.86
10:24:41.593750,1.61
10:24:41.609375,0.18
10:24:41.625000,-1.25
10:24:41.640625,-2.54
10:24:41.656250,-3.60
10:24:41.671875,-4.40
10:24:41.687500,-4.99
10:24:41.703125,-5.40
10:24:41.718750,-5.69
10:24:41.734375,-5.87
10:24:41.750000,-5.93
10:24:41.765625,-5.91
10:24:41.781250,-5.83
10:24:41.796875,-5.74
10:24:41.812500,-5.67
10:24:41.828125,-5.55
10:24:41.843750,-5.28
10:24:41.859375,-4.79
10:24:41.875000,-4.10
10:24:41.890625,-3.41
10:24:41.906250,-3.00
10:24:41.921875,-3.20
10:24:41.937500,-4.14
10:24:41.953125,-5.77
10:24:41.968750,-7.78
10:24:41.984375,-9.69
10:24:42,-11.01
10:24:42.015625,-11.29
10:24:42.031250,-10.28
10:24:42.046875,-8.00
10:24:42.062500,-4.75
10:24:42.078125,-1.06
10:24:42.093750,2.41
10:24:42.109375,5.10
10:24:42.125000,6.73
10:24:42.140625,7.39
10:24:42.156250,7.47
10:24:42.171875,7.40
10:24:42.187500,7.45
10:24:42.203125,7.62
10:24:42.218750,7.70
10:24:42.234375,7.45
10:24:42.250000,6.82
10:24:42.265625,5.98
10:24:42.281250,5.32
10:24:42.296875,5.20
10:24:42.312500,5.84
10:24:42.328125,7.21
10:24:42.343750,9.07
10:24:42.359375,11.06
10:24:42.375000,12.76
10:24:42.390625,13.75
10:24:42.406250,13.55
10:24:42.421875,11.75
10:24:42.437500,8.13
10:24:42.453125,2.82
10:24:42.468750,-3.56
10:24:42.484375,-10.02
10:24:42.500000,-15.42
10:24:42.515625,-18.89
10:24:42.531250,-20.02
10:24:42.546875,-19.01
10:24:42.562500,-16.38
10:24:42.578125,-12.78
10:24:42.593750,-8.62
10:24:42.609375,-4.12
10:24:42.625000,0.56
10:24:42.640625,5.10
10:24:42.656250,8.79
10:24:42.671875,10.66
10:24:42.687500,9.81
10:24:42.703125,5.82
10:24:42.718750,-0.95
10:24:42.734375,-9.34
10:24:42.750000,-17.70
10:24:42.765625,-24.41
10:24:42.781250,-28.36
10:24:42.796875,-29.19
10:24:42.812500,-27.20
10:24:42.828125,-23.00
10:24:42.843750,-17.23
10:24:42.859375,-10.37
10:24:42.875000,-2.83
10:24:42.890625,4.86
10:24:42.906250,11.96
10:24:42.921875,17.58
10:24:42.937500,20.91
10:24:42.953125,21.57
10:24:42.968750,19.66
10:24:42.984375,15.79
10:24:43,10.77
10:24:43.015625,5.47
10:24:43.031250,0.58
10:24:43.046875,-3.41
10:24:43.062500,-6.13
10:24:43.078125,-7.33
10:24:43.093750,-6.93
10:24:43.109375,-5.01
10:24:43.125000,-1.92
10:24:43.140625,1.78
10:24:43.156250,5.46
10:24:43.171875,8.49
10:24:43.187500,10.41
10:24:43.203125,11.00
10:24:43.218750,10.27
10:24:43.234375,8.48
10:24:43.250000,6.01
10:24:43.265625,3.31
10:24:43.281250,0.74
10:24:43.296875,-1.42
10:24:43.312500,-3.09
10:24:43.328125,-4.29
10:24:43.343750,-5.15
10:24:43.359375,-5.85
10:24:43.375000,-6.49
10:24:43.390625,-7.14
10:24:43.406250,-7.78
10:24:43.421875,-8.35
10:24:43.437500,-8.77
10:24:43.453125,-9.06
10:24:43.468750,-9.26
10:24:43.484375,-9.46
10:24:43.500000,-9.71
10:24:43.515625,-9.98
10:24:43.531250,-10.14
10:24:43.546875,-10.06
10:24:43.562500,-9.66
10:24:43.578125,-8.92
10:24:43.593750,-7.91
10:24:43.609375,-6.72
10:24:43.625000,-5.34
10:24:43.640625,-3.69
10:24:43.656250,-1.60
10:24:43.671875,1.14
10:24:43.687500,4.61
10:24:43.703125,8.73
10:24:43.718750,13.20
10:24:43.734375,17.52
10:24:43.750000,21.11
10:24:43.765625,23.43
10:24:43.781250,24.16
10:24:43.796875,23.26
10:24:43.812500,20.92
10:24:43.828125,17.53
10:24:43.843750,13.54
10:24:43.859375,9.37
10:24:43.875000,5.34
10:24:43.890625,1.70
10:24:43.906250,-1.39
10:24:43.921875,-3.87
10:24:43.937500,-5.69
10:24:43.953125,-6.87
10:24:43.968750,-7.42
10:24:43.984375,-7.32
10:24:44,-6.60
10:24:44.015625,-5.30
10:24:44.031250,-3.53
10:24:44.046875,-1.45
10:24:44.062500,0.74
10:24:44.078125,2.90
10:24:44.093750,4.87
10:24:44.109375,6.50
10:24:44.125000,7.60
10:24:44.140625,7.91
10:24:44.156250,7.18
10:24:44.171875,5.32
10:24:44.187500,2.40
10:24:44.203125,-1.32
10:24:44.218750,-5.48
10:24:44.234375,-9.74
10:24:44.250000,-13.77
10:24:44.265625,-17.17
10:24:44.281250,-19.53
10:24:44.296875,-20.38
10:24:44.312500,-19.38
10:24:44.328125,-16.47
10:24:44.343750,-12.00
10:24:44.359375,-6.64
10:24:44.375000,-1.23
10:24:44.390625,3.53
10:24:44.406250,7.21
10:24:44.421875,9.74
10:24:44.437500,11.25
10:24:44.453125,11.94
10:24:44.468750,11.97
10:24:44.484375,11.41
10:24:44.500000,10.30
10:24:44.515625,8.72
10:24:44.531250,6.87
10:24:44.546875,5.00
10:24:44.562500,3.45
10:24:44.578125,2.47
10:24:44.593750,2.22
10:24:44.609375,2.75
10:24:44.625000,3.93
10:24:44.640625,5.58
10:24:44.656250,7.47
10:24:44.671875,9.34
10:24:44.687500,10.96
10:24:44.703125,12.15
10:24:44.718750,12.79
10:24:44.734375,12.81
10:24:44.750000,12.28
10:24:44.765625,11.33
10:24:44.781250,10.15
10:24:44.796875,8.93
10:24:44.812500,7.77
10:24:44.828125,6.70
10:24:44.843750,5.65
10:24:44.859375,4.56
10:24:44.875000,3.41
10:24:44.890625,2.23
10:24:44.906250,1.15
10:24:44.921875,0.23
10:24:44.937500,-0.50
10:24:44.953125,-1.06
10:24:44.968750,-1.52
10:24:44.984375,-1.92
10:24:45,-2.27
10:24:45.015625,-2.62
10:24:45.031250,-3.05
10:24:45.046875,-3.72
10:24:45.062500,-4.72
10:24:45.078125,-6.11
10:24:45.093750,-7.76
10:24:45.109375,-9.45
10:24:45.125000,-10.96
10:24:45.140625,-12.15
10:24:45.156250,-13.01
10:24:45.171875,-13.57
10:24:45.187500,-13.81
10:24:45.203125,-13.61
10:24:45.218750,-12.74
10:24:45.234375,-11.03
10:24:45.250000,-8.49
10:24:45.265625,-5.37
10:24:45.281250,-2.11
10:24:45.296875,0.88
10:24:45.312500,3.30
10:24:45.328125,5.09
10:24:45.343750,6.34
10:24:45.359375,7.23
10:24:45.375000,7.90
10:24:45.390625,8.37
10:24:45.406250,8.63
10:24:45.421875,8.62
10:24:45.437500,8.33
10:24:45.453125,7.84
10:24:45.468750,7.27
10:24:45.484375,6.75
10:24:45.500000,6.41
10:24:45.515625,6.31
10:24:45.531250,6.43
10:24:45.546875,6.72
10:24:45.562500,7.05
10:24:45.578125,7.35
10:24:45.593750,7.54
10:24:45.609375,7.60
10:24:45.625000,7.52
10:24:45.640625,7.28
10:24:45.656250,6.83
10:24:45.671875,6.11
10:24:45.687500,5.08
10:24:45.703125,3.76
10:24:45.718750,2.29
10:24:45.734375,0.88
10:24:45.750000,-0.27
10:24:45.765625,-1.00
10:24:45.781250,-1.35
10:24:45.796875,-1.45
10:24:45.812500,-1.54
10:24:45.828125,-1.79
10:24:45.843750,-2.31
10:24:45.859375,-3.06
10:24:45.875000,-3.94
10:24:45.890625,-4.82
10:24:45.906250,-5.66
10:24:45.921875,-6.51
10:24:45.937500,-7.46
10:24:45.953125,-8.59
10:24:45.968750,-9.89
10:24:45.984375,-11.23
10:24:46,-12.40
10:24:46.015625,-13.15
10:24:46.031250,-13.28
10:24:46.046875,-12.72
10:24:46.062500,-11.53
10:24:46.078125,-9.92
10:24:46.093750,-8.22
10:24:46.109375,-6.73
10:24:46.125000,-5.70
10:24:46.140625,-5.18
10:24:46.156250,-5.00
10:24:46.171875,-4.83
10:24:46.187500,-4.27
10:24:46.203125,-3.08
10:24:46.218750,-1.18
10:24:46.234375,1.21
10:24:46.250000,3.75
10:24:46.265625,6.11
10:24:46.281250,8.12
10:24:46.296875,9.74
10:24:46.312500,11.16
10:24:46.328125,12.57
10:24:46.343750,14.19
10:24:46.359375,16.11
10:24:46.375000,18.33
10:24:46.390625,20.67
10:24:46.406250,22.85
10:24:46.421875,24.46
10:24:46.437500,25.08
10:24:46.453125,24.42
10:24:46.468750,22.36
10:24:46.484375,19.11
10:24:46.500000,15.08
10:24:46.515625,10.89
10:24:46.531250,7.17
10:24:46.546875,4.41
10:24:46.562500,2.91
10:24:46.578125,2.66
10:24:46.593750,3.39
10:24:46.609375,4.66
10:24:46.625000,5.98
10:24:46.640625,6.91
10:24:46.656250,7.20
10:24:46.671875,6.77
10:24:46.687500,5.70
10:24:46.703125,4.19
10:24:46.718750,2.47
10:24:46.734375,0.70
10:24:46.750000,-0.98
10:24:46.765625,-2.53
10:24:46.781250,-3.90
10:24:46.796875,-5.09
10:24:46.812500,-6.09
10:24:46.828125,-6.88
10:24:46.843750,-7.50
10:24:46.859375,-7.96
10:24:46.875000,-8.31
10:24:46.890625,-8.57
10:24:46.906250,-8.73
10:24:46.921875,-8.75
10:24:46.937500,-8.56
10:24:46.953125,-8.07
10:24:46.968750,-7.26
10:24:46.984375,-6.20
10:24:47,-5.07
10:24:47.015625,-4.14
10:24:47.031250,-3.70
10:24:47.046875,-3.99
10:24:47.062500,-5.14
10:24:47.078125,-7.12
10:24:47.093750,-9.75
10:24:47.109375,-12.73
10:24:47.125000,-15.68
10:24:47.140625,-18.15
10:24:47.156250,-19.73
10:24:47.171875,-20.11
10:24:47.187500,-19.19
10:24:47.203125,-17.03
10:24:47.218750,-13.93
10:24:47.234375,-10.25
10:24:47.250000,-6.39
10:24:47.265625,-2.70
10:24:47.281250,0.53
10:24:47.296875,3.03
10:24:47.312500,4.57
10:24:47.328125,4.97
10:24:47.343750,4.09
10:24:47.359375,1.94
10:24:47.375000,-1.40
10:24:47.390625,-5.72
10:24:47.406250,-10.69
10:24:47.421875,-15.85
10:24:47.437500,-20.69
10:24:47.453125,-24.61
10:24:47.468750,-27.18
10:24:47.484375,-28.14
10:24:47.500000,-27.56
10:24:47.515625,-25.73
10:24:47.531250,-23.15
10:24:47.546875,-20.32
10:24:47.562500,-17.74
10:24:47.578125,-15.79
10:24:47.593750,-14.77
10:24:47.609375,-14.93
10:24:47.625000,-16.38
10:24:47.640625,-19.11
10:24:47.656250,-22.95
10:24:47.671875,-27.56
10:24:47.687500,-32.48
10:24:47.703125,-37.27
10:24:47.718750,-41.56
10:24:47.734375,-45.14
10:24:47.750000,-47.92
10:24:47.765625,-49.76
10:24:47.781250,-50.37
10:24:47.796875,-49.27
10:24:47.812500,-45.95
10:24:47.828125,-40.33
10:24:47.843750,-33.11
10:24:47.859375,-25.88
10:24:47.875000,-20.76
10:24:47.890625,-19.39
10:24:47.906250,-22.12
10:24:47.921875,-27.55
10:24:47.937500,-32.83
10:24:47.953125,-34.68
10:24:47.968750,-30.62
10:24:47.984375,-19.82
10:24:48,-3.20
10:24:48.015625,16.93
10:24:48.031250,37.60
10:24:48.046875,55.85
10:24:48.062500,69.22
10:24:48.078125,76.14
10:24:48.093750,76.25
10:24:48.109375,70.67
10:24:48.125000,61.92
10:24:48.140625,53.32
10:24:48.156250,47.83
10:24:48.171875,46.85
10:24:48.187500,49.39
10:24:48.203125,52.45
10:24:48.218750,52.40
10:24:48.234375,47.02
10:24:48.250000,37.01
10:24:48.265625,26.10
10:24:48.281250,19.48
10:24:48.296875,21.08
10:24:48.312500,31.18
10:24:48.328125,45.67
10:24:48.343750,57.50
10:24:48.359375,59.76
10:24:48.375000,48.98
10:24:48.390625,26.87
