15:44:40,-0.00
15:44:40.015625,-0.00
15:44:40.031250,-0.00
15:44:40.046875,-0.00
15:44:40.062500,-0.00
15:44:40.078125,-0.00
15:44:40.093750,-0.00
15:44:40.109375,-0.00
15:44:40.125000,-0.00
15:44:40.140625,-0.01
15:44:40.156250,-0.00
15:44:40.171875,0.00
15:44:40.187500,0.01
15:44:40.203125,0.01
15:44:40.218750,-0.00
15:44:40.234375,-0.03
15:44:40.250000,-0.05
15:44:40.265625,-0.05
15:44:40.281250,-0.00
15:44:40.296875,0.13
15:44:40.312500,0.36
15:44:40.328125,0.66
15:44:40.343750,1.01
15:44:40.359375,1.37
15:44:40.375000,1.72
15:44:40.390625,2.06
15:44:40.406250,2.40
15:44:40.421875,2.77
15:44:40.437500,3.24
15:44:40.453125,3.80
15:44:40.468750,4.42
15:44:40.484375,5.06
15:44:40.500000,5.66
15:44:40.515625,6.20
15:44:40.531250,6.68
15:44:40.546875,7.15
15:44:40.562500,7.64
15:44:40.578125,8.31
15:44:40.593750,9.14
15:44:40.609375,10.09
15:44:40.625000,11.04
15:44:40.640625,11.88
15:44:40.656250,12.56
15:44:40.671875,13.14
15:44:40.687500,13.76
15:44:40.703125,14.58
15:44:40.718750,15.96
15:44:40.734375,17.91
15:44:40.750000,20.32
15:44:40.765625,22.90
15:44:40.781250,25.38
15:44:40.796875,27.58
15:44:40.812500,29.57
15:44:40.828125,31.68
15:44:40.843750,34.20
15:44:40.859375,37.81
15:44:40.875000,42.54
15:44:40.890625,48.15
15:44:40.906250,54.10
15:44:40.921875,59.83
15:44:40.937500,64.97
15:44:40.953125,69.58
15:44:40.968750,74.14
15:44:40.984375,79.19
15:44:41,85.71
15:44:41.015625,93.76
15:44:41.031250,103.00
15:44:41.046875,112.62
15:44:41.062500,121.73
15:44:41.078125,129.77
15:44:41.093750,136.75
15:44:41.109375,144.29
15:44:41.125000,150.58
15:44:41.140625,157.77
15:44:41.156250,166.64
15:44:41.171875,177.95
15:44:41.187500,191.79
15:44:41.203125,206.97
15:44:41.218750,220.57
15:44:41.234375,228.25
15:44:41.250000,225.36
15:44:41.265625,208.37
15:44:41.281250,176.87
15:44:41.296875,132.76
15:44:41.312500,80.05
15:44:41.328125,23.07
15:44:41.343750,-34.94
15:44:41.359375,-92.44
15:44:41.375000,-149.16
15:44:41.390625,-205.23
15:44:41.406250,-260.49
15:44:41.421875,-313.74
15:44:41.437500,-363.87
15:44:41.453125,-409.83
15:44:41.468750,-450.91
15:44:41.484375,-486.50
15:44:41.500000,-515.74
15:44:41.515625,-537.23
15:44:41.531250,-549.22
15:44:41.546875,-550.04
15:44:41.562500,-538.37
15:44:41.578125,-514.20
15:44:41.593750,-478.67
15:44:41.609375,-433.88
15:44:41.625000,-382.45
15:44:41.640625,-327.02
15:44:41.656250,-269.84
15:44:41.671875,-212.63
15:44:41.687500,-156.70
15:44:41.703125,-102.95
15:44:41.718750,-52.37
15:44:41.734375,-5.90
15:44:41.750000,35.58
15:44:41.765625,71.43
15:44:41.781250,101.35
15:44:41.796875,125.50
15:44:41.812500,144.38
15:44:41.828125,158.68
15:44:41.843750,169.15
15:44:41.859375,176.37
15:44:41.875000,180.75
15:44:41.890625,182.57
15:44:41.906250,182.07
15:44:41.921875,179.51
15:44:41.937500,175.23
15:44:41.953125,169.65
15:44:41.968750,163.18
15:44:41.984375,156.15
15:44:42,148.81
15:44:42.015625,141.30
15:44:42.031250,133.69
15:44:42.046875,126.02
15:44:42.062500,118.33
15:44:42.078125,110.69
15:44:42.093750,103.16
15:44:42.109375,95.80
15:44:42.125000,88.68
15:44:42.140625,81.83
15:44:42.156250,75.25
15:44:42.171875,68.95
15:44:42.187500,62.95
15:44:42.203125,57.25
15:44:42.218750,51.86
15:44:42.234375,46.78
15:44:42.250000,42.03
15:44:42.265625,37.59
15:44:42.281250,33.45
15:44:42.296875,29.61
15:44:42.312500,26.07
15:44:42.328125,22.81
15:44:42.343750,19.82
15:44:42.359375,17.11
15:44:42.375000,14.67
15:44:42.390625,12.48
15:44:42.406250,10.54
15:44:42.421875,8.83
15:44:42.437500,7.35
15:44:42.453125,6.07
15:44:42.468750,4.97
15:44:42.484375,4.05
15:44:42.500000,3.27
15:44:42.515625,2.62
15:44:42.531250,2.09
15:44:42.546875,1.65
15:44:42.562500,1.30
15:44:42.578125,1.01
15:44:42.593750,0.79
15:44:42.609375,0.61
15:44:42.625000,0.47
15:44:42.640625,0.37
15:44:42.656250,0.28
15:44:42.671875,0.22
15:44:42.687500,0.18
15:44:42.703125,0.15
15:44:42.718750,0.13
15:44:42.734375,0.12
15:44:42.750000,0.12
15:44:42.765625,0.13
15:44:42.781250,0.15
15:44:42.796875,0.18
15:44:42.812500,0.21
15:44:42.828125,0.25
15:44:42.843750,0.29
15:44:42.859375,0.34
15:44:42.875000,0.39
15:44:42.890625,0.45
15:44:42.906250,0.51
15:44:42.921875,0.56
15:44:42.937500,0.62
15:44:42.953125,0.68
15:44:42.968750,0.74
15:44:42.984375,0.80
15:44:43,0.86
15:44:43.015625,0.93
15:44:43.031250,1.00
15:44:43.046875,1.09
15:44:43.062500,1.18
15:44:43.078125,1.28
15:44:43.093750,1.39
15:44:43.109375,1.52
15:44:43.125000,1.67
15:44:43.140625,1.83
15:44:43.156250,2.01
15:44:43.171875,2.21
15:44:43.187500,2.44
15:44:43.203125,2.69
15:44:43.218750,2.97
15:44:43.234375,3.28
15:44:43.250000,3.62
15:44:43.265625,3.99
15:44:43.281250,4.40
15:44:43.296875,4.85
15:44:43.312500,5.33
15:44:43.328125,5.86
15:44:43.343750,6.43
15:44:43.359375,7.06
15:44:43.375000,7.73
15:44:43.390625,8.46
15:44:43.406250,9.23
15:44:43.421875,10.02
15:44:43.437500,10.82
15:44:43.453125,11.65
15:44:43.468750,12.49
15:44:43.484375,13.38
15:44:43.500000,14.34
15:44:43.515625,15.40
15:44:43.531250,16.57
15:44:43.546875,17.82
15:44:43.562500,19.12
15:44:43.578125,20.42
15:44:43.593750,21.71
15:44:43.609375,22.97
15:44:43.625000,24.20
15:44:43.640625,25.37
15:44:43.656250,26.42
15:44:43.671875,27.18
15:44:43.687500,27.46
15:44:43.703125,26.99
15:44:43.718750,25.58
15:44:43.734375,23.08
15:44:43.750000,19.49
15:44:43.765625,14.92
15:44:43.781250,9.58
15:44:43.796875,3.71
15:44:43.812500,-2.47
15:44:43.828125,-8.80
15:44:43.843750,-15.13
15:44:43.859375,-21.30
15:44:43.875000,-27.07
15:44:43.890625,-32.10
15:44:43.906250,-36.01
15:44:43.921875,-38.46
15:44:43.937500,-39.36
15:44:43.953125,-38.88
15:44:43.968750,-37.49
15:44:43.984375,-35.83
15:44:44,-34.44
15:44:44.015625,-33.63
15:44:44.031250,-33.33
15:44:44.046875,-33.12
15:44:44.062500,-32.49
15:44:44.078125,-31.15
15:44:44.093750,-29.19
15:44:44.109375,-27.14
15:44:44.125000,-25.76
15:44:44.140625,-25.66
15:44:44.156250,-26.99
15:44:44.171875,-29.24
15:44:44.187500,-31.50
15:44:44.203125,-32.75
15:44:44.218750,-32.47
15:44:44.234375,-30.81
15:44:44.250000,-28.58
15:44:44.265625,-26.97
15:44:44.281250,-27.07
15:44:44.296875,-29.46
15:44:44.312500,-34.04
15:44:44.328125,-39.99
15:44:44.343750,-45.85
15:44:44.359375,-50.11
15:44:44.375000,-51.18
15:44:44.390625,-47.87
15:44:44.406250,-39.88
15:44:44.421875,-27.86
15:44:44.437500,-13.46
15:44:44.453125,0.90
15:44:44.468750,12.64
15:44:44.484375,19.95
15:44:44.500000,22.37
15:44:44.515625,21.47
15:44:44.531250,20.17
15:44:44.546875,21.25
15:44:44.562500,25.85
15:44:44.578125,32.65
15:44:44.593750,38.35
15:44:44.609375,39.37
15:44:44.625000,33.56
15:44:44.640625,20.78
15:44:44.656250,3.07
15:44:44.671875,-16.66
15:44:44.687500,-35.83
15:44:44.703125,-52.65
15:44:44.718750,-65.71
15:44:44.734375,-73.19
15:44:44.750000,-72.68
15:44:44.765625,-59.55
15:44:44.781250,-31.53
15:44:44.796875,10.75
15:44:44.812500,63.12
15:44:44.828125,118.78
15:44:44.843750,170.08
15:44:44.859375,210.48
15:44:44.875000,236.11
15:44:44.890625,246.34
15:44:44.906250,243.02
15:44:44.921875,228.80
15:44:44.937500,206.20
15:44:44.953125,176.80
15:44:44.968750,141.42
15:44:44.984375,101.05
15:44:45,57.92
15:44:45.015625,15.80
15:44:45.031250,-20.57
15:44:45.046875,-46.96
15:44:45.062500,-61.36
15:44:45.078125,-64.37
15:44:45.093750,-58.84
15:44:45.109375,-48.62
15:44:45.125000,-37.17
15:44:45.140625,-26.76
15:44:45.156250,-18.39
15:44:45.171875,-12.36
15:44:45.187500,-8.84
15:44:45.203125,-8.20
15:44:45.218750,-10.64
15:44:45.234375,-15.65
15:44:45.250000,-21.95
15:44:45.265625,-27.74
15:44:45.281250,-31.33
15:44:45.296875,-31.83
15:44:45.312500,-29.62
15:44:45.328125,-26.36
15:44:45.343750,-24.64
15:44:45.359375,-27.04
15:44:45.375000,-35.15
15:44:45.390625,-48.75
15:44:45.406250,-65.61
15:44:45.421875,-82.01
15:44:45.437500,-93.91
15:44:45.453125,-98.23
15:44:45.468750,-93.83
15:44:45.484375,-81.73
15:44:45.500000,-64.48
15:44:45.515625,-45.16
15:44:45.531250,-26.40
15:44:45.546875,-9.86
15:44:45.562500,3.74
15:44:45.578125,14.29
15:44:45.593750,21.84
15:44:45.609375,26.39
15:44:45.625000,27.92
15:44:45.640625,26.62
15:44:45.656250,23.17
15:44:45.671875,18.78
15:44:45.687500,15.15
15:44:45.703125,14.02
15:44:45.718750,16.70
15:44:45.734375,23.71
15:44:45.750000,34.60
15:44:45.765625,48.07
15:44:45.781250,62.24
15:44:45.796875,74.90
15:44:45.812500,83.77
15:44:45.828125,86.95
15:44:45.843750,83.40
15:44:45.859375,73.47
15:44:45.875000,59.11
15:44:45.890625,43.49
15:44:45.906250,30.17
15:44:45.921875,21.95
15:44:45.937500,20.03
15:44:45.953125,23.62
15:44:45.968750,30.17
15:44:45.984375,36.05
15:44:46,37.39
15:44:46.015625,30.98
15:44:46.031250,15.16
15:44:46.046875,-9.47
15:44:46.062500,-39.82
15:44:46.078125,-70.81
15:44:46.093750,-96.68
15:44:46.109375,-112.62
15:44:46.125000,-116.18
15:44:46.140625,-107.82
15:44:46.156250,-90.50
15:44:46.171875,-68.61
15:44:46.187500,-46.49
15:44:46.203125,-27.24
15:44:46.218750,-12.07
15:44:46.234375,-0.43
15:44:46.250000,9.14
15:44:46.265625,17.98
15:44:46.281250,26.47
15:44:46.296875,33.86
15:44:46.312500,38.88
15:44:46.328125,40.61
15:44:46.343750,39.20
15:44:46.359375,35.92
15:44:46.375000,32.51
15:44:46.390625,30.25
15:44:46.406250,29.47
15:44:46.421875,29.61
15:44:46.437500,29.85
15:44:46.453125,29.82
15:44:46.468750,29.75
15:44:46.484375,30.12
15:44:46.500000,31.09
15:44:46.515625,32.09
15:44:46.531250,31.98
15:44:46.546875,29.65
15:44:46.562500,24.65
15:44:46.578125,17.48
15:44:46.593750,9.20
15:44:46.609375,0.70
15:44:46.625000,-8.07
15:44:46.640625,-18.23
15:44:46.656250,-31.44
15:44:46.671875,-49.01
15:44:46.687500,-71.02
15:44:46.703125,-96.12
15:44:46.718750,-121.89
15:44:46.734375,-145.73
15:44:46.750000,-165.50
15:44:46.765625,-179.84
15:44:46.781250,-187.98
15:44:46.796875,-189.36
15:44:46.812500,-183.50
15:44:46.828125,-170.17
15:44:46.843750,-149.84
15:44:46.859375,-123.99
15:44:46.875000,-94.95
15:44:46.890625,-65.43
15:44:46.906250,-37.71
15:44:46.921875,-13.19
15:44:46.937500,7.64
15:44:46.953125,24.87
15:44:46.968750,38.56
15:44:46.984375,48.39
15:44:47,53.79
15:44:47.015625,54.42
15:44:47.031250,50.75
15:44:47.046875,44.32
15:44:47.062500,37.30
15:44:47.078125,31.77
15:44:47.093750,28.99
15:44:47.109375,29.00
15:44:47.125000,30.86
15:44:47.140625,33.33
15:44:47.156250,35.51
15:44:47.171875,37.17
15:44:47.187500,38.60
15:44:47.203125,40.18
15:44:47.218750,41.90
15:44:47.234375,43.10
15:44:47.250000,42.77
15:44:47.265625,39.97
15:44:47.281250,34.43
15:44:47.296875,26.71
15:44:47.312500,18.12
15:44:47.328125,10.23
15:44:47.343750,4.38
15:44:47.359375,1.34
15:44:47.375000,1.21
15:44:47.390625,3.47
15:44:47.406250,7.05
15:44:47.421875,10.49
15:44:47.437500,12.13
15:44:47.453125,10.48
15:44:47.468750,4.83
15:44:47.484375,-4.34
15:44:47.500000,-15.30
15:44:47.515625,-25.55
15:44:47.531250,-32.70
15:44:47.546875,-35.22
15:44:47.562500,-32.91
15:44:47.578125,-26.56
15:44:47.593750,-17.40
15:44:47.609375,-6.54
15:44:47.625000,5.25
15:44:47.640625,17.29
15:44:47.656250,28.67
15:44:47.671875,38.16
15:44:47.687500,44.43
15:44:47.703125,46.53
15:44:47.718750,44.43
15:44:47.734375,39.04
15:44:47.750000,32.04
15:44:47.765625,25.26
15:44:47.781250,20.22
15:44:47.796875,17.73
15:44:47.812500,17.86
15:44:47.828125,20.13
15:44:47.843750,23.75
15:44:47.859375,27.87
15:44:47.875000,31.74
15:44:47.890625,34.80
15:44:47.906250,36.65
15:44:47.921875,36.99
15:44:47.937500,35.50
15:44:47.953125,31.76
15:44:47.968750,25.32
15:44:47.984375,15.84
15:44:48,3.37
15:44:48.015625,-11.44
15:44:48.031250,-27.46
15:44:48.046875,-43.39
15:44:48.062500,-58.30
15:44:48.078125,-72.01
15:44:48.093750,-85.12
15:44:48.109375,-98.59
15:44:48.125000,-113.10
15:44:48.140625,-128.47
15:44:48.156250,-143.46
15:44:48.171875,-155.95
15:44:48.187500,-163.48
15:44:48.203125,-163.90
15:44:48.218750,-155.94
15:44:48.234375,-139.57
15:44:48.250000,-116.09
15:44:48.265625,-87.95
15:44:48.281250,-58.20
15:44:48.296875,-29.85
15:44:48.312500,-5.17
15:44:48.328125,14.90
15:44:48.343750,30.85
15:44:48.359375,44.21
15:44:48.375000,56.93
15:44:48.390625,70.64
15:44:48.406250,86.04
15:44:48.421875,102.72
15:44:48.437500,119.15
15:44:48.453125,133.08
15:44:48.468750,142.10
15:44:48.484375,144.37
15:44:48.500000,139.10
15:44:48.515625,126.96
15:44:48.531250,109.95
15:44:48.546875,90.86
15:44:48.562500,72.53
15:44:48.578125,57.10
15:44:48.593750,45.54
15:44:48.609375,37.61
15:44:48.625000,32.26
15:44:48.640625,28.01
15:44:48.656250,23.59
15:44:48.671875,18.17
15:44:48.687500,11.40
15:44:48.703125,3.42
15:44:48.718750,-5.36
15:44:48.734375,-14.41
15:44:48.750000,-23.33
15:44:48.765625,-32.00
15:44:48.781250,-40.66
15:44:48.796875,-49.87
15:44:48.812500,-60.16
15:44:48.828125,-71.71
15:44:48.843750,-83.97
15:44:48.859375,-95.65
15:44:48.875000,-104.91
15:44:48.890625,-109.93
15:44:48.906250,-109.53
15:44:48.921875,-103.40
15:44:48.937500,-92.23
15:44:48.953125,-77.18
15:44:48.968750,-59.62
15:44:48.984375,-40.72
15:44:49,-21.35
15:44:49.015625,-2.16
15:44:49.031250,16.34
15:44:49.046875,33.52
15:44:49.062500,48.57
15:44:49.078125,60.44
15:44:49.093750,68.00
15:44:49.109375,70.44
15:44:49.125000,67.69
15:44:49.140625,60.79
15:44:49.156250,51.79
15:44:49.171875,43.25
15:44:49.187500,37.35
15:44:49.203125,35.17
15:44:49.218750,36.41
15:44:49.234375,39.59
15:44:49.250000,42.84
15:44:49.265625,44.66
15:44:49.281250,44.42
15:44:49.296875,42.25
15:44:49.312500,38.61
15:44:49.328125,33.77
15:44:49.343750,27.64
15:44:49.359375,20.00
15:44:49.375000,10.91
15:44:49.390625,0.98
15:44:49.406250,-8.80
15:44:49.421875,-17.51
15:44:49.437500,-24.80
15:44:49.453125,-30.93
15:44:49.468750,-36.65
15:44:49.484375,-42.69
15:44:49.500000,-49.53
15:44:49.515625,-57.33
15:44:49.531250,-66.12
15:44:49.546875,-75.82
15:44:49.562500,-86.06
15:44:49.578125,-95.84
15:44:49.593750,-103.45
15:44:49.609375,-106.67
15:44:49.625000,-103.43
15:44:49.640625,-92.69
15:44:49.656250,-74.83
15:44:49.671875,-51.71
15:44:49.687500,-26.02
15:44:49.703125,-0.49
15:44:49.718750,22.82
15:44:49.734375,42.81
15:44:49.750000,59.21
15:44:49.765625,72.10
15:44:49.781250,81.42
15:44:49.796875,86.73
15:44:49.812500,87.40
15:44:49.828125,83.17
15:44:49.843750,74.69
15:44:49.859375,63.67
15:44:49.875000,52.44
15:44:49.890625,43.15
15:44:49.906250,36.98
15:44:49.921875,33.89
15:44:49.937500,33.00
15:44:49.953125,33.24
15:44:49.968750,33.98
15:44:49.984375,35.05
15:44:50,36.37
15:44:50.015625,37.38
15:44:50.031250,36.72
15:44:50.046875,32.74
15:44:50.062500,24.33
15:44:50.078125,11.75
15:44:50.093750,-3.21
15:44:50.109375,-17.80
15:44:50.125000,-29.56
15:44:50.140625,-37.35
15:44:50.156250,-41.81
15:44:50.171875,-44.85
15:44:50.187500,-48.63
15:44:50.203125,-54.58
15:44:50.218750,-62.92
15:44:50.234375,-72.91
15:44:50.250000,-83.40
15:44:50.265625,-93.27
15:44:50.281250,-101.44
15:44:50.296875,-106.61
15:44:50.312500,-107.15
15:44:50.328125,-101.33
15:44:50.343750,-88.11
15:44:50.359375,-67.89
15:44:50.375000,-42.76
15:44:50.390625,-15.97
15:44:50.406250,9.15
15:44:50.421875,30.30
15:44:50.437500,46.67
15:44:50.453125,58.47
15:44:50.468750,66.05
15:44:50.484375,69.29
15:44:50.500000,67.86
15:44:50.515625,62.08
15:44:50.531250,53.70
15:44:50.546875,45.91
15:44:50.562500,42.09
15:44:50.578125,44.14
15:44:50.593750,51.21
15:44:50.609375,59.85
15:44:50.625000,65.56
15:44:50.640625,64.95
15:44:50.656250,57.38
15:44:50.671875,45.15
15:44:50.687500,32.26
15:44:50.703125,22.64
15:44:50.718750,18.62
15:44:50.734375,20.43
15:44:50.750000,26.70
15:44:50.765625,35.27
15:44:50.781250,44.04
15:44:50.796875,51.20
15:44:50.812500,55.18
15:44:50.828125,54.52
15:44:50.843750,47.93
15:44:50.859375,34.48
15:44:50.875000,13.78
15:44:50.890625,-13.94
15:44:50.906250,-47.75
15:44:50.921875,-86.07
15:44:50.937500,-126.54
15:44:50.953125,-165.90
15:44:50.968750,-200.12
15:44:50.984375,-224.87
15:44:51,-236.15
15:44:51.015625,-231.10
15:44:51.031250,-208.68
15:44:51.046875,-170.36
15:44:51.062500,-120.47
15:44:51.078125,-66.11
15:44:51.093750,-15.99
15:44:51.109375,21.37
15:44:51.125000,39.84
15:44:51.140625,37.20
15:44:51.156250,15.11
15:44:51.171875,-22.27
15:44:51.187500,-70.18
15:44:51.203125,-124.46
15:44:51.218750,-181.34
15:44:51.234375,-236.13
15:44:51.250000,-282.38
15:44:51.265625,-312.51
15:44:51.281250,-320.13
15:44:51.296875,-302.91
15:44:51.312500,-263.69
15:44:51.328125,-209.44
15:44:51.343750,-148.08
15:44:51.359375,-85.49
15:44:51.375000,-24.53
15:44:51.390625,33.99
15:44:51.406250,89.65
15:44:51.421875,141.72
15:44:51.437500,189.73
15:44:51.453125,234.30
15:44:51.468750,277.12
15:44:51.484375,319.34
15:44:51.500000,359.39
15:44:51.515625,392.24
15:44:51.531250,411.06
15:44:51.546875,410.66
15:44:51.562500,390.57
15:44:51.578125,355.92
15:44:51.593750,315.41
15:44:51.609375,277.83
15:44:51.625000,248.93
15:44:51.640625,230.56
15:44:51.656250,221.68
15:44:51.671875,220.11
15:44:51.687500,223.68
15:44:51.703125,230.17
15:44:51.718750,236.93
15:44:51.734375,240.82
15:44:51.750000,239.01
15:44:51.765625,229.99
15:44:51.781250,214.13
15:44:51.796875,193.65
15:44:51.812500,172.51
15:44:51.828125,156.02
15:44:51.843750,150.23
15:44:51.859375,160.43
15:44:51.875000,188.95
15:44:51.890625,232.98
15:44:51.906250,283.93
15:44:51.921875,329.56
15:44:51.937500,358.07
15:44:51.953125,362.48
15:44:51.968750,343.05
15:44:51.984375,306.30
15:44:52,261.24
15:44:52.015625,215.06
15:44:52.031250,170.42
15:44:52.046875,125.90
15:44:52.062500,78.48
15:44:52.078125,26.41
15:44:52.093750,-29.51
15:44:52.109375,-86.61
15:44:52.125000,-141.96
15:44:52.140625,-193.65
15:44:52.156250,-240.98
15:44:52.171875,-284.31
15:44:52.187500,-324.44
15:44:52.203125,-362.49
15:44:52.218750,-399.52
15:44:52.234375,-436.40
15:44:52.250000,-473.50
15:44:52.265625,-510.16
15:44:52.281250,-544.60
15:44:52.296875,-573.99
15:44:52.312500,-595.29
15:44:52.328125,-605.82
15:44:52.343750,-603.80
15:44:52.359375,-588.55
15:44:52.375000,-560.30
15:44:52.390625,-519.89
15:44:52.406250,-468.50
15:44:52.421875,-407.62
15:44:52.437500,-338.96
15:44:52.453125,-264.43
15:44:52.468750,-186.43
15:44:52.484375,-108.53
15:44:52.500000,-36.18
15:44:52.515625,23.81
15:44:52.531250,64.71
15:44:52.546875,82.31
15:44:52.562500,76.91
15:44:52.578125,53.63
15:44:52.593750,20.97
15:44:52.609375,-11.88
15:44:52.625000,-37.79
15:44:52.640625,-52.98
15:44:52.656250,-56.66
15:44:52.671875,-49.81
15:44:52.687500,-34.14
15:44:52.703125,-12.09
15:44:52.718750,12.75
15:44:52.734375,35.62
15:44:52.750000,51.26
15:44:52.765625,55.40
15:44:52.781250,46.02
15:44:52.796875,23.42
15:44:52.812500,-11.08
15:44:52.828125,-56.36
15:44:52.843750,-111.63
15:44:52.859375,-175.28
15:44:52.875000,-243.13
15:44:52.890625,-307.80
15:44:52.906250,-359.88
15:44:52.921875,-390.81
15:44:52.937500,-395.97
15:44:52.953125,-376.37
15:44:52.968750,-337.64
15:44:52.984375,-287.43
15:44:53,-232.22
15:44:53.015625,-175.36
15:44:53.031250,-117.01
15:44:53.046875,-55.71
15:44:53.062500,10.24
15:44:53.078125,81.56
15:44:53.093750,157.92
15:44:53.109375,238.06
15:44:53.125000,319.61
15:44:53.140625,398.88
15:44:53.156250,470.79
15:44:53.171875,529.83
15:44:53.187500,571.85
15:44:53.203125,595.87
15:44:53.218750,604.90
15:44:53.234375,605.13
15:44:53.250000,603.66
15:44:53.265625,605.64
15:44:53.281250,612.44
15:44:53.296875,621.30
15:44:53.312500,626.80
15:44:53.328125,623.15
15:44:53.343750,606.22
15:44:53.359375,574.68
15:44:53.375000,529.94
15:44:53.390625,475.23
15:44:53.406250,414.34
15:44:53.421875,350.82
15:44:53.437500,287.29
15:44:53.453125,225.42
15:44:53.468750,166.13
15:44:53.484375,109.40
15:44:53.500000,54.09
15:44:53.515625,-2.00
15:44:53.531250,-61.57
15:44:53.546875,-126.52
15:44:53.562500,-196.27
15:44:53.578125,-266.89
15:44:53.593750,-331.53
15:44:53.609375,-382.39
15:44:53.625000,-413.64
15:44:53.640625,-423.59
15:44:53.656250,-415.25
15:44:53.671875,-394.96
15:44:53.687500,-369.80
15:44:53.703125,-345.11
15:44:53.718750,-323.35
15:44:53.734375,-304.43
15:44:53.750000,-287.01
15:44:53.765625,-269.81
15:44:53.781250,-252.22
15:44:53.796875,-234.11
15:44:53.812500,-215.40
15:44:53.828125,-195.66
15:44:53.843750,-174.27
15:44:53.859375,-150.70
15:44:53.875000,-124.92
15:44:53.890625,-97.39
15:44:53.906250,-69.29
15:44:53.921875,-42.08
15:44:53.937500,-17.27
15:44:53.953125,3.85
15:44:53.968750,20.51
15:44:53.984375,32.48
15:44:54,40.06
15:44:54.015625,43.77
15:44:54.031250,44.15
15:44:54.046875,41.44
15:44:54.062500,35.66
15:44:54.078125,26.75
15:44:54.093750,14.79
15:44:54.109375,0.21
15:44:54.125000,-16.31
15:44:54.140625,-33.96
15:44:54.156250,-52.11
15:44:54.171875,-70.24
15:44:54.187500,-87.72
15:44:54.203125,-103.45
15:44:54.218750,-115.70
15:44:54.234375,-122.29
15:44:54.250000,-121.22
15:44:54.265625,-111.43
15:44:54.281250,-93.31
15:44:54.296875,-68.79
15:44:54.312500,-40.95
15:44:54.328125,-13.19
15:44:54.343750,11.47
15:44:54.359375,30.99
15:44:54.375000,44.50
15:44:54.390625,52.18
15:44:54.406250,54.91
15:44:54.421875,53.86
15:44:54.437500,50.18
15:44:54.453125,44.76
15:44:54.468750,38.23
15:44:54.484375,31.09
15:44:54.500000,23.86
15:44:54.515625,17.14
15:44:54.531250,11.52
15:44:54.546875,7.46
15:44:54.562500,5.03
15:44:54.578125,4.01
15:44:54.593750,3.84
15:44:54.609375,3.86
15:44:54.625000,3.29
15:44:54.640625,1.48
15:44:54.656250,-2.08
15:44:54.671875,-7.53
15:44:54.687500,-14.41
15:44:54.703125,-21.57
15:44:54.718750,-27.24
15:44:54.734375,-29.43
15:44:54.750000,-26.60
15:44:54.765625,-18.20
15:44:54.781250,-4.95
15:44:54.796875,11.38
15:44:54.812500,28.61
15:44:54.828125,44.98
15:44:54.843750,59.78
15:44:54.859375,73.45
15:44:54.875000,87.25
15:44:54.890625,102.65
15:44:54.906250,120.61
15:44:54.921875,141.29
15:44:54.937500,163.95
15:44:54.953125,187.36
15:44:54.968750,210.17
15:44:54.984375,231.23
15:44:55,249.69
15:44:55.015625,264.89
15:44:55.031250,276.32
15:44:55.046875,283.66
15:44:55.062500,286.87
15:44:55.078125,286.33
15:44:55.093750,282.80
15:44:55.109375,277.11
15:44:55.125000,269.82
15:44:55.140625,260.92
15:44:55.156250,249.75
15:44:55.171875,235.41
15:44:55.187500,217.02
15:44:55.203125,194.00
15:44:55.218750,165.89
15:44:55.234375,132.03
15:44:55.250000,91.02
15:44:55.265625,40.67
15:44:55.281250,-21.30
15:44:55.296875,-95.90
15:44:55.312500,-181.31
15:44:55.328125,-271.94
15:44:55.343750,-358.95
15:44:55.359375,-432.25
15:44:55.375000,-483.11
15:44:55.390625,-506.29
15:44:55.406250,-501.07
15:44:55.421875,-470.89
15:44:55.437500,-422.33
15:44:55.453125,-363.94
15:44:55.468750,-305.36
15:44:55.484375,-256.25
15:44:55.500000,-224.79
15:44:55.515625,-215.58
15:44:55.531250,-227.89
15:44:55.546875,-255.26
15:44:55.562500,-287.04
15:44:55.578125,-311.72
15:44:55.593750,-320.55
15:44:55.609375,-309.81
15:44:55.625000,-280.80
15:44:55.640625,-238.01
15:44:55.656250,-186.47
15:44:55.671875,-129.62
15:44:55.687500,-68.85
15:44:55.703125,-4.45
15:44:55.718750,62.56
15:44:55.734375,129.16
15:44:55.750000,190.20
15:44:55.765625,239.82
15:44:55.781250,273.52
15:44:55.796875,289.85
15:44:55.812500,290.63
15:44:55.828125,279.64
15:44:55.843750,260.67
15:44:55.859375,235.99
15:44:55.875000,206.32
15:44:55.890625,172.07
15:44:55.906250,134.94
15:44:55.921875,98.48
15:44:55.937500,67.25
15:44:55.953125,44.86
15:44:55.968750,32.30
15:44:55.984375,27.41
15:44:56,25.97
15:44:56.015625,23.56
15:44:56.031250,17.26
15:44:56.046875,6.31
15:44:56.062500,-8.31
15:44:56.078125,-24.74
15:44:56.093750,-41.19
15:44:56.109375,-56.32
15:44:56.125000,-69.17
15:44:56.140625,-79.21
15:44:56.156250,-86.40
15:44:56.171875,-91.32
15:44:56.187500,-95.05
15:44:56.203125,-98.73
15:44:56.218750,-102.89
15:44:56.234375,-107.13
15:44:56.250000,-110.27
15:44:56.265625,-111.09
15:44:56.281250,-109.07
15:44:56.296875,-104.66
15:44:56.312500,-98.91
15:44:56.328125,-92.67
15:44:56.343750,-85.86
15:44:56.359375,-77.22
15:44:56.375000,-64.78
15:44:56.390625,-46.93
15:44:56.406250,-23.84
15:44:56.421875,1.64
15:44:56.437500,24.29
15:44:56.453125,38.01
15:44:56.468750,38.59
15:44:56.484375,26.20
15:44:56.500000,6.44
15:44:56.515625,-11.19
15:44:56.531250,-16.74
15:44:56.546875,-3.72
15:44:56.562500,28.47
15:44:56.578125,74.73
15:44:56.593750,126.65
15:44:56.609375,175.60
15:44:56.625000,215.05
15:44:56.640625,241.28
15:44:56.656250,252.85
15:44:56.671875,249.96
15:44:56.687500,234.16
15:44:56.703125,208.37
15:44:56.718750,176.78
15:44:56.734375,143.97
15:44:56.750000,113.77
15:44:56.765625,88.22
15:44:56.781250,67.44
15:44:56.796875,50.21
15:44:56.812500,34.95
15:44:56.828125,20.54
15:44:56.843750,6.78
15:44:56.859375,-5.66
15:44:56.875000,-15.59
15:44:56.890625,-21.55
15:44:56.906250,-22.55
15:44:56.921875,-18.34
15:44:56.937500,-9.50
15:44:56.953125,2.74
15:44:56.968750,17.10
15:44:56.984375,32.68
15:44:57,49.29
15:44:57.015625,67.30
15:44:57.031250,87.41
15:44:57.046875,110.15
15:44:57.062500,135.50
15:44:57.078125,162.55
15:44:57.093750,189.21
15:44:57.109375,212.21
15:44:57.125000,227.54
15:44:57.140625,231.55
15:44:57.156250,222.26
15:44:57.171875,200.42
15:44:57.187500,169.65
15:44:57.203125,135.49
15:44:57.218750,103.72
15:44:57.234375,78.58
15:44:57.250000,61.99
15:44:57.265625,53.66
15:44:57.281250,52.10
15:44:57.296875,55.61
15:44:57.312500,62.92
15:44:57.328125,73.00
15:44:57.343750,84.78
15:44:57.359375,96.87
15:44:57.375000,107.69
15:44:57.390625,115.97
15:44:57.406250,121.03
15:44:57.421875,122.94
15:44:57.437500,122.25
15:44:57.453125,119.54
15:44:57.468750,115.10
15:44:57.484375,108.86
15:44:57.500000,100.45
15:44:57.515625,89.50
15:44:57.531250,75.89
15:44:57.546875,59.80
15:44:57.562500,41.57
15:44:57.578125,21.55
15:44:57.593750,-0.02
15:44:57.609375,-23.00
15:44:57.625000,-47.04
15:44:57.640625,-71.40
15:44:57.656250,-94.96
15:44:57.671875,-116.49
15:44:57.687500,-135.16
15:44:57.703125,-150.92
15:44:57.718750,-164.54
15:44:57.734375,-177.29
15:44:57.750000,-190.33
15:44:57.765625,-204.20
15:44:57.781250,-218.64
15:44:57.796875,-232.66
15:44:57.812500,-244.75
15:44:57.828125,-253.11
15:44:57.843750,-255.99
15:44:57.859375,-251.86
15:44:57.875000,-239.88
15:44:57.890625,-220.19
15:44:57.906250,-194.11
15:44:57.921875,-163.93
15:44:57.937500,-132.42
15:44:57.953125,-102.16
15:44:57.968750,-75.12
15:44:57.984375,-52.46
15:44:58,-34.62
15:44:58.015625,-21.59
15:44:58.031250,-13.01
15:44:58.046875,-8.29
15:44:58.062500,-6.49
15:44:58.078125,-6.50
15:44:58.093750,-7.11
15:44:58.109375,-7.28
15:44:58.125000,-6.27
15:44:58.140625,-3.75
15:44:58.156250,0.23
15:44:58.171875,5.41
15:44:58.187500,11.32
15:44:58.203125,17.52
15:44:58.218750,23.56
15:44:58.234375,29.08
15:44:58.250000,33.74
15:44:58.265625,37.13
15:44:58.281250,38.85
15:44:58.296875,38.60
15:44:58.312500,36.38
15:44:58.328125,32.58
15:44:58.343750,27.93
15:44:58.359375,23.25
15:44:58.375000,19.14
15:44:58.390625,15.78
15:44:58.406250,12.92
15:44:58.421875,10.22
15:44:58.437500,7.43
15:44:58.453125,4.61
15:44:58.468750,1.99
15:44:58.484375,-0.23
15:44:58.500000,-2.06
15:44:58.515625,-3.81
15:44:58.531250,-5.91
15:44:58.546875,-8.84
15:44:58.562500,-12.87
15:44:58.578125,-17.91
15:44:58.593750,-23.50
15:44:58.609375,-28.74
15:44:58.625000,-32.42
15:44:58.640625,-33.38
15:44:58.656250,-30.79
15:44:58.671875,-24.38
15:44:58.687500,-14.48
15:44:58.703125,-1.84
15:44:58.718750,12.64
15:44:58.734375,28.08
15:44:58.750000,43.68
15:44:58.765625,58.64
15:44:58.781250,72.22
15:44:58.796875,83.80
15:44:58.812500,93.09
15:44:58.828125,100.24
15:44:58.843750,105.79
15:44:58.859375,110.44
15:44:58.875000,114.74
15:44:58.890625,118.84
15:44:58.906250,122.50
15:44:58.921875,125.11
15:44:58.937500,126.02
15:44:58.953125,124.69
15:44:58.968750,120.94
15:44:58.984375,114.95
15:44:59,107.25
15:44:59.015625,98.49
15:44:59.031250,89.26
15:44:59.046875,79.83
15:44:59.062500,70.14
15:44:59.078125,59.91
15:44:59.093750,48.81
15:44:59.109375,36.66
15:44:59.125000,23.47
15:44:59.140625,9.33
15:44:59.156250,-5.70
15:44:59.171875,-21.58
15:44:59.187500,-38.14
15:44:59.203125,-54.97
15:44:59.218750,-71.36
15:44:59.234375,-86.41
15:44:59.250000,-99.36
15:44:59.265625,-109.85
15:44:59.281250,-118.04
15:44:59.296875,-124.52
15:44:59.312500,-130.06
15:44:59.328125,-135.35
15:44:59.343750,-140.64
15:44:59.359375,-145.67
15:44:59.375000,-149.62
15:44:59.390625,-151.22
15:44:59.406250,-149.14
15:44:59.421875,-142.41
15:44:59.437500,-130.76
15:44:59.453125,-114.89
15:44:59.468750,-96.30
15:44:59.484375,-76.92
15:44:59.500000,-58.51
15:44:59.515625,-42.32
15:44:59.531250,-28.85
15:44:59.546875,-18.07
15:44:59.562500,-9.77
15:44:59.578125,-3.70
15:44:59.593750,0.24
15:44:59.609375,2.13
15:44:59.625000,2.19
15:44:59.640625,0.88
15:44:59.656250,-1.15
15:44:59.671875,-3.28
15:44:59.687500,-5.04
15:44:59.703125,-6.30
15:44:59.718750,-7.23
15:44:59.734375,-8.13
15:44:59.750000,-9.22
15:44:59.765625,-10.56
15:44:59.781250,-11.95
15:44:59.796875,-13.10
15:44:59.812500,-13.86
15:44:59.828125,-14.30
15:44:59.843750,-14.88
15:44:59.859375,-16.21
15:44:59.875000,-18.89
15:44:59.890625,-23.20
15:44:59.906250,-28.91
15:44:59.921875,-35.39
15:44:59.937500,-41.85
15:44:59.953125,-47.62
15:44:59.968750,-52.47
15:44:59.984375,-56.60
15:45:00,-60.54
15:45:00.015625,-64.94
15:45:00.031250,-70.40
15:45:00.046875,-77.32
15:45:00.062500,-85.83
15:45:00.078125,-95.62
15:45:00.093750,-105.87
15:45:00.109375,-115.09
15:45:00.125000,-121.40
15:45:00.140625,-122.87
15:45:00.156250,-118.09
15:45:00.171875,-106.71
15:45:00.187500,-89.56
15:45:00.203125,-68.38
15:45:00.218750,-45.39
15:45:00.234375,-22.65
15:45:00.250000,-1.75
15:45:00.265625,16.30
15:45:00.281250,30.96
15:45:00.296875,41.94
15:45:00.312500,49.14
15:45:00.328125,52.67
15:45:00.343750,52.91
15:45:00.359375,50.60
15:45:00.375000,46.67
15:45:00.390625,42.16
15:45:00.406250,37.97
15:45:00.421875,34.73
15:45:00.437500,32.71
15:45:00.453125,31.89
15:45:00.468750,32.04
15:45:00.484375,32.85
15:45:00.500000,33.97
15:45:00.515625,35.13
15:45:00.531250,36.06
15:45:00.546875,36.42
15:45:00.562500,35.82
15:45:00.578125,33.83
15:45:00.593750,30.11
15:45:00.609375,24.55
15:45:00.625000,17.35
15:45:00.640625,8.95
15:45:00.656250,-0.09
15:45:00.671875,-9.39
15:45:00.687500,-18.87
15:45:00.703125,-28.74
15:45:00.718750,-39.44
15:45:00.734375,-51.44
15:45:00.750000,-64.95
15:45:00.765625,-79.74
15:45:00.781250,-94.85
15:45:00.796875,-108.60
15:45:00.812500,-118.75
15:45:00.828125,-122.91
15:45:00.843750,-119.21
15:45:00.859375,-106.95
15:45:00.875000,-86.99
15:45:00.890625,-61.56
15:45:00.906250,-33.72
15:45:00.921875,-6.45
15:45:00.937500,18.04
15:45:00.953125,38.62
15:45:00.968750,55.07
15:45:00.984375,67.65
15:45:01,76.63
15:45:01.015625,82.22
15:45:01.031250,84.58
15:45:01.046875,84.07
15:45:01.062500,81.36
15:45:01.078125,77.31
15:45:01.093750,72.74
15:45:01.109375,68.19
15:45:01.125000,63.80
15:45:01.140625,59.42
15:45:01.156250,54.79
15:45:01.171875,49.68
15:45:01.187500,43.95
15:45:01.203125,37.51
15:45:01.218750,30.25
15:45:01.234375,22.03
15:45:01.250000,12.67
15:45:01.265625,2.06
15:45:01.281250,-9.89
15:45:01.296875,-23.13
15:45:01.312500,-37.51
15:45:01.328125,-52.73
15:45:01.343750,-68.47
15:45:01.359375,-84.39
15:45:01.375000,-100.25
15:45:01.390625,-116.05
15:45:01.406250,-131.97
15:45:01.421875,-148.28
15:45:01.437500,-165.04
15:45:01.453125,-181.71
15:45:01.468750,-197.01
15:45:01.484375,-208.95
15:45:01.500000,-215.30
15:45:01.515625,-214.30
15:45:01.531250,-205.20
15:45:01.546875,-188.56
15:45:01.562500,-166.00
15:45:01.578125,-139.66
15:45:01.593750,-111.52
15:45:01.609375,-82.92
15:45:01.625000,-54.55
15:45:01.640625,-26.78
15:45:01.656250,0.01
15:45:01.671875,25.19
15:45:01.687500,48.04
15:45:01.703125,68.02
15:45:01.718750,85.08
15:45:01.734375,99.68
15:45:01.750000,112.50
15:45:01.765625,124.09
15:45:01.781250,134.56
15:45:01.796875,143.57
15:45:01.812500,150.51
15:45:01.828125,154.90
15:45:01.843750,156.56
15:45:01.859375,155.74
15:45:01.875000,152.86
15:45:01.890625,148.27
15:45:01.906250,142.12
15:45:01.921875,134.36
15:45:01.937500,124.91
15:45:01.953125,113.88
15:45:01.968750,101.72
15:45:01.984375,89.06
15:45:02,76.61
15:45:02.015625,64.81
15:45:02.031250,53.58
15:45:02.046875,42.36
15:45:02.062500,30.27
15:45:02.078125,16.53
15:45:02.093750,0.82
15:45:02.109375,-16.38
15:45:02.125000,-33.71
15:45:02.140625,-49.07
15:45:02.156250,-60.09
15:45:02.171875,-64.59
15:45:02.187500,-61.21
15:45:02.203125,-49.80
15:45:02.218750,-31.52
15:45:02.234375,-8.59
15:45:02.250000,16.22
15:45:02.265625,40.16
15:45:02.281250,61.00
15:45:02.296875,77.23
15:45:02.312500,88.16
15:45:02.328125,93.73
15:45:02.343750,94.40
15:45:02.359375,90.98
15:45:02.375000,84.52
15:45:02.390625,76.17
15:45:02.406250,67.08
15:45:02.421875,58.21
15:45:02.437500,50.24
15:45:02.453125,43.53
15:45:02.468750,38.15
15:45:02.484375,33.96
15:45:02.500000,30.70
15:45:02.515625,28.09
15:45:02.531250,25.87
15:45:02.546875,23.75
15:45:02.562500,21.35
15:45:02.578125,18.18
15:45:02.593750,13.68
15:45:02.609375,7.37
15:45:02.625000,-1.00
15:45:02.640625,-11.28
15:45:02.656250,-22.92
15:45:02.671875,-35.15
15:45:02.687500,-47.26
15:45:02.703125,-58.94
15:45:02.718750,-70.40
15:45:02.734375,-82.30
15:45:02.750000,-95.39
15:45:02.765625,-110.00
15:45:02.781250,-125.57
15:45:02.796875,-140.53
15:45:02.812500,-152.43
15:45:02.828125,-158.52
15:45:02.843750,-156.50
15:45:02.859375,-145.13
15:45:02.875000,-124.68
15:45:02.890625,-96.87
15:45:02.906250,-64.45
15:45:02.921875,-30.57
15:45:02.937500,1.82
15:45:02.953125,30.46
15:45:02.968750,53.84
15:45:02.984375,71.24
15:45:03,82.58
15:45:03.015625,88.30
15:45:03.031250,89.31
15:45:03.046875,86.90
15:45:03.062500,82.55
15:45:03.078125,77.65
15:45:03.093750,73.30
15:45:03.109375,70.05
15:45:03.125000,68.01
15:45:03.140625,66.89
15:45:03.156250,66.28
15:45:03.171875,65.82
15:45:03.187500,65.25
15:45:03.203125,64.46
15:45:03.218750,63.34
15:45:03.234375,61.80
15:45:03.250000,59.59
15:45:03.265625,56.36
15:45:03.281250,51.61
15:45:03.296875,44.92
15:45:03.312500,36.07
15:45:03.328125,25.30
15:45:03.343750,13.32
15:45:03.359375,1.12
15:45:03.375000,-10.38
15:45:03.390625,-20.69
15:45:03.406250,-29.96
15:45:03.421875,-38.92
15:45:03.437500,-48.59
15:45:03.453125,-59.83
15:45:03.468750,-72.95
15:45:03.484375,-87.39
15:45:03.500000,-101.66
15:45:03.515625,-113.52
15:45:03.531250,-120.35
15:45:03.546875,-119.81
15:45:03.562500,-110.44
15:45:03.578125,-92.12
15:45:03.593750,-66.20
15:45:03.609375,-35.26
15:45:03.625000,-2.45
15:45:03.640625,29.18
15:45:03.656250,57.30
15:45:03.671875,80.48
15:45:03.687500,98.15
15:45:03.703125,110.30
15:45:03.718750,117.25
15:45:03.734375,119.46
15:45:03.750000,117.57
15:45:03.765625,112.49
15:45:03.781250,105.40
15:45:03.796875,97.64
15:45:03.812500,90.45
15:45:03.828125,84.71
15:45:03.843750,80.69
15:45:03.859375,78.12
15:45:03.875000,76.29
15:45:03.890625,74.42
15:45:03.906250,71.93
15:45:03.921875,68.59
15:45:03.937500,64.53
15:45:03.953125,60.05
15:45:03.968750,55.42
15:45:03.984375,50.63
15:45:04,45.37
15:45:04.015625,39.14
15:45:04.031250,31.49
15:45:04.046875,22.25
15:45:04.062500,11.63
15:45:04.078125,0.22
15:45:04.093750,-11.31
15:45:04.109375,-22.40
15:45:04.125000,-32.77
15:45:04.140625,-42.50
15:45:04.156250,-51.90
15:45:04.171875,-61.45
15:45:04.187500,-71.73
15:45:04.203125,-83.26
15:45:04.218750,-96.36
15:45:04.234375,-110.85
15:45:04.250000,-125.74
15:45:04.265625,-139.10
15:45:04.281250,-148.36
15:45:04.296875,-150.95
15:45:04.312500,-145.15
15:45:04.328125,-130.63
15:45:04.343750,-108.67
15:45:04.359375,-81.66
15:45:04.375000,-52.35
15:45:04.390625,-23.10
15:45:04.406250,4.54
15:45:04.421875,29.78
15:45:04.437500,52.26
15:45:04.453125,71.70
15:45:04.468750,87.73
15:45:04.484375,99.98
15:45:04.500000,108.34
15:45:04.515625,113.13
15:45:04.531250,115.07
15:45:04.546875,115.07
15:45:04.562500,113.94
15:45:04.578125,112.16
15:45:04.593750,109.81
15:45:04.609375,106.73
15:45:04.625000,102.77
15:45:04.640625,97.95
15:45:04.656250,92.52
15:45:04.671875,86.89
15:45:04.687500,81.38
15:45:04.703125,76.09
15:45:04.718750,70.87
15:45:04.734375,65.41
15:45:04.750000,59.52
15:45:04.765625,53.27
15:45:04.781250,47.10
15:45:04.796875,41.70
15:45:04.812500,37.65
15:45:04.828125,35.14
15:45:04.843750,33.70
15:45:04.859375,32.35
15:45:04.875000,29.97
15:45:04.890625,25.70
15:45:04.906250,19.40
15:45:04.921875,11.54
15:45:04.937500,3.00
15:45:04.953125,-5.42
15:45:04.968750,-13.40
15:45:04.984375,-21.16
15:45:05,-29.36
15:45:05.015625,-38.75
15:45:05.031250,-49.87
15:45:05.046875,-62.82
15:45:05.062500,-77.06
15:45:05.078125,-91.39
15:45:05.093750,-103.87
15:45:05.109375,-112.03
15:45:05.125000,-113.36
15:45:05.140625,-106.02
15:45:05.156250,-89.53
15:45:05.171875,-65.18
15:45:05.187500,-35.86
15:45:05.203125,-5.27
15:45:05.218750,23.01
15:45:05.234375,46.45
15:45:05.250000,63.90
15:45:05.265625,75.47
15:45:05.281250,81.94
15:45:05.296875,84.23
15:45:05.312500,83.08
15:45:05.328125,79.16
15:45:05.343750,73.23
15:45:05.359375,66.44
15:45:05.375000,60.20
15:45:05.390625,55.99
15:45:05.406250,54.85
15:45:05.421875,57.07
15:45:05.437500,62.09
15:45:05.453125,68.67
15:45:05.468750,75.38
15:45:05.484375,80.99
15:45:05.500000,84.83
15:45:05.515625,86.84
15:45:05.531250,87.34
15:45:05.546875,86.84
15:45:05.562500,85.68
15:45:05.578125,83.81
15:45:05.593750,80.75
15:45:05.609375,75.54
15:45:05.625000,67.05
15:45:05.640625,54.36
15:45:05.656250,37.21
15:45:05.671875,16.32
15:45:05.687500,-6.72
15:45:05.703125,-29.99
15:45:05.718750,-51.98
15:45:05.734375,-72.15
15:45:05.750000,-91.04
15:45:05.765625,-109.93
15:45:05.781250,-130.24
15:45:05.796875,-153.30
15:45:05.812500,-180.16
15:45:05.828125,-211.20
15:45:05.843750,-245.45
15:45:05.859375,-279.82
15:45:05.875000,-308.97
15:45:05.890625,-326.38
15:45:05.906250,-326.54
15:45:05.921875,-307.21
15:45:05.937500,-270.71
15:45:05.953125,-223.05
15:45:05.968750,-171.65
15:45:05.984375,-122.63
15:45:06,-79.25
15:45:06.015625,-42.11
15:45:06.031250,-10.53
15:45:06.046875,16.02
15:45:06.062500,37.38
15:45:06.078125,53.16
15:45:06.093750,63.55
15:45:06.109375,69.79
15:45:06.125000,73.80
15:45:06.140625,77.52
15:45:06.156250,82.21
15:45:06.171875,88.24
15:45:06.187500,95.29
15:45:06.203125,102.67
15:45:06.218750,109.70
15:45:06.234375,115.98
15:45:06.250000,121.38
15:45:06.265625,125.96
15:45:06.281250,129.75
15:45:06.296875,132.59
15:45:06.312500,134.09
15:45:06.328125,133.89
15:45:06.343750,132.08
15:45:06.359375,129.41
15:45:06.375000,127.15
15:45:06.390625,126.54
15:45:06.406250,128.16
15:45:06.421875,131.66
15:45:06.437500,135.84
15:45:06.453125,139.13
15:45:06.468750,140.12
15:45:06.484375,137.88
15:45:06.500000,132.05
15:45:06.515625,122.80
15:45:06.531250,110.63
15:45:06.546875,96.21
15:45:06.562500,80.15
15:45:06.578125,62.87
15:45:06.593750,44.60
15:45:06.609375,25.60
15:45:06.625000,6.56
15:45:06.640625,-11.17
15:45:06.656250,-25.77
15:45:06.671875,-35.45
15:45:06.687500,-39.20
15:45:06.703125,-37.09
15:45:06.718750,-30.20
15:45:06.734375,-20.07
15:45:06.750000,-8.14
15:45:06.765625,4.50
15:45:06.781250,17.07
15:45:06.796875,28.81
15:45:06.812500,38.83
15:45:06.828125,46.15
15:45:06.843750,49.94
15:45:06.859375,49.81
15:45:06.875000,45.88
15:45:06.890625,38.76
15:45:06.906250,29.45
15:45:06.921875,19.15
15:45:06.937500,9.07
15:45:06.953125,0.24
15:45:06.968750,-6.73
15:45:06.984375,-11.80
15:45:07,-15.45
15:45:07.015625,-18.45
15:45:07.031250,-21.48
15:45:07.046875,-24.95
15:45:07.062500,-28.84
15:45:07.078125,-33.00
15:45:07.093750,-37.26
15:45:07.109375,-41.65
15:45:07.125000,-46.33
15:45:07.140625,-51.50
15:45:07.156250,-57.21
15:45:07.171875,-63.43
15:45:07.187500,-69.95
15:45:07.203125,-76.39
15:45:07.218750,-82.23
15:45:07.234375,-86.93
15:45:07.250000,-90.21
15:45:07.265625,-92.43
15:45:07.281250,-94.67
15:45:07.296875,-98.44
15:45:07.312500,-104.97
15:45:07.328125,-114.40
15:45:07.343750,-125.35
15:45:07.359375,-135.24
15:45:07.375000,-141.23
15:45:07.390625,-141.37
15:45:07.406250,-135.33
15:45:07.421875,-124.40
15:45:07.437500,-110.71
15:45:07.453125,-96.27
15:45:07.468750,-82.28
15:45:07.484375,-69.00
15:45:07.500000,-56.21
15:45:07.515625,-43.82
15:45:07.531250,-32.27
15:45:07.546875,-22.52
15:45:07.562500,-15.59
15:45:07.578125,-11.88
15:45:07.593750,-10.86
15:45:07.609375,-11.15
15:45:07.625000,-11.16
15:45:07.640625,-9.87
15:45:07.656250,-7.36
15:45:07.671875,-4.77
15:45:07.687500,-3.61
15:45:07.703125,-5.03
15:45:07.718750,-9.28
15:45:07.734375,-15.79
15:45:07.750000,-23.78
15:45:07.765625,-32.75
15:45:07.781250,-42.74
15:45:07.796875,-53.97
15:45:07.812500,-66.25
15:45:07.828125,-78.58
15:45:07.843750,-89.35
15:45:07.859375,-96.91
15:45:07.875000,-100.29
15:45:07.890625,-99.52
15:45:07.906250,-95.50
15:45:07.921875,-89.53
15:45:07.937500,-82.86
15:45:07.953125,-76.47
15:45:07.968750,-71.08
15:45:07.984375,-67.27
15:45:08,-65.42
15:45:08.015625,-65.54
15:45:08.031250,-67.12
15:45:08.046875,-69.09
15:45:08.062500,-70.12
15:45:08.078125,-68.92
15:45:08.093750,-64.58
15:45:08.109375,-56.50
15:45:08.125000,-44.46
15:45:08.140625,-28.65
15:45:08.156250,-9.88
15:45:08.171875,10.41
15:45:08.187500,30.32
15:45:08.203125,47.96
15:45:08.218750,62.05
15:45:08.234375,72.28
15:45:08.250000,79.25
15:45:08.265625,84.11
15:45:08.281250,87.96
15:45:08.296875,91.56
15:45:08.312500,95.19
15:45:08.328125,98.89
15:45:08.343750,102.52
15:45:08.359375,105.82
15:45:08.375000,108.39
15:45:08.390625,109.57
15:45:08.406250,108.72
15:45:08.421875,105.43
15:45:08.437500,99.82
15:45:08.453125,92.64
15:45:08.468750,85.03
15:45:08.484375,78.22
15:45:08.500000,73.22
15:45:08.515625,70.66
15:45:08.531250,70.67
15:45:08.546875,72.89
15:45:08.562500,76.52
15:45:08.578125,80.41
15:45:08.593750,83.18
15:45:08.609375,83.51
15:45:08.625000,80.45
15:45:08.640625,73.69
15:45:08.656250,63.58
15:45:08.671875,50.87
15:45:08.687500,36.22
15:45:08.703125,19.81
15:45:08.718750,1.26
15:45:08.734375,-19.74
15:45:08.750000,-42.79
15:45:08.765625,-66.31
15:45:08.781250,-87.91
15:45:08.796875,-105.37
15:45:08.812500,-117.63
15:45:08.828125,-125.25
15:45:08.843750,-129.93
15:45:08.859375,-133.51
15:45:08.875000,-136.96
15:45:08.890625,-140.18
15:45:08.906250,-142.46
15:45:08.921875,-143.24
15:45:08.937500,-142.48
15:45:08.953125,-140.59
15:45:08.968750,-137.91
15:45:08.984375,-134.40
15:45:09,-129.79
15:45:09.015625,-124.01
15:45:09.031250,-117.56
15:45:09.046875,-111.37
15:45:09.062500,-106.37
15:45:09.078125,-102.75
15:45:09.093750,-99.84
15:45:09.109375,-96.37
15:45:09.125000,-91.02
15:45:09.140625,-83.07
15:45:09.156250,-72.54
15:45:09.171875,-60.04
15:45:09.187500,-46.38
15:45:09.203125,-32.37
15:45:09.218750,-18.84
15:45:09.234375,-6.79
15:45:09.250000,2.41
15:45:09.265625,7.11
15:45:09.281250,5.63
15:45:09.296875,-3.31
15:45:09.312500,-20.11
15:45:09.328125,-43.99
15:45:09.343750,-72.84
15:45:09.359375,-103.30
15:45:09.375000,-131.13
15:45:09.390625,-151.81
15:45:09.406250,-161.50
15:45:09.421875,-157.96
15:45:09.437500,-141.22
15:45:09.453125,-113.60
15:45:09.468750,-78.93
15:45:09.484375,-41.43
15:45:09.500000,-4.48
15:45:09.515625,29.99
15:45:09.531250,61.31
15:45:09.546875,89.44
15:45:09.562500,114.40
15:45:09.578125,136.29
15:45:09.593750,155.64
15:45:09.609375,173.77
15:45:09.625000,192.28
15:45:09.640625,211.94
15:45:09.656250,231.51
15:45:09.671875,247.48
15:45:09.687500,255.16
15:45:09.703125,250.82
15:45:09.718750,233.51
15:45:09.734375,205.68
15:45:09.750000,172.19
15:45:09.765625,138.42
15:45:09.781250,108.53
15:45:09.796875,84.69
15:45:09.812500,67.46
15:45:09.828125,56.62
15:45:09.843750,51.68
15:45:09.859375,51.82
15:45:09.875000,55.53
15:45:09.890625,60.42
15:45:09.906250,63.76
15:45:09.921875,63.28
15:45:09.937500,58.09
15:45:09.953125,48.79
15:45:09.968750,37.17
15:45:09.984375,25.49
15:45:10,15.55
15:45:10.015625,8.02
15:45:10.031250,2.06
15:45:10.046875,-4.37
15:45:10.062500,-13.69
15:45:10.078125,-27.26
15:45:10.093750,-44.32
15:45:10.109375,-61.73
15:45:10.125000,-74.93
15:45:10.140625,-79.95
15:45:10.156250,-75.15
15:45:10.171875,-62.16
15:45:10.187500,-45.02
15:45:10.203125,-28.41
15:45:10.218750,-15.71
15:45:10.234375,-7.91
15:45:10.250000,-3.96
15:45:10.265625,-1.83
15:45:10.281250,0.16
15:45:10.296875,2.75
15:45:10.312500,5.73
15:45:10.328125,8.51
15:45:10.343750,10.49
15:45:10.359375,11.26
15:45:10.375000,10.46
15:45:10.390625,7.72
15:45:10.406250,2.69
15:45:10.421875,-4.88
15:45:10.437500,-14.97
15:45:10.453125,-27.23
15:45:10.468750,-40.83
15:45:10.484375,-54.32
15:45:10.500000,-65.76
15:45:10.515625,-73.15
15:45:10.531250,-75.28
15:45:10.546875,-72.42
15:45:10.562500,-66.40
15:45:10.578125,-59.77
15:45:10.593750,-54.53
15:45:10.609375,-50.92
15:45:10.625000,-47.29
15:45:10.640625,-40.96
15:45:10.656250,-29.79
15:45:10.671875,-13.42
15:45:10.687500,6.45
15:45:10.703125,26.94
15:45:10.718750,45.38
15:45:10.734375,60.54
15:45:10.750000,72.81
15:45:10.765625,83.47
15:45:10.781250,93.52
15:45:10.796875,102.78
15:45:10.812500,109.66
15:45:10.828125,111.71
15:45:10.843750,106.70
15:45:10.859375,93.57
15:45:10.875000,72.80
15:45:10.890625,46.07
15:45:10.906250,15.39
15:45:10.921875,-17.69
15:45:10.937500,-52.40
15:45:10.953125,-88.28
15:45:10.968750,-124.32
15:45:10.984375,-158.31
15:45:11,-187.04
15:45:11.015625,-207.36
15:45:11.031250,-217.63
15:45:11.046875,-218.66
15:45:11.062500,-213.50
15:45:11.078125,-206.08
15:45:11.093750,-199.30
15:45:11.109375,-193.75
15:45:11.125000,-187.72
15:45:11.140625,-178.43
15:45:11.156250,-163.81
15:45:11.171875,-143.59
15:45:11.187500,-119.53
15:45:11.203125,-94.49
15:45:11.218750,-71.27
15:45:11.234375,-51.78
15:45:11.250000,-36.64
15:45:11.265625,-25.45
15:45:11.281250,-17.06
15:45:11.296875,-9.88
15:45:11.312500,-2.24
15:45:11.328125,7.02
15:45:11.343750,18.12
15:45:11.359375,30.14
15:45:11.375000,41.36
15:45:11.390625,50.21
15:45:11.406250,56.10
15:45:11.421875,59.75
15:45:11.437500,62.68
15:45:11.453125,66.39
15:45:11.468750,71.82
15:45:11.484375,79.28
15:45:11.500000,88.99
15:45:11.515625,101.17
15:45:11.531250,115.73
15:45:11.546875,131.69
15:45:11.562500,146.91
15:45:11.578125,158.86
15:45:11.593750,166.12
15:45:11.609375,169.61
15:45:11.625000,172.79
15:45:11.640625,180.28
15:45:11.656250,195.83
15:45:11.671875,220.61
15:45:11.687500,252.80
15:45:11.703125,288.51
15:45:11.718750,323.27
15:45:11.734375,353.07
15:45:11.750000,374.65
15:45:11.765625,385.35
15:45:11.781250,383.20
15:45:11.796875,367.54
15:45:11.812500,339.89
15:45:11.828125,304.39
15:45:11.843750,267.17
15:45:11.859375,234.71
15:45:11.875000,211.99
15:45:11.890625,201.26
15:45:11.906250,201.90
15:45:11.921875,211.19
15:45:11.937500,225.60
15:45:11.953125,241.64
15:45:11.968750,256.31
15:45:11.984375,267.10
15:45:12,272.06
15:45:12.015625,269.76
15:45:12.031250,259.57
15:45:12.046875,241.60
15:45:12.062500,216.56
15:45:12.078125,185.46
15:45:12.093750,149.34
15:45:12.109375,109.21
15:45:12.125000,66.12
15:45:12.140625,21.12
15:45:12.156250,-24.68
15:45:12.171875,-70.31
15:45:12.187500,-115.09
15:45:12.203125,-158.69
15:45:12.218750,-200.85
15:45:12.234375,-241.10
15:45:12.250000,-278.56
15:45:12.265625,-312.00
15:45:12.281250,-340.34
15:45:12.296875,-362.97
15:45:12.312500,-380.02
15:45:12.328125,-392.08
15:45:12.343750,-399.69
15:45:12.359375,-402.82
15:45:12.375000,-400.71
15:45:12.390625,-392.22
15:45:12.406250,-376.48
15:45:12.421875,-353.47
15:45:12.437500,-324.32
15:45:12.453125,-291.04
15:45:12.468750,-256.17
15:45:12.484375,-222.18
15:45:12.500000,-191.22
15:45:12.515625,-164.97
15:45:12.531250,-144.49
15:45:12.546875,-130.08
15:45:12.562500,-121.29
15:45:12.578125,-117.04
15:45:12.593750,-115.97
15:45:12.609375,-116.91
15:45:12.625000,-119.12
15:45:12.640625,-122.18
15:45:12.656250,-125.84
15:45:12.671875,-129.59
15:45:12.687500,-132.60
15:45:12.703125,-133.90
15:45:12.718750,-132.60
15:45:12.734375,-128.19
15:45:12.750000,-120.68
15:45:12.765625,-110.56
15:45:12.781250,-98.84
15:45:12.796875,-86.94
15:45:12.812500,-76.65
15:45:12.828125,-69.73
15:45:12.843750,-67.59
15:45:12.859375,-70.67
15:45:12.875000,-78.22
15:45:12.890625,-88.23
15:45:12.906250,-97.89
15:45:12.921875,-104.19
15:45:12.937500,-104.72
15:45:12.953125,-98.15
15:45:12.968750,-84.48
15:45:12.984375,-64.98
15:45:13,-41.60
15:45:13.015625,-16.43
15:45:13.031250,8.93
15:45:13.046875,33.57
15:45:13.062500,57.19
15:45:13.078125,79.66
15:45:13.093750,100.59
15:45:13.109375,119.21
15:45:13.125000,134.52
15:45:13.140625,145.68
15:45:13.156250,152.38
15:45:13.171875,154.95
15:45:13.187500,154.26
15:45:13.203125,151.36
15:45:13.218750,147.23
15:45:13.234375,142.60
15:45:13.250000,137.90
15:45:13.265625,133.24
15:45:13.281250,128.49
15:45:13.296875,123.30
15:45:13.312500,117.24
15:45:13.328125,109.97
15:45:13.343750,101.35
15:45:13.359375,91.41
15:45:13.375000,80.18
15:45:13.390625,67.41
15:45:13.406250,52.48
15:45:13.421875,34.63
15:45:13.437500,13.40
15:45:13.453125,-10.75
15:45:13.468750,-36.04
15:45:13.484375,-59.44
15:45:13.500000,-77.30
15:45:13.515625,-86.15
15:45:13.531250,-83.67
15:45:13.546875,-69.27
15:45:13.562500,-44.25
15:45:13.578125,-11.34
15:45:13.593750,25.95
15:45:13.609375,64.18
15:45:13.625000,100.46
15:45:13.640625,132.71
15:45:13.656250,159.51
15:45:13.671875,179.96
15:45:13.687500,193.56
15:45:13.703125,200.40
15:45:13.718750,201.44
15:45:13.734375,198.52
15:45:13.750000,194.11
15:45:13.765625,190.69
15:45:13.781250,189.90
15:45:13.796875,192.07
15:45:13.812500,196.10
15:45:13.828125,199.78
15:45:13.843750,200.24
15:45:13.859375,194.63
15:45:13.875000,180.71
15:45:13.890625,157.52
15:45:13.906250,125.79
15:45:13.921875,87.84
15:45:13.937500,46.90
15:45:13.953125,5.97
15:45:13.968750,-33.15
15:45:13.984375,-70.11
15:45:14,-105.42
15:45:14.015625,-139.29
15:45:14.031250,-170.63
15:45:14.046875,-196.96
15:45:14.062500,-215.24
15:45:14.078125,-223.25
15:45:14.093750,-220.75
15:45:14.109375,-209.80
15:45:14.125000,-193.94
15:45:14.140625,-176.97
15:45:14.156250,-161.58
15:45:14.171875,-148.59
15:45:14.187500,-137.11
15:45:14.203125,-125.31
15:45:14.218750,-111.62
15:45:14.234375,-95.74
15:45:14.250000,-79.09
15:45:14.265625,-64.13
15:45:14.281250,-53.22
15:45:14.296875,-47.40
15:45:14.312500,-45.86
15:45:14.328125,-46.39
15:45:14.343750,-46.48
15:45:14.359375,-44.52
15:45:14.375000,-40.48
15:45:14.390625,-35.66
15:45:14.406250,-32.01
15:45:14.421875,-31.33
15:45:14.437500,-34.75
15:45:14.453125,-42.66
15:45:14.468750,-54.73
15:45:14.484375,-69.99
15:45:14.500000,-86.90
15:45:14.515625,-103.42
15:45:14.531250,-117.51
15:45:14.546875,-127.67
15:45:14.562500,-133.55
15:45:14.578125,-135.83
15:45:14.593750,-135.70
15:45:14.609375,-133.90
15:45:14.625000,-130.09
15:45:14.640625,-122.88
15:45:14.656250,-110.71
15:45:14.671875,-92.96
15:45:14.687500,-70.67
15:45:14.703125,-46.29
15:45:14.718750,-22.71
15:45:14.734375,-1.93
15:45:14.750000,15.61
15:45:14.765625,30.70
15:45:14.781250,44.38
15:45:14.796875,56.91
15:45:14.812500,67.43
15:45:14.828125,74.63
15:45:14.843750,77.89
15:45:14.859375,78.12
15:45:14.875000,77.58
15:45:14.890625,78.79
15:45:14.906250,83.16
15:45:14.921875,90.04
15:45:14.937500,96.95
15:45:14.953125,100.78
15:45:14.968750,99.20
15:45:14.984375,91.69
15:45:15,79.49
15:45:15.015625,64.86
15:45:15.031250,49.99
15:45:15.046875,36.40
15:45:15.062500,24.62
15:45:15.078125,14.51
15:45:15.093750,5.48
15:45:15.109375,-3.37
15:45:15.125000,-13.19
15:45:15.140625,-25.20
15:45:15.156250,-40.14
15:45:15.171875,-57.65
15:45:15.187500,-75.80
15:45:15.203125,-91.26
15:45:15.218750,-100.07
15:45:15.234375,-98.87
15:45:15.250000,-86.03
15:45:15.265625,-62.05
15:45:15.281250,-29.25
15:45:15.296875,8.95
15:45:15.312500,48.74
15:45:15.328125,86.33
15:45:15.343750,118.26
15:45:15.359375,141.54
15:45:15.375000,154.21
15:45:15.390625,155.88
15:45:15.406250,147.96
15:45:15.421875,133.35
15:45:15.437500,115.60
15:45:15.453125,97.91
15:45:15.468750,82.32
15:45:15.484375,69.68
15:45:15.500000,60.05
15:45:15.515625,53.22
15:45:15.531250,49.11
15:45:15.546875,47.72
15:45:15.562500,48.86
15:45:15.578125,52.02
15:45:15.593750,56.34
15:45:15.609375,60.83
15:45:15.625000,64.57
15:45:15.640625,66.78
15:45:15.656250,66.78
15:45:15.671875,63.90
15:45:15.687500,57.58
15:45:15.703125,47.54
15:45:15.718750,34.10
15:45:15.734375,18.52
15:45:15.750000,3.07
15:45:15.765625,-9.22
15:45:15.781250,-15.10
15:45:15.796875,-12.01
15:45:15.812500,1.02
15:45:15.828125,22.88
15:45:15.843750,50.53
15:45:15.859375,79.92
15:45:15.875000,107.11
15:45:15.890625,129.39
15:45:15.906250,145.62
15:45:15.921875,156.05
15:45:15.937500,161.49
15:45:15.953125,162.69
15:45:15.968750,160.05
15:45:15.984375,153.97
15:45:16,145.28
15:45:16.015625,135.53
15:45:16.031250,126.73
15:45:16.046875,120.58
15:45:16.062500,117.64
15:45:16.078125,117.03
15:45:16.093750,116.77
15:45:16.109375,114.63
15:45:16.125000,109.14
15:45:16.140625,100.00
15:45:16.156250,88.01
15:45:16.171875,74.43
15:45:16.187500,60.37
15:45:16.203125,46.38
15:45:16.218750,32.47
15:45:16.234375,18.32
15:45:16.250000,3.65
15:45:16.265625,-11.72
15:45:16.281250,-27.81
15:45:16.296875,-44.47
15:45:16.312500,-61.36
15:45:16.328125,-77.68
15:45:16.343750,-92.14
15:45:16.359375,-103.10
15:45:16.375000,-108.91
15:45:16.390625,-108.49
15:45:16.406250,-101.68
15:45:16.421875,-89.35
15:45:16.437500,-73.08
15:45:16.453125,-54.73
15:45:16.468750,-36.02
15:45:16.484375,-18.38
15:45:16.500000,-2.98
15:45:16.515625,9.10
15:45:16.531250,17.03
15:45:16.546875,20.27
15:45:16.562500,18.92
15:45:16.578125,13.87
15:45:16.593750,6.52
15:45:16.609375,-1.50
15:45:16.625000,-8.85
15:45:16.640625,-14.73
15:45:16.656250,-19.03
15:45:16.671875,-22.09
15:45:16.687500,-24.45
15:45:16.703125,-26.63
15:45:16.718750,-28.87
15:45:16.734375,-31.24
15:45:16.750000,-33.90
15:45:16.765625,-37.41
15:45:16.781250,-42.79
15:45:16.796875,-51.15
15:45:16.812500,-63.11
15:45:16.828125,-78.17
15:45:16.843750,-94.61
15:45:16.859375,-110.03
15:45:16.875000,-122.30
15:45:16.890625,-130.30
15:45:16.906250,-134.15
15:45:16.921875,-134.68
15:45:16.937500,-132.79
15:45:16.953125,-128.99
15:45:16.968750,-123.65
15:45:16.984375,-117.52
15:45:17,-112.14
15:45:17.015625,-109.37
15:45:17.031250,-110.45
15:45:17.046875,-115.23
15:45:17.062500,-122.11
15:45:17.078125,-128.91
15:45:17.093750,-134.26
15:45:17.109375,-138.36
15:45:17.125000,-142.62
15:45:17.140625,-148.45
15:45:17.156250,-156.04
15:45:17.171875,-163.89
15:45:17.187500,-169.74
15:45:17.203125,-172.27
15:45:17.218750,-172.32
15:45:17.234375,-172.79
15:45:17.250000,-177.10
15:45:17.265625,-187.02
15:45:17.281250,-200.91
15:45:17.296875,-213.78
15:45:17.312500,-218.86
15:45:17.328125,-210.24
15:45:17.343750,-185.26
15:45:17.359375,-145.74
15:45:17.375000,-97.58
15:45:17.390625,-49.10
15:45:17.406250,-8.65
15:45:17.421875,17.49
15:45:17.437500,26.43
15:45:17.453125,19.10
15:45:17.468750,-0.44
15:45:17.484375,-26.18
15:45:17.500000,-51.53
15:45:17.515625,-70.58
15:45:17.531250,-78.97
15:45:17.546875,-74.29
15:45:17.562500,-56.10
15:45:17.578125,-25.76
15:45:17.593750,13.79
15:45:17.609375,58.40
15:45:17.625000,103.03
15:45:17.640625,142.59
15:45:17.656250,172.70
15:45:17.671875,190.76
15:45:17.687500,196.47
15:45:17.703125,191.84
15:45:17.718750,180.34
15:45:17.734375,165.71
15:45:17.750000,150.73
15:45:17.765625,136.70
15:45:17.781250,123.67
15:45:17.796875,111.40
15:45:17.812500,100.29
15:45:17.828125,91.82
15:45:17.843750,88.17
15:45:17.859375,91.11
15:45:17.875000,100.97
15:45:17.890625,116.09
15:45:17.906250,133.14
15:45:17.921875,148.24
15:45:17.937500,158.26
15:45:17.953125,161.81
15:45:17.968750,159.43
15:45:17.984375,153.15
15:45:18,145.77
15:45:18.015625,140.05
15:45:18.031250,138.25
15:45:18.046875,141.75
15:45:18.062500,150.72
15:45:18.078125,163.85
15:45:18.093750,178.31
15:45:18.109375,190.27
15:45:18.125000,195.96
15:45:18.140625,192.91
15:45:18.156250,180.85
15:45:18.171875,161.71
15:45:18.187500,138.72
15:45:18.203125,114.92
15:45:18.218750,92.00
15:45:18.234375,69.91
15:45:18.250000,47.51
15:45:18.265625,23.58
15:45:18.281250,-2.13
15:45:18.296875,-28.57
15:45:18.312500,-53.89
15:45:18.328125,-76.20
15:45:18.343750,-94.44
15:45:18.359375,-108.61
15:45:18.375000,-119.57
15:45:18.390625,-128.34
15:45:18.406250,-135.69
15:45:18.421875,-141.75
15:45:18.437500,-146.36
15:45:18.453125,-149.43
15:45:18.468750,-151.30
15:45:18.484375,-152.78
15:45:18.500000,-154.88
15:45:18.515625,-158.26
15:45:18.531250,-162.76
15:45:18.546875,-167.11
15:45:18.562500,-169.10
15:45:18.578125,-166.12
15:45:18.593750,-156.18
15:45:18.609375,-138.77
15:45:18.625000,-115.28
15:45:18.640625,-88.71
15:45:18.656250,-62.73
15:45:18.671875,-40.36
15:45:18.687500,-23.12
15:45:18.703125,-10.96
15:45:18.718750,-2.81
15:45:18.734375,2.36
15:45:18.750000,4.92
15:45:18.765625,4.59
15:45:18.781250,1.09
15:45:18.796875,-5.15
15:45:18.812500,-12.62
15:45:18.828125,-19.05
15:45:18.843750,-22.14
15:45:18.859375,-20.40
15:45:18.875000,-13.62
15:45:18.890625,-2.88
15:45:18.906250,9.86
15:45:18.921875,22.50
15:45:18.937500,33.32
15:45:18.953125,41.45
15:45:18.968750,46.87
15:45:18.984375,50.06
15:45:19,51.65
15:45:19.015625,51.98
15:45:19.031250,50.96
15:45:19.046875,48.14
15:45:19.062500,43.05
15:45:19.078125,35.55
15:45:19.093750,26.12
15:45:19.109375,15.93
15:45:19.125000,6.58
15:45:19.140625,-0.28
15:45:19.156250,-3.53
15:45:19.171875,-2.75
15:45:19.187500,1.71
15:45:19.203125,9.12
15:45:19.218750,18.78
15:45:19.234375,30.28
15:45:19.250000,43.47
15:45:19.265625,57.97
15:45:19.281250,72.72
15:45:19.296875,85.74
15:45:19.312500,94.54
15:45:19.328125,97.00
15:45:19.343750,92.33
15:45:19.359375,81.48
15:45:19.375000,66.84
15:45:19.390625,51.27
15:45:19.406250,37.09
15:45:19.421875,25.42
15:45:19.437500,16.33
15:45:19.453125,9.50
15:45:19.468750,4.84
15:45:19.484375,2.77
15:45:19.500000,3.90
15:45:19.515625,8.39
15:45:19.531250,15.44
15:45:19.546875,23.39
15:45:19.562500,30.23
15:45:19.578125,34.34
15:45:19.593750,34.94
15:45:19.609375,32.16
15:45:19.625000,26.67
15:45:19.640625,19.28
15:45:19.656250,10.81
15:45:19.671875,2.20
15:45:19.687500,-5.30
15:45:19.703125,-10.08
15:45:19.718750,-10.51
15:45:19.734375,-5.53
15:45:19.750000,4.79
15:45:19.765625,19.06
15:45:19.781250,34.88
15:45:19.796875,49.60
15:45:19.812500,61.10
15:45:19.828125,68.27
15:45:19.843750,71.02
15:45:19.859375,69.93
15:45:19.875000,65.72
15:45:19.890625,58.89
15:45:19.906250,49.71
15:45:19.921875,38.31
15:45:19.937500,25.00
15:45:19.953125,10.30
15:45:19.968750,-5.06
15:45:19.984375,-20.27
15:45:20,-34.67
15:45:20.015625,-47.84
15:45:20.031250,-59.62
15:45:20.046875,-70.03
15:45:20.062500,-79.17
15:45:20.078125,-87.16
15:45:20.093750,-94.04
15:45:20.109375,-99.79
15:45:20.125000,-104.44
15:45:20.140625,-108.04
15:45:20.156250,-110.76
15:45:20.171875,-112.91
15:45:20.187500,-114.81
15:45:20.203125,-116.75
15:45:20.218750,-118.83
15:45:20.234375,-120.75
15:45:20.250000,-121.71
15:45:20.265625,-120.41
15:45:20.281250,-115.20
15:45:20.296875,-104.61
15:45:20.312500,-87.83
15:45:20.328125,-65.18
15:45:20.343750,-38.23
15:45:20.359375,-9.51
15:45:20.375000,18.09
15:45:20.390625,41.98
15:45:20.406250,60.41
15:45:20.421875,72.62
15:45:20.437500,78.75
15:45:20.453125,79.51
15:45:20.468750,75.86
15:45:20.484375,68.88
15:45:20.500000,59.66
15:45:20.515625,49.29
15:45:20.531250,38.86
15:45:20.546875,29.28
15:45:20.562500,21.17
15:45:20.578125,14.76
15:45:20.593750,9.84
15:45:20.609375,6.01
15:45:20.625000,2.87
15:45:20.640625,0.27
15:45:20.656250,-1.69
15:45:20.671875,-2.80
15:45:20.687500,-3.12
15:45:20.703125,-3.12
15:45:20.718750,-3.73
15:45:20.734375,-6.06
15:45:20.750000,-11.04
15:45:20.765625,-19.09
15:45:20.781250,-29.90
15:45:20.796875,-42.47
15:45:20.812500,-55.27
15:45:20.828125,-66.44
15:45:20.843750,-74.12
15:45:20.859375,-76.69
15:45:20.875000,-73.21
15:45:20.890625,-63.56
15:45:20.906250,-48.57
15:45:20.921875,-29.88
15:45:20.937500,-9.50
15:45:20.953125,10.61
15:45:20.968750,28.91
15:45:20.984375,44.45
15:45:21,56.76
15:45:21.015625,65.69
15:45:21.031250,71.32
15:45:21.046875,73.82
15:45:21.062500,73.56
15:45:21.078125,71.09
15:45:21.093750,67.17
15:45:21.109375,62.66
15:45:21.125000,58.33
15:45:21.140625,54.66
15:45:21.156250,51.70
15:45:21.171875,49.14
15:45:21.187500,46.45
15:45:21.203125,43.14
15:45:21.218750,38.98
15:45:21.234375,34.14
15:45:21.250000,29.01
15:45:21.265625,24.04
15:45:21.281250,19.50
15:45:21.296875,15.25
15:45:21.312500,10.83
15:45:21.328125,5.52
15:45:21.343750,-1.45
15:45:21.359375,-10.67
15:45:21.375000,-22.40
15:45:21.390625,-36.41
15:45:21.406250,-51.74
15:45:21.421875,-66.76
15:45:21.437500,-79.21
15:45:21.453125,-86.61
15:45:21.468750,-86.90
15:45:21.484375,-79.05
15:45:21.500000,-63.51
15:45:21.515625,-42.19
15:45:21.531250,-18.01
15:45:21.546875,5.83
15:45:21.562500,26.58
15:45:21.578125,42.45
15:45:21.593750,52.63
15:45:21.609375,57.04
15:45:21.625000,56.02
15:45:21.640625,50.16
15:45:21.656250,40.23
15:45:21.671875,27.29
15:45:21.687500,12.77
15:45:21.703125,-1.77
15:45:21.718750,-14.92
15:45:21.734375,-25.70
15:45:21.750000,-33.67
15:45:21.765625,-38.79
15:45:21.781250,-41.20
15:45:21.796875,-41.06
15:45:21.812500,-38.62
15:45:21.828125,-34.31
15:45:21.843750,-28.94
15:45:21.859375,-23.64
15:45:21.875000,-19.53
15:45:21.890625,-17.45
15:45:21.906250,-17.68
15:45:21.921875,-20.03
15:45:21.937500,-24.09
15:45:21.953125,-29.61
15:45:21.968750,-36.62
15:45:21.984375,-45.34
15:45:22,-55.90
15:45:22.015625,-68.07
15:45:22.031250,-81.25
15:45:22.046875,-94.44
15:45:22.062500,-106.37
15:45:22.078125,-115.57
15:45:22.093750,-120.44
15:45:22.109375,-119.42
15:45:22.125000,-111.32
15:45:22.140625,-95.77
15:45:22.156250,-73.58
15:45:22.171875,-46.72
15:45:22.187500,-17.86
15:45:22.203125,10.33
15:45:22.218750,35.84
15:45:22.234375,57.53
15:45:22.250000,75.02
15:45:22.265625,88.21
15:45:22.281250,97.06
15:45:22.296875,101.51
15:45:22.312500,101.74
15:45:22.328125,98.44
15:45:22.343750,92.73
15:45:22.359375,85.94
15:45:22.375000,79.14
15:45:22.390625,72.90
15:45:22.406250,67.24
15:45:22.421875,61.91
15:45:22.437500,56.69
15:45:22.453125,51.63
15:45:22.468750,46.97
15:45:22.484375,42.89
15:45:22.500000,39.30
15:45:22.515625,35.67
15:45:22.531250,31.15
15:45:22.546875,24.93
15:45:22.562500,16.56
15:45:22.578125,6.27
15:45:22.593750,-5.11
15:45:22.609375,-16.35
15:45:22.625000,-26.33
15:45:22.640625,-34.40
15:45:22.656250,-40.60
15:45:22.671875,-45.50
15:45:22.687500,-49.97
15:45:22.703125,-54.88
15:45:22.718750,-60.85
15:45:22.734375,-68.26
15:45:22.750000,-77.01
15:45:22.765625,-86.41
15:45:22.781250,-95.01
15:45:22.796875,-100.75
15:45:22.812500,-101.38
15:45:22.828125,-95.14
15:45:22.843750,-81.48
15:45:22.859375,-61.36
15:45:22.875000,-37.07
15:45:22.890625,-11.46
15:45:22.906250,12.87
15:45:22.921875,34.17
15:45:22.937500,51.63
15:45:22.953125,65.15
15:45:22.968750,74.81
15:45:22.984375,80.60
15:45:23,82.36
15:45:23.015625,80.03
15:45:23.031250,73.97
15:45:23.046875,65.06
15:45:23.062500,54.57
15:45:23.078125,43.94
15:45:23.093750,34.35
15:45:23.109375,26.55
15:45:23.125000,20.83
15:45:23.140625,17.14
15:45:23.156250,15.30
15:45:23.171875,15.06
15:45:23.187500,16.14
15:45:23.203125,18.26
15:45:23.218750,21.19
15:45:23.234375,24.71
15:45:23.250000,28.67
15:45:23.265625,32.86
15:45:23.281250,36.93
15:45:23.296875,40.38
15:45:23.312500,42.64
15:45:23.328125,43.29
15:45:23.343750,42.31
15:45:23.359375,40.16
15:45:23.375000,37.68
15:45:23.390625,35.77
15:45:23.406250,35.04
15:45:23.421875,35.59
15:45:23.437500,36.88
15:45:23.453125,37.95
15:45:23.468750,37.53
15:45:23.484375,34.27
15:45:23.500000,27.08
15:45:23.515625,15.35
15:45:23.531250,-0.62
15:45:23.546875,-19.41
15:45:23.562500,-38.53
15:45:23.578125,-54.90
15:45:23.593750,-65.62
15:45:23.609375,-68.82
15:45:23.625000,-64.19
15:45:23.640625,-52.98
15:45:23.656250,-37.50
15:45:23.671875,-20.28
15:45:23.687500,-3.40
15:45:23.703125,11.91
15:45:23.718750,25.15
15:45:23.734375,36.18
15:45:23.750000,44.94
15:45:23.765625,51.31
15:45:23.781250,55.13
15:45:23.796875,56.34
15:45:23.812500,54.95
15:45:23.828125,50.97
15:45:23.843750,44.36
15:45:23.859375,35.14
15:45:23.875000,23.69
15:45:23.890625,10.96
15:45:23.906250,-1.51
15:45:23.921875,-11.95
15:45:23.937500,-18.85
15:45:23.953125,-21.57
15:45:23.968750,-20.40
15:45:23.984375,-16.39
15:45:24,-10.77
15:45:24.015625,-4.50
15:45:24.031250,1.94
15:45:24.046875,8.44
15:45:24.062500,14.93
15:45:24.078125,21.19
15:45:24.093750,26.75
15:45:24.109375,31.06
15:45:24.125000,33.61
15:45:24.140625,34.04
15:45:24.156250,32.10
15:45:24.171875,27.62
15:45:24.187500,20.62
15:45:24.203125,11.21
15:45:24.218750,-0.37
15:45:24.234375,-13.93
15:45:24.250000,-29.42
15:45:24.265625,-46.99
15:45:24.281250,-66.68
15:45:24.296875,-88.02
15:45:24.312500,-109.67
15:45:24.328125,-129.36
15:45:24.343750,-144.34
15:45:24.359375,-152.13
15:45:24.375000,-151.41
15:45:24.390625,-142.47
15:45:24.406250,-127.12
15:45:24.421875,-108.17
15:45:24.437500,-88.54
15:45:24.453125,-70.44
15:45:24.468750,-55.01
15:45:24.484375,-42.30
15:45:24.500000,-31.63
15:45:24.515625,-22.20
15:45:24.531250,-13.48
15:45:24.546875,-5.44
15:45:24.562500,1.54
15:45:24.578125,7.00
15:45:24.593750,10.77
15:45:24.609375,13.17
15:45:24.625000,15.03
15:45:24.640625,17.40
15:45:24.656250,21.19
15:45:24.671875,26.87
15:45:24.687500,34.35
15:45:24.703125,43.01
15:45:24.718750,51.99
15:45:24.734375,60.36
15:45:24.750000,67.31
15:45:24.765625,72.27
15:45:24.781250,74.90
15:45:24.796875,75.05
15:45:24.812500,72.72
15:45:24.828125,68.10
15:45:24.843750,61.58
15:45:24.859375,53.85
15:45:24.875000,45.81
15:45:24.890625,38.44
15:45:24.906250,32.49
15:45:24.921875,28.23
15:45:24.937500,25.36
15:45:24.953125,23.21
15:45:24.968750,21.10
15:45:24.984375,18.60
15:45:25,15.66
15:45:25.015625,12.39
15:45:25.031250,8.69
15:45:25.046875,4.11
15:45:25.062500,-1.97
15:45:25.078125,-9.85
15:45:25.093750,-18.96
15:45:25.109375,-27.71
15:45:25.125000,-33.83
15:45:25.140625,-35.16
15:45:25.156250,-30.50
15:45:25.171875,-20.09
15:45:25.187500,-5.51
15:45:25.203125,10.93
15:45:25.218750,26.93
15:45:25.234375,40.77
15:45:25.250000,51.51
15:45:25.265625,58.82
15:45:25.281250,62.77
15:45:25.296875,63.64
15:45:25.312500,61.99
15:45:25.328125,58.62
15:45:25.343750,54.55
15:45:25.359375,50.81
15:45:25.375000,48.03
15:45:25.390625,46.27
15:45:25.406250,44.96
15:45:25.421875,43.23
15:45:25.437500,40.31
15:45:25.453125,35.90
15:45:25.468750,30.26
15:45:25.484375,24.03
15:45:25.500000,17.84
15:45:25.515625,12.09
15:45:25.531250,6.72
15:45:25.546875,1.26
15:45:25.562500,-4.94
15:45:25.578125,-12.46
15:45:25.593750,-21.58
15:45:25.609375,-32.08
15:45:25.625000,-43.30
15:45:25.640625,-54.22
15:45:25.656250,-63.85
15:45:25.671875,-71.47
15:45:25.687500,-76.89
15:45:25.703125,-80.48
15:45:25.718750,-83.09
15:45:25.734375,-85.76
15:45:25.750000,-89.40
15:45:25.765625,-94.59
15:45:25.781250,-101.34
15:45:25.796875,-108.99
15:45:25.812500,-116.21
15:45:25.828125,-121.14
15:45:25.843750,-121.84
15:45:25.859375,-116.71
15:45:25.875000,-105.06
15:45:25.890625,-87.40
15:45:25.906250,-65.38
15:45:25.921875,-41.40
15:45:25.937500,-17.94
15:45:25.953125,3.03
15:45:25.968750,20.39
15:45:25.984375,33.89
15:45:26,43.85
15:45:26.015625,50.73
15:45:26.031250,54.85
15:45:26.046875,56.27
15:45:26.062500,54.88
15:45:26.078125,50.61
15:45:26.093750,43.65
15:45:26.109375,34.47
15:45:26.125000,23.71
15:45:26.140625,12.09
15:45:26.156250,0.17
15:45:26.171875,-11.59
15:45:26.187500,-22.83
15:45:26.203125,-33.20
15:45:26.218750,-42.55
15:45:26.234375,-51.01
15:45:26.250000,-59.03
15:45:26.265625,-67.33
15:45:26.281250,-76.60
15:45:26.296875,-87.09
15:45:26.312500,-98.42
15:45:26.328125,-109.70
15:45:26.343750,-119.87
15:45:26.359375,-128.23
15:45:26.375000,-134.67
15:45:26.390625,-139.66
15:45:26.406250,-143.94
15:45:26.421875,-147.97
15:45:26.437500,-151.57
15:45:26.453125,-153.76
15:45:26.468750,-152.97
15:45:26.484375,-147.40
15:45:26.500000,-135.47
15:45:26.515625,-116.29
15:45:26.531250,-89.91
15:45:26.546875,-57.34
15:45:26.562500,-20.49
15:45:26.578125,18.20
15:45:26.593750,56.12
15:45:26.609375,90.95
15:45:26.625000,120.88
15:45:26.640625,144.79
15:45:26.656250,162.26
15:45:26.671875,173.42
15:45:26.687500,178.77
15:45:26.703125,179.10
15:45:26.718750,175.40
15:45:26.734375,168.80
15:45:26.750000,160.50
15:45:26.765625,151.60
15:45:26.781250,142.93
15:45:26.796875,134.86
15:45:26.812500,127.35
15:45:26.828125,120.18
15:45:26.843750,113.14
15:45:26.859375,106.26
15:45:26.875000,99.68
15:45:26.890625,93.48
15:45:26.906250,87.37
15:45:26.921875,80.72
15:45:26.937500,72.75
15:45:26.953125,62.88
15:45:26.968750,51.17
15:45:26.984375,38.24
15:45:27,25.14
15:45:27.015625,12.85
15:45:27.031250,1.96
15:45:27.046875,-7.44
15:45:27.062500,-15.70
15:45:27.078125,-23.34
15:45:27.093750,-30.92
15:45:27.109375,-38.90
15:45:27.125000,-47.51
15:45:27.140625,-56.60
15:45:27.156250,-65.52
15:45:27.171875,-72.97
15:45:27.187500,-77.36
15:45:27.203125,-77.17
15:45:27.218750,-71.59
15:45:27.234375,-60.83
15:45:27.250000,-46.18
15:45:27.265625,-29.59
15:45:27.281250,-13.09
15:45:27.296875,1.68
15:45:27.312500,13.71
15:45:27.328125,22.54
15:45:27.343750,27.99
15:45:27.359375,30.02
15:45:27.375000,28.66
15:45:27.390625,24.21
15:45:27.406250,17.27
15:45:27.421875,8.87
15:45:27.437500,0.19
15:45:27.453125,-7.60
15:45:27.468750,-13.70
15:45:27.484375,-17.75
15:45:27.500000,-19.87
15:45:27.515625,-20.52
15:45:27.531250,-20.28
15:45:27.546875,-19.67
15:45:27.562500,-19.01
15:45:27.578125,-18.29
15:45:27.593750,-17.20
15:45:27.609375,-15.27
15:45:27.625000,-12.21
15:45:27.640625,-8.07
15:45:27.656250,-3.40
15:45:27.671875,0.94
15:45:27.687500,4.24
15:45:27.703125,6.24
15:45:27.718750,7.33
15:45:27.734375,8.21
15:45:27.750000,9.53
15:45:27.765625,11.42
15:45:27.781250,13.49
15:45:27.796875,15.04
15:45:27.812500,15.48
15:45:27.828125,14.58
15:45:27.843750,12.45
15:45:27.859375,9.38
15:45:27.875000,5.67
15:45:27.890625,1.76
15:45:27.906250,-1.55
15:45:27.921875,-2.97
15:45:27.937500,-0.90
15:45:27.953125,6.11
15:45:27.968750,18.78
15:45:27.984375,36.74
15:45:28,58.64
15:45:28.015625,82.63
15:45:28.031250,106.96
15:45:28.046875,130.36
15:45:28.062500,152.15
15:45:28.078125,171.96
15:45:28.093750,189.47
15:45:28.109375,204.24
15:45:28.125000,215.82
15:45:28.140625,223.96
15:45:28.156250,228.85
15:45:28.171875,231.11
15:45:28.187500,231.66
15:45:28.203125,231.36
15:45:28.218750,230.72
15:45:28.234375,229.77
15:45:28.250000,228.10
15:45:28.265625,225.12
15:45:28.281250,220.35
15:45:28.296875,213.55
15:45:28.312500,204.69
15:45:28.328125,193.90
15:45:28.343750,181.21
15:45:28.359375,166.50
15:45:28.375000,149.51
15:45:28.390625,129.87
15:45:28.406250,107.19
15:45:28.421875,81.11
15:45:28.437500,51.34
15:45:28.453125,17.81
15:45:28.468750,-19.13
15:45:28.484375,-58.48
15:45:28.500000,-98.49
15:45:28.515625,-136.79
15:45:28.531250,-170.94
15:45:28.546875,-199.03
15:45:28.562500,-220.23
15:45:28.578125,-234.95
15:45:28.593750,-244.68
15:45:28.609375,-251.49
15:45:28.625000,-257.46
15:45:28.640625,-264.26
15:45:28.656250,-272.66
15:45:28.671875,-282.35
15:45:28.687500,-291.81
15:45:28.703125,-298.54
15:45:28.718750,-299.67
15:45:28.734375,-292.84
15:45:28.750000,-277.13
15:45:28.765625,-253.51
15:45:28.781250,-224.67
15:45:28.796875,-194.17
15:45:28.812500,-165.39
15:45:28.828125,-140.59
15:45:28.843750,-120.55
15:45:28.859375,-104.66
15:45:28.875000,-91.40
15:45:28.890625,-78.99
15:45:28.906250,-65.80
15:45:28.921875,-50.73
15:45:28.937500,-33.30
15:45:28.953125,-13.73
15:45:28.968750,7.21
15:45:28.984375,28.35
15:45:29,48.38
15:45:29.015625,66.10
15:45:29.031250,80.56
15:45:29.046875,91.20
15:45:29.062500,97.85
15:45:29.078125,100.74
15:45:29.093750,100.42
15:45:29.109375,97.60
15:45:29.125000,93.03
15:45:29.140625,87.33
15:45:29.156250,80.90
15:45:29.171875,73.89
15:45:29.187500,66.31
15:45:29.203125,58.08
15:45:29.218750,49.19
15:45:29.234375,39.73
15:45:29.250000,29.90
15:45:29.265625,19.84
15:45:29.281250,9.61
15:45:29.296875,-0.80
15:45:29.312500,-11.36
15:45:29.328125,-21.90
15:45:29.343750,-32.14
15:45:29.359375,-41.80
15:45:29.375000,-50.89
15:45:29.390625,-59.67
15:45:29.406250,-68.42
15:45:29.421875,-76.99
15:45:29.437500,-84.29
15:45:29.453125,-88.40
15:45:29.468750,-87.12
15:45:29.484375,-78.98
15:45:29.500000,-64.03
15:45:29.515625,-44.06
15:45:29.531250,-22.03
15:45:29.546875,-1.00
15:45:29.562500,16.82
15:45:29.578125,30.53
15:45:29.593750,40.19
15:45:29.609375,46.35
15:45:29.625000,49.44
15:45:29.640625,49.67
15:45:29.656250,47.31
15:45:29.671875,42.98
15:45:29.687500,37.70
15:45:29.703125,32.54
15:45:29.718750,28.17
15:45:29.734375,24.51
15:45:29.750000,20.82
15:45:29.765625,16.23
15:45:29.781250,10.33
15:45:29.796875,3.52
15:45:29.812500,-3.03
15:45:29.828125,-7.86
15:45:29.843750,-9.78
15:45:29.859375,-8.35
15:45:29.875000,-4.10
15:45:29.890625,1.69
15:45:29.906250,7.40
15:45:29.921875,11.56
15:45:29.937500,13.26
15:45:29.953125,12.31
15:45:29.968750,9.12
15:45:29.984375,4.42
15:45:30,-1.12
15:45:30.015625,-7.17
15:45:30.031250,-13.76
15:45:30.046875,-21.21
15:45:30.062500,-29.94
15:45:30.078125,-40.14
15:45:30.093750,-51.57
15:45:30.109375,-63.45
15:45:30.125000,-74.46
15:45:30.140625,-82.98
15:45:30.156250,-87.45
15:45:30.171875,-86.79
15:45:30.187500,-80.68
15:45:30.203125,-69.65
15:45:30.218750,-54.90
15:45:30.234375,-37.92
15:45:30.250000,-20.11
15:45:30.265625,-2.57
15:45:30.281250,14.00
15:45:30.296875,29.29
15:45:30.312500,43.26
15:45:30.328125,56.13
15:45:30.343750,68.25
15:45:30.359375,79.88
15:45:30.375000,91.02
15:45:30.390625,101.34
15:45:30.406250,110.17
15:45:30.421875,116.80
15:45:30.437500,120.71
15:45:30.453125,121.77
15:45:30.468750,120.20
15:45:30.484375,116.42
15:45:30.500000,110.75
15:45:30.515625,103.36
15:45:30.531250,94.33
15:45:30.546875,83.80
15:45:30.562500,72.12
15:45:30.578125,59.87
15:45:30.593750,47.67
15:45:30.609375,35.88
15:45:30.625000,24.52
15:45:30.640625,13.26
15:45:30.656250,1.63
15:45:30.671875,-10.69
15:45:30.687500,-23.75
15:45:30.703125,-37.36
15:45:30.718750,-51.24
15:45:30.734375,-65.20
15:45:30.750000,-79.18
15:45:30.765625,-92.99
15:45:30.781250,-105.90
15:45:30.796875,-116.49
15:45:30.812500,-122.75
15:45:30.828125,-122.62
15:45:30.843750,-114.77
15:45:30.859375,-99.20
15:45:30.875000,-77.41
15:45:30.890625,-52.00
15:45:30.906250,-25.89
15:45:30.921875,-1.71
15:45:30.937500,18.67
15:45:30.953125,34.05
15:45:30.968750,43.80
15:45:30.984375,47.80
15:45:31,46.55
15:45:31.015625,41.42
15:45:31.031250,34.59
15:45:31.046875,28.58
15:45:31.062500,25.55
15:45:31.078125,26.53
15:45:31.093750,31.13
15:45:31.109375,37.85
15:45:31.125000,44.73
15:45:31.140625,50.25
15:45:31.156250,53.72
15:45:31.171875,55.32
15:45:31.187500,55.68
15:45:31.203125,55.37
15:45:31.218750,54.57
15:45:31.234375,53.04
15:45:31.250000,50.32
15:45:31.265625,45.87
15:45:31.281250,39.26
15:45:31.296875,29.94
15:45:31.312500,17.25
15:45:31.328125,0.47
15:45:31.343750,-20.86
15:45:31.359375,-46.56
15:45:31.375000,-75.56
15:45:31.390625,-105.89
15:45:31.406250,-135.08
15:45:31.421875,-160.67
15:45:31.437500,-180.66
15:45:31.453125,-193.71
15:45:31.468750,-199.17
15:45:31.484375,-196.92
15:45:31.500000,-187.39
15:45:31.515625,-171.66
15:45:31.531250,-151.51
15:45:31.546875,-129.28
15:45:31.562500,-107.43
15:45:31.578125,-87.90
15:45:31.593750,-71.65
15:45:31.609375,-58.54
15:45:31.625000,-47.71
15:45:31.640625,-38.22
15:45:31.656250,-29.55
15:45:31.671875,-21.79
15:45:31.687500,-15.39
15:45:31.703125,-10.63
15:45:31.718750,-7.30
15:45:31.734375,-4.79
15:45:31.750000,-2.42
15:45:31.765625,0.12
15:45:31.781250,2.57
15:45:31.796875,4.31
15:45:31.812500,4.85
15:45:31.828125,4.16
15:45:31.843750,2.83
15:45:31.859375,1.76
15:45:31.875000,1.68
15:45:31.890625,2.66
15:45:31.906250,4.02
15:45:31.921875,4.44
15:45:31.937500,2.45
15:45:31.953125,-3.12
15:45:31.968750,-12.88
15:45:31.984375,-26.79
15:45:32,-44.13
15:45:32.015625,-63.52
15:45:32.031250,-82.85
15:45:32.046875,-99.41
15:45:32.062500,-110.15
15:45:32.078125,-112.30
15:45:32.093750,-104.15
15:45:32.109375,-85.61
15:45:32.125000,-58.61
15:45:32.140625,-26.65
15:45:32.156250,5.97
15:45:32.171875,35.25
15:45:32.187500,58.45
15:45:32.203125,74.49
15:45:32.218750,83.80
15:45:32.234375,87.77
15:45:32.250000,88.12
15:45:32.265625,86.45
15:45:32.281250,84.17
15:45:32.296875,82.41
15:45:32.312500,82.17
15:45:32.328125,84.18
15:45:32.343750,88.75
15:45:32.359375,95.59
15:45:32.375000,103.71
15:45:32.390625,111.58
15:45:32.406250,117.41
15:45:32.421875,119.47
15:45:32.437500,116.46
15:45:32.453125,107.74
15:45:32.468750,93.66
15:45:32.484375,75.62
15:45:32.500000,55.95
15:45:32.515625,37.34
15:45:32.531250,22.11
15:45:32.546875,11.37
15:45:32.562500,4.78
15:45:32.578125,0.88
15:45:32.593750,-2.14
15:45:32.609375,-5.59
15:45:32.625000,-9.88
15:45:32.640625,-14.69
15:45:32.656250,-19.40
15:45:32.671875,-23.39
15:45:32.687500,-26.02
15:45:32.703125,-26.36
15:45:32.718750,-23.07
15:45:32.734375,-14.73
15:45:32.750000,-0.49
15:45:32.765625,19.26
15:45:32.781250,42.89
15:45:32.796875,68.06
15:45:32.812500,92.70
15:45:32.828125,115.66
15:45:32.843750,136.69
15:45:32.859375,155.85
15:45:32.875000,172.76
15:45:32.890625,186.35
15:45:32.906250,195.12
15:45:32.921875,197.95
15:45:32.937500,194.65
15:45:32.953125,186.11
15:45:32.968750,173.86
15:45:32.984375,159.54
15:45:33,144.43
15:45:33.015625,129.41
15:45:33.031250,115.14
15:45:33.046875,102.24
15:45:33.062500,91.14
15:45:33.078125,81.86
15:45:33.093750,73.70
15:45:33.109375,65.17
15:45:33.125000,54.45
15:45:33.140625,39.95
15:45:33.156250,21.04
15:45:33.171875,-1.55
15:45:33.187500,-25.84
15:45:33.203125,-49.25
15:45:33.218750,-69.51
15:45:33.234375,-85.48
15:45:33.250000,-97.53
15:45:33.265625,-107.31
15:45:33.281250,-116.96
15:45:33.296875,-128.22
15:45:33.312500,-141.59
15:45:33.328125,-156.04
15:45:33.343750,-169.28
15:45:33.359375,-178.42
15:45:33.375000,-180.94
15:45:33.390625,-175.46
15:45:33.406250,-162.08
15:45:33.421875,-142.30
15:45:33.437500,-118.50
15:45:33.453125,-93.35
15:45:33.468750,-69.14
15:45:33.484375,-47.56
15:45:33.500000,-29.56
15:45:33.515625,-15.52
15:45:33.531250,-5.38
15:45:33.546875,1.28
15:45:33.562500,5.18
15:45:33.578125,7.22
15:45:33.593750,8.31
15:45:33.609375,9.24
15:45:33.625000,10.50
15:45:33.640625,12.39
15:45:33.656250,14.98
15:45:33.671875,18.19
15:45:33.687500,21.61
15:45:33.703125,24.52
15:45:33.718750,25.94
15:45:33.734375,25.01
15:45:33.750000,21.38
15:45:33.765625,15.48
15:45:33.781250,8.45
15:45:33.796875,1.71
15:45:33.812500,-3.63
15:45:33.828125,-7.08
15:45:33.843750,-8.85
15:45:33.859375,-9.57
15:45:33.875000,-9.94
15:45:33.890625,-10.55
15:45:33.906250,-11.93
15:45:33.921875,-14.62
15:45:33.937500,-19.22
15:45:33.953125,-26.05
15:45:33.968750,-34.88
15:45:33.984375,-44.65
15:45:34,-53.50
15:45:34.015625,-59.23
15:45:34.031250,-59.87
15:45:34.046875,-54.31
15:45:34.062500,-42.62
15:45:34.078125,-25.96
15:45:34.093750,-6.26
15:45:34.109375,14.32
15:45:34.125000,33.84
15:45:34.140625,50.85
15:45:34.156250,64.47
15:45:34.171875,74.27
15:45:34.187500,80.09
15:45:34.203125,81.94
15:45:34.218750,79.96
15:45:34.234375,74.46
15:45:34.250000,66.01
15:45:34.265625,55.44
15:45:34.281250,43.79
15:45:34.296875,32.13
15:45:34.312500,21.41
15:45:34.328125,12.23
15:45:34.343750,4.89
15:45:34.359375,-0.66
15:45:34.375000,-4.57
15:45:34.390625,-7.02
15:45:34.406250,-8.13
15:45:34.421875,-7.99
15:45:34.437500,-6.93
15:45:34.453125,-5.55
15:45:34.468750,-4.81
15:45:34.484375,-5.82
15:45:34.500000,-9.50
15:45:34.515625,-16.23
15:45:34.531250,-25.59
15:45:34.546875,-36.49
15:45:34.562500,-47.39
15:45:34.578125,-56.81
15:45:34.593750,-63.69
15:45:34.609375,-67.68
15:45:34.625000,-69.23
15:45:34.640625,-69.44
15:45:34.656250,-69.75
15:45:34.671875,-71.59
15:45:34.687500,-75.97
15:45:34.703125,-83.10
15:45:34.718750,-92.36
15:45:34.734375,-102.23
15:45:34.750000,-110.66
15:45:34.765625,-115.46
15:45:34.781250,-114.86
15:45:34.796875,-107.89
15:45:34.812500,-94.63
15:45:34.828125,-76.18
15:45:34.843750,-54.38
15:45:34.859375,-31.34
15:45:34.875000,-9.00
15:45:34.890625,11.19
15:45:34.906250,28.44
15:45:34.921875,42.49
15:45:34.937500,53.47
15:45:34.953125,61.61
15:45:34.968750,67.29
15:45:34.984375,70.89
15:45:35,72.85
15:45:35.015625,73.55
15:45:35.031250,73.28
15:45:35.046875,72.14
15:45:35.062500,70.17
15:45:35.078125,67.45
15:45:35.093750,64.16
15:45:35.109375,60.62
15:45:35.125000,57.15
15:45:35.140625,53.99
15:45:35.156250,51.12
15:45:35.171875,48.32
15:45:35.187500,45.22
15:45:35.203125,41.40
15:45:35.218750,36.42
15:45:35.234375,29.89
15:45:35.250000,21.59
15:45:35.265625,11.65
15:45:35.281250,0.62
15:45:35.296875,-10.52
15:45:35.312500,-20.67
15:45:35.328125,-28.94
15:45:35.343750,-35.00
15:45:35.359375,-39.10
15:45:35.375000,-41.83
15:45:35.390625,-43.86
15:45:35.406250,-45.66
15:45:35.421875,-47.50
15:45:35.437500,-49.63
15:45:35.453125,-52.43
15:45:35.468750,-56.39
15:45:35.484375,-61.95
15:45:35.500000,-69.25
15:45:35.515625,-78.05
15:45:35.531250,-87.66
15:45:35.546875,-97.08
15:45:35.562500,-105.00
15:45:35.578125,-109.90
15:45:35.593750,-110.15
15:45:35.609375,-104.46
15:45:35.625000,-92.38
15:45:35.640625,-74.71
15:45:35.656250,-53.53
15:45:35.671875,-31.65
15:45:35.687500,-11.75
15:45:35.703125,4.47
15:45:35.718750,16.70
15:45:35.734375,25.76
15:45:35.750000,32.94
15:45:35.765625,39.33
15:45:35.781250,45.40
15:45:35.796875,51.04
15:45:35.812500,55.90
15:45:35.828125,59.72
15:45:35.843750,62.56
15:45:35.859375,64.75
15:45:35.875000,66.74
15:45:35.890625,69.04
15:45:35.906250,72.18
15:45:35.921875,76.73
15:45:35.937500,83.16
15:45:35.953125,91.68
15:45:35.968750,101.98
15:45:35.984375,113.16
15:45:36,123.87
15:45:36.015625,132.72
15:45:36.031250,138.75
15:45:36.046875,141.78
15:45:36.062500,142.56
15:45:36.078125,142.62
15:45:36.093750,143.97
15:45:36.109375,148.52
15:45:36.125000,157.52
15:45:36.140625,171.00
15:45:36.156250,187.44
15:45:36.171875,204.11
15:45:36.187500,217.72
15:45:36.203125,225.47
15:45:36.218750,225.87
15:45:36.234375,219.03
15:45:36.250000,206.14
15:45:36.265625,188.72
15:45:36.281250,167.91
15:45:36.296875,144.15
15:45:36.312500,117.57
15:45:36.328125,88.46
15:45:36.343750,57.79
15:45:36.359375,27.21
15:45:36.375000,-1.28
15:45:36.390625,-25.90
15:45:36.406250,-45.50
15:45:36.421875,-59.78
15:45:36.437500,-69.15
15:45:36.453125,-74.43
15:45:36.468750,-76.63
15:45:36.484375,-76.64
15:45:36.500000,-75.27
15:45:36.515625,-73.28
15:45:36.531250,-71.57
15:45:36.546875,-71.13
15:45:36.562500,-72.95
15:45:36.578125,-77.62
15:45:36.593750,-85.16
15:45:36.609375,-94.87
15:45:36.625000,-105.54
15:45:36.640625,-115.83
15:45:36.656250,-124.72
15:45:36.671875,-131.70
15:45:36.687500,-136.82
15:45:36.703125,-140.45
15:45:36.718750,-142.97
15:45:36.734375,-144.52
15:45:36.750000,-144.95
15:45:36.765625,-143.94
15:45:36.781250,-141.28
15:45:36.796875,-137.00
15:45:36.812500,-131.44
15:45:36.828125,-125.03
15:45:36.843750,-118.12
15:45:36.859375,-110.68
15:45:36.875000,-102.39
15:45:36.890625,-92.77
15:45:36.906250,-81.48
15:45:36.921875,-68.58
15:45:36.937500,-54.36
15:45:36.953125,-39.29
15:45:36.968750,-23.73
15:45:36.984375,-7.98
15:45:37,7.66
15:45:37.015625,22.59
15:45:37.031250,35.94
15:45:37.046875,46.77
15:45:37.062500,54.38
15:45:37.078125,58.64
15:45:37.093750,59.99
15:45:37.109375,59.20
15:45:37.125000,56.99
15:45:37.140625,53.94
15:45:37.156250,50.52
15:45:37.171875,47.31
15:45:37.187500,45.14
15:45:37.203125,44.93
15:45:37.218750,47.28
15:45:37.234375,52.11
15:45:37.250000,58.65
15:45:37.265625,65.68
15:45:37.281250,72.00
15:45:37.296875,76.74
15:45:37.312500,79.50
15:45:37.328125,80.09
15:45:37.343750,78.43
15:45:37.359375,74.48
15:45:37.375000,68.43
15:45:37.390625,60.93
15:45:37.406250,53.01
15:45:37.421875,45.83
15:45:37.437500,40.27
15:45:37.453125,36.61
15:45:37.468750,34.46
15:45:37.484375,32.88
15:45:37.500000,30.81
15:45:37.515625,27.42
15:45:37.531250,22.47
15:45:37.546875,16.32
15:45:37.562500,9.86
15:45:37.578125,4.23
15:45:37.593750,0.35
15:45:37.609375,-1.29
15:45:37.625000,-0.76
15:45:37.640625,1.51
15:45:37.656250,5.16
15:45:37.671875,10.16
15:45:37.687500,16.84
15:45:37.703125,25.46
15:45:37.718750,35.82
15:45:37.734375,46.93
15:45:37.750000,57.18
15:45:37.765625,64.82
15:45:37.781250,68.64
15:45:37.796875,68.27
15:45:37.812500,64.27
15:45:37.828125,57.84
15:45:37.843750,50.43
15:45:37.859375,43.45
15:45:37.875000,37.96
15:45:37.890625,34.53
15:45:37.906250,32.99
15:45:37.921875,32.31
15:45:37.937500,30.92
15:45:37.953125,27.03
15:45:37.968750,19.53
15:45:37.984375,8.57
15:45:38,-4.15
15:45:38.015625,-15.95
15:45:38.031250,-24.18
15:45:38.046875,-27.49
15:45:38.062500,-26.70
15:45:38.078125,-24.67
15:45:38.093750,-25.20
15:45:38.109375,-31.53
15:45:38.125000,-44.98
15:45:38.140625,-64.60
15:45:38.156250,-87.78
15:45:38.171875,-111.53
15:45:38.187500,-133.53
15:45:38.203125,-152.56
15:45:38.218750,-168.10
15:45:38.234375,-179.61
15:45:38.250000,-186.20
15:45:38.265625,-186.81
15:45:38.281250,-180.99
15:45:38.296875,-169.52
15:45:38.312500,-154.48
15:45:38.328125,-138.62
15:45:38.343750,-124.37
15:45:38.359375,-113.14
15:45:38.375000,-105.06
15:45:38.390625,-99.29
15:45:38.406250,-94.69
15:45:38.421875,-90.34
15:45:38.437500,-85.75
15:45:38.453125,-80.87
15:45:38.468750,-75.89
15:45:38.484375,-70.97
15:45:38.500000,-66.23
15:45:38.515625,-61.71
15:45:38.531250,-57.53
15:45:38.546875,-53.98
15:45:38.562500,-51.44
15:45:38.578125,-50.17
15:45:38.593750,-49.99
15:45:38.609375,-50.28
15:45:38.625000,-50.05
15:45:38.640625,-48.48
15:45:38.656250,-45.27
15:45:38.671875,-40.88
15:45:38.687500,-36.30
15:45:38.703125,-32.56
15:45:38.718750,-30.38
15:45:38.734375,-30.11
15:45:38.750000,-32.00
15:45:38.765625,-36.43
15:45:38.781250,-43.95
15:45:38.796875,-54.99
15:45:38.812500,-69.45
15:45:38.828125,-86.46
15:45:38.843750,-104.56
15:45:38.859375,-122.11
15:45:38.875000,-137.71
15:45:38.890625,-150.37
15:45:38.906250,-159.37
15:45:38.921875,-164.00
15:45:38.937500,-163.46
15:45:38.953125,-156.84
15:45:38.968750,-143.47
15:45:38.984375,-123.04
15:45:39,-95.74
15:45:39.015625,-62.23
15:45:39.031250,-23.64
15:45:39.046875,18.45
15:45:39.062500,61.98
15:45:39.078125,104.44
15:45:39.093750,143.02
15:45:39.109375,175.04
15:45:39.125000,198.32
15:45:39.140625,211.70
15:45:39.156250,215.11
15:45:39.171875,209.50
15:45:39.187500,196.40
15:45:39.203125,177.54
15:45:39.218750,154.52
15:45:39.234375,128.79
15:45:39.250000,101.78
15:45:39.265625,74.91
15:45:39.281250,49.61
15:45:39.296875,26.93
15:45:39.312500,7.35
15:45:39.328125,-9.25
15:45:39.343750,-23.35
15:45:39.359375,-35.37
15:45:39.375000,-45.19
15:45:39.390625,-52.05
15:45:39.406250,-54.87
15:45:39.421875,-52.75
15:45:39.437500,-45.57
15:45:39.453125,-34.11
15:45:39.468750,-19.95
15:45:39.484375,-5.03
15:45:39.500000,8.90
15:45:39.515625,20.48
15:45:39.531250,28.77
15:45:39.546875,33.16
15:45:39.562500,33.08
15:45:39.578125,28.14
15:45:39.593750,18.20
15:45:39.609375,3.54
15:45:39.625000,-15.07
15:45:39.640625,-36.35
15:45:39.656250,-58.62
15:45:39.671875,-79.82
15:45:39.687500,-97.63
15:45:39.703125,-109.71
15:45:39.718750,-114.19
15:45:39.734375,-110.32
15:45:39.750000,-98.92
15:45:39.765625,-82.34
15:45:39.781250,-63.89
15:45:39.796875,-46.68
15:45:39.812500,-32.66
15:45:39.828125,-22.22
15:45:39.843750,-14.42
15:45:39.859375,-7.89
15:45:39.875000,-1.63
15:45:39.890625,4.60
15:45:39.906250,10.39
15:45:39.921875,15.22
15:45:39.937500,18.84
15:45:39.953125,21.41
15:45:39.968750,23.29
15:45:39.984375,24.72
15:45:40,25.64
15:45:40.015625,25.76
15:45:40.031250,24.77
15:45:40.046875,22.59
15:45:40.062500,19.38
15:45:40.078125,15.56
15:45:40.093750,11.63
15:45:40.109375,7.94
15:45:40.125000,4.59
15:45:40.140625,1.36
15:45:40.156250,-2.25
15:45:40.171875,-6.79
15:45:40.187500,-12.59
15:45:40.203125,-19.59
15:45:40.218750,-27.27
15:45:40.234375,-34.87
15:45:40.250000,-41.78
15:45:40.265625,-47.66
15:45:40.281250,-52.53
15:45:40.296875,-56.52
15:45:40.312500,-59.61
15:45:40.328125,-61.55
15:45:40.343750,-62.06
15:45:40.359375,-61.03
15:45:40.375000,-58.65
15:45:40.390625,-55.25
15:45:40.406250,-50.95
15:45:40.421875,-45.13
15:45:40.437500,-36.29
15:45:40.453125,-22.19
15:45:40.468750,-0.60
15:45:40.484375,29.74
15:45:40.500000,68.40
15:45:40.515625,112.93
15:45:40.531250,159.28
15:45:40.546875,202.76
15:45:40.562500,239.11
15:45:40.578125,265.36
15:45:40.593750,280.17
15:45:40.609375,283.71
15:45:40.625000,277.24
15:45:40.640625,262.66
15:45:40.656250,242.20
15:45:40.671875,218.09
15:45:40.687500,192.37
15:45:40.703125,166.64
15:45:40.718750,141.90
15:45:40.734375,118.50
15:45:40.750000,96.39
15:45:40.765625,75.40
15:45:40.781250,55.46
15:45:40.796875,36.79
15:45:40.812500,19.79
15:45:40.828125,4.85
15:45:40.843750,-8.04
15:45:40.859375,-19.52
15:45:40.875000,-30.86
15:45:40.890625,-43.58
15:45:40.906250,-58.69
15:45:40.921875,-76.21
15:45:40.937500,-94.89
15:45:40.953125,-112.72
15:45:40.968750,-127.81
15:45:40.984375,-139.27
15:45:41,-147.52
15:45:41.015625,-153.97
15:45:41.031250,-160.09
15:45:41.046875,-166.60
15:45:41.062500,-173.12
15:45:41.078125,-178.48
15:45:41.093750,-181.55
15:45:41.109375,-181.83
15:45:41.125000,-179.82
15:45:41.140625,-176.73
15:45:41.156250,-173.99
15:45:41.171875,-172.66
15:45:41.187500,-173.04
15:45:41.203125,-174.44
15:45:41.218750,-175.24
15:45:41.234375,-173.27
15:45:41.250000,-166.36
15:45:41.265625,-153.01
15:45:41.281250,-132.96
15:45:41.296875,-107.34
15:45:41.312500,-78.39
15:45:41.328125,-48.76
15:45:41.343750,-20.59
15:45:41.359375,5.04
15:45:41.375000,28.29
15:45:41.390625,50.23
15:45:41.406250,72.22
15:45:41.421875,95.30
15:45:41.437500,119.89
15:45:41.453125,145.54
15:45:41.468750,170.98
15:45:41.484375,194.45
15:45:41.500000,214.21
15:45:41.515625,229.15
15:45:41.531250,239.33
15:45:41.546875,245.92
15:45:41.562500,250.71
15:45:41.578125,255.23
15:45:41.593750,260.07
15:45:41.609375,264.70
15:45:41.625000,267.84
15:45:41.640625,268.05
15:45:41.656250,264.34
15:45:41.671875,256.10
15:45:41.687500,242.97
15:45:41.703125,224.65
15:45:41.718750,200.90
15:45:41.734375,172.01
15:45:41.750000,139.05
15:45:41.765625,103.87
15:45:41.781250,68.54
15:45:41.796875,34.64
15:45:41.812500,2.65
15:45:41.828125,-27.96
15:45:41.843750,-58.28
15:45:41.859375,-89.26
15:45:41.875000,-121.05
15:45:41.890625,-152.72
15:45:41.906250,-182.37
15:45:41.921875,-207.49
15:45:41.937500,-225.46
15:45:41.953125,-234.12
15:45:41.968750,-232.24
15:45:41.984375,-219.75
15:45:42,-197.86
15:45:42.015625,-168.70
15:45:42.031250,-134.94
15:45:42.046875,-99.18
15:45:42.062500,-63.55
15:45:42.078125,-29.39
15:45:42.093750,2.50
15:45:42.109375,31.58
15:45:42.125000,57.23
15:45:42.140625,78.57
15:45:42.156250,94.85
15:45:42.171875,105.95
15:45:42.187500,112.86
15:45:42.203125,117.84
15:45:42.218750,123.78
15:45:42.234375,133.23
15:45:42.250000,147.25
15:45:42.265625,164.83
15:45:42.281250,183.00
15:45:42.296875,197.85
15:45:42.312500,205.84
15:45:42.328125,204.87
15:45:42.343750,194.56
15:45:42.359375,175.87
15:45:42.375000,150.11
15:45:42.390625,118.40
15:45:42.406250,81.53
15:45:42.421875,40.52
15:45:42.437500,-2.85
15:45:42.453125,-45.88
15:45:42.468750,-85.34
15:45:42.484375,-118.37
15:45:42.500000,-143.24
15:45:42.515625,-159.83
15:45:42.531250,-169.40
15:45:42.546875,-174.08
15:45:42.562500,-176.36
15:45:42.578125,-178.45
15:45:42.593750,-182.11
15:45:42.609375,-188.22
15:45:42.625000,-196.38
15:45:42.640625,-204.69
15:45:42.656250,-209.87
15:45:42.671875,-208.10
15:45:42.687500,-196.29
15:45:42.703125,-173.39
15:45:42.718750,-140.97
15:45:42.734375,-102.99
15:45:42.750000,-64.61
15:45:42.765625,-30.66
15:45:42.781250,-4.29
15:45:42.796875,13.53
15:45:42.812500,23.79
15:45:42.828125,28.60
15:45:42.843750,30.25
15:45:42.859375,30.65
15:45:42.875000,31.09
15:45:42.890625,32.35
15:45:42.906250,34.79
15:45:42.921875,38.49
15:45:42.937500,43.25
15:45:42.953125,48.59
15:45:42.968750,53.87
15:45:42.984375,58.36
15:45:43,61.36
15:45:43.015625,62.33
15:45:43.031250,61.01
15:45:43.046875,57.47
15:45:43.062500,52.20
15:45:43.078125,45.90
15:45:43.093750,39.28
15:45:43.109375,32.72
15:45:43.125000,26.12
15:45:43.140625,18.92
15:45:43.156250,10.39
15:45:43.171875,-0.16
15:45:43.187500,-13.11
15:45:43.203125,-28.50
15:45:43.218750,-46.02
15:45:43.234375,-64.93
15:45:43.250000,-84.17
15:45:43.265625,-102.40
15:45:43.281250,-118.34
15:45:43.296875,-131.22
15:45:43.312500,-141.13
15:45:43.328125,-149.10
15:45:43.343750,-156.63
15:45:43.359375,-164.92
15:45:43.375000,-174.03
15:45:43.390625,-182.46
15:45:43.406250,-187.41
15:45:43.421875,-185.57
15:45:43.437500,-174.31
15:45:43.453125,-152.62
15:45:43.468750,-121.52
15:45:43.484375,-83.82
15:45:43.500000,-43.27
15:45:43.515625,-3.65
15:45:43.531250,32.04
15:45:43.546875,61.80
15:45:43.562500,84.61
15:45:43.578125,100.05
15:45:43.593750,108.19
15:45:43.609375,109.55
15:45:43.625000,105.35
15:45:43.640625,97.46
15:45:43.656250,88.22
15:45:43.671875,79.97
15:45:43.687500,74.36
15:45:43.703125,72.06
15:45:43.718750,72.72
15:45:43.734375,75.39
15:45:43.750000,79.14
15:45:43.765625,83.55
15:45:43.781250,88.84
15:45:43.796875,95.64
15:45:43.812500,104.63
15:45:43.828125,115.93
15:45:43.843750,128.96
15:45:43.859375,142.38
15:45:43.875000,154.44
15:45:43.890625,163.44
15:45:43.906250,168.15
15:45:43.921875,168.10
15:45:43.937500,163.49
15:45:43.953125,155.03
15:45:43.968750,143.58
15:45:43.984375,129.92
15:45:44,114.78
15:45:44.015625,98.86
15:45:44.031250,83.05
15:45:44.046875,68.27
15:45:44.062500,55.33
15:45:44.078125,44.58
15:45:44.093750,35.70
15:45:44.109375,27.70
15:45:44.125000,19.26
15:45:44.140625,9.08
15:45:44.156250,-3.60
15:45:44.171875,-18.70
15:45:44.187500,-35.13
15:45:44.203125,-50.87
15:45:44.218750,-63.30
15:45:44.234375,-69.88
15:45:44.250000,-68.92
15:45:44.265625,-60.24
15:45:44.281250,-45.48
15:45:44.296875,-27.68
15:45:44.312500,-10.28
15:45:44.328125,4.00
15:45:44.343750,13.96
15:45:44.359375,19.95
15:45:44.375000,23.11
15:45:44.390625,24.52
15:45:44.406250,24.57
15:45:44.421875,23.01
15:45:44.437500,19.53
15:45:44.453125,14.37
15:45:44.468750,8.48
15:45:44.484375,3.12
15:45:44.500000,-0.96
15:45:44.515625,-4.01
15:45:44.531250,-7.18
15:45:44.546875,-11.88
15:45:44.562500,-18.94
15:45:44.578125,-28.06
15:45:44.593750,-38.01
15:45:44.609375,-47.25
15:45:44.625000,-54.59
15:45:44.640625,-59.71
15:45:44.656250,-63.07
15:45:44.671875,-65.50
15:45:44.687500,-67.82
15:45:44.703125,-70.48
15:45:44.718750,-73.57
15:45:44.734375,-76.90
15:45:44.750000,-80.17
15:45:44.765625,-83.09
15:45:44.781250,-85.46
15:45:44.796875,-87.28
15:45:44.812500,-88.76
15:45:44.828125,-90.31
15:45:44.843750,-92.34
15:45:44.859375,-95.08
15:45:44.875000,-98.46
15:45:44.890625,-102.08
15:45:44.906250,-105.43
15:45:44.921875,-108.15
15:45:44.937500,-110.20
15:45:44.953125,-111.92
15:45:44.968750,-113.88
15:45:44.984375,-116.68
15:45:45,-120.67
15:45:45.015625,-125.80
15:45:45.031250,-131.59
15:45:45.046875,-137.01
15:45:45.062500,-140.60
15:45:45.078125,-140.56
15:45:45.093750,-135.09
15:45:45.109375,-122.90
15:45:45.125000,-103.67
15:45:45.140625,-78.37
15:45:45.156250,-49.19
15:45:45.171875,-19.03
15:45:45.187500,9.31
15:45:45.203125,33.78
15:45:45.218750,53.44
15:45:45.234375,68.27
15:45:45.250000,78.78
15:45:45.265625,85.55
15:45:45.281250,89.11
15:45:45.296875,89.92
15:45:45.312500,88.66
15:45:45.328125,86.22
15:45:45.343750,83.57
15:45:45.359375,81.47
15:45:45.375000,80.29
15:45:45.390625,79.92
15:45:45.406250,80.02
15:45:45.421875,80.17
15:45:45.437500,80.17
15:45:45.453125,79.99
15:45:45.468750,79.72
15:45:45.484375,79.37
15:45:45.500000,78.84
15:45:45.515625,77.88
15:45:45.531250,76.21
15:45:45.546875,73.52
15:45:45.562500,69.65
15:45:45.578125,64.55
15:45:45.593750,58.38
15:45:45.609375,51.47
15:45:45.625000,44.26
15:45:45.640625,37.22
15:45:45.656250,30.71
15:45:45.671875,24.85
15:45:45.687500,19.44
15:45:45.703125,14.10
15:45:45.718750,8.41
15:45:45.734375,2.23
15:45:45.750000,-4.18
15:45:45.765625,-10.17
15:45:45.781250,-14.99
15:45:45.796875,-18.18
15:45:45.812500,-19.96
15:45:45.828125,-21.21
15:45:45.843750,-23.18
15:45:45.859375,-26.96
15:45:45.875000,-33.00
15:45:45.890625,-40.88
15:45:45.906250,-49.52
15:45:45.921875,-57.42
15:45:45.937500,-63.01
15:45:45.953125,-64.86
15:45:45.968750,-61.74
15:45:45.984375,-52.75
15:45:46,-37.56
15:45:46.015625,-16.64
15:45:46.031250,8.61
15:45:46.046875,35.84
15:45:46.062500,62.19
15:45:46.078125,84.71
15:45:46.093750,100.88
15:45:46.109375,109.14
15:45:46.125000,109.14
15:45:46.140625,101.79
15:45:46.156250,89.10
15:45:46.171875,73.67
15:45:46.187500,58.02
15:45:46.203125,44.11
15:45:46.218750,32.95
15:45:46.234375,24.76
15:45:46.250000,19.32
15:45:46.265625,16.31
15:45:46.281250,15.47
15:45:46.296875,16.53
15:45:46.312500,19.17
15:45:46.328125,23.05
15:45:46.343750,28.09
15:45:46.359375,34.55
15:45:46.375000,43.01
15:45:46.390625,53.99
15:45:46.406250,67.44
15:45:46.421875,82.50
15:45:46.437500,97.63
15:45:46.453125,111.23
15:45:46.468750,122.21
15:45:46.484375,130.40
15:45:46.500000,136.29
15:45:46.515625,140.61
15:45:46.531250,143.81
15:45:46.546875,145.91
15:45:46.562500,146.64
15:45:46.578125,145.92
15:45:46.593750,144.02
15:45:46.609375,141.52
15:45:46.625000,138.88
15:45:46.640625,135.95
15:45:46.656250,131.65
15:45:46.671875,124.14
15:45:46.687500,111.28
15:45:46.703125,91.37
15:45:46.718750,63.64
15:45:46.734375,28.43
15:45:46.750000,-12.88
15:45:46.765625,-58.21
15:45:46.781250,-104.92
15:45:46.796875,-149.91
15:45:46.812500,-189.69
15:45:46.828125,-220.65
15:45:46.843750,-239.68
15:45:46.859375,-244.90
15:45:46.875000,-236.31
15:45:46.890625,-216.00
15:45:46.906250,-187.61
15:45:46.921875,-155.46
15:45:46.937500,-123.40
15:45:46.953125,-94.17
15:45:46.968750,-69.14
15:45:46.984375,-48.50
15:45:47,-31.82
15:45:47.015625,-18.57
15:45:47.031250,-8.42
15:45:47.046875,-1.35
15:45:47.062500,2.54
15:45:47.078125,3.29
15:45:47.093750,1.34
15:45:47.109375,-2.37
15:45:47.125000,-6.62
15:45:47.140625,-10.23
15:45:47.156250,-12.42
15:45:47.171875,-12.99
15:45:47.187500,-12.25
15:45:47.203125,-10.76
15:45:47.218750,-9.02
15:45:47.234375,-7.33
15:45:47.250000,-5.79
15:45:47.265625,-4.48
15:45:47.281250,-3.63
15:45:47.296875,-3.65
15:45:47.312500,-4.99
15:45:47.328125,-7.91
15:45:47.343750,-12.28
15:45:47.359375,-17.53
15:45:47.375000,-22.80
15:45:47.390625,-27.23
15:45:47.406250,-30.22
15:45:47.421875,-31.61
15:45:47.437500,-31.57
15:45:47.453125,-30.46
15:45:47.468750,-28.57
15:45:47.484375,-26.05
15:45:47.500000,-22.92
15:45:47.515625,-19.26
15:45:47.531250,-15.29
15:45:47.546875,-11.50
15:45:47.562500,-8.61
15:45:47.578125,-7.38
15:45:47.593750,-8.52
15:45:47.609375,-12.63
15:45:47.625000,-20.12
15:45:47.640625,-31.11
15:45:47.656250,-45.27
15:45:47.671875,-61.59
15:45:47.687500,-78.30
15:45:47.703125,-93.02
15:45:47.718750,-103.23
15:45:47.734375,-106.92
15:45:47.750000,-103.12
15:45:47.765625,-92.23
15:45:47.781250,-75.83
15:45:47.796875,-56.20
15:45:47.812500,-35.68
15:45:47.828125,-16.13
15:45:47.843750,1.29
15:45:47.859375,16.11
15:45:47.875000,28.21
15:45:47.890625,37.62
15:45:47.906250,44.35
15:45:47.921875,48.47
15:45:47.937500,50.25
15:45:47.953125,50.19
15:45:47.968750,49.07
15:45:47.984375,47.66
15:45:48,46.52
15:45:48.015625,45.83
15:45:48.031250,45.39
15:45:48.046875,44.93
15:45:48.062500,44.29
15:45:48.078125,43.71
15:45:48.093750,43.67
15:45:48.109375,44.69
15:45:48.125000,46.97
15:45:48.140625,50.21
15:45:48.156250,53.58
15:45:48.171875,55.99
15:45:48.187500,56.48
15:45:48.203125,54.51
15:45:48.218750,50.19
15:45:48.234375,44.10
15:45:48.250000,37.04
15:45:48.265625,29.69
15:45:48.281250,22.48
15:45:48.296875,15.55
15:45:48.312500,8.95
15:45:48.328125,2.79
15:45:48.343750,-2.79
15:45:48.359375,-7.65
15:45:48.375000,-11.87
15:45:48.390625,-15.79
15:45:48.406250,-19.91
15:45:48.421875,-24.64
15:45:48.437500,-30.10
15:45:48.453125,-36.13
15:45:48.468750,-42.41
15:45:48.484375,-48.73
15:45:48.500000,-55.11
15:45:48.515625,-61.67
15:45:48.531250,-68.33
15:45:48.546875,-74.43
15:45:48.562500,-78.70
15:45:48.578125,-79.48
15:45:48.593750,-75.30
15:45:48.609375,-65.46
15:45:48.625000,-50.35
15:45:48.640625,-31.32
15:45:48.656250,-10.27
15:45:48.671875,10.88
15:45:48.687500,30.67
15:45:48.703125,48.15
15:45:48.718750,62.81
15:45:48.734375,74.33
15:45:48.750000,82.44
15:45:48.765625,86.99
15:45:48.781250,88.10
15:45:48.796875,86.27
15:45:48.812500,82.41
15:45:48.828125,77.68
15:45:48.843750,73.18
15:45:48.859375,69.67
15:45:48.875000,67.38
15:45:48.890625,66.09
15:45:48.906250,65.26
15:45:48.921875,64.40
15:45:48.937500,63.23
15:45:48.953125,61.84
15:45:48.968750,60.56
15:45:48.984375,59.82
15:45:49,59.81
15:45:49.015625,60.37
15:45:49.031250,60.99
15:45:49.046875,60.97
15:45:49.062500,59.58
15:45:49.078125,56.35
15:45:49.093750,51.14
15:45:49.109375,44.17
15:45:49.125000,35.93
15:45:49.140625,27.03
15:45:49.156250,18.05
15:45:49.171875,9.41
15:45:49.187500,1.34
15:45:49.203125,-6.10
15:45:49.218750,-12.82
15:45:49.234375,-18.62
15:45:49.250000,-23.13
15:45:49.265625,-25.90
15:45:49.281250,-26.69
15:45:49.296875,-25.65
15:45:49.312500,-23.47
15:45:49.328125,-21.17
15:45:49.343750,-19.82
15:45:49.359375,-20.21
15:45:49.375000,-22.66
15:45:49.390625,-26.99
15:45:49.406250,-32.64
15:45:49.421875,-38.74
15:45:49.437500,-44.16
15:45:49.453125,-47.56
15:45:49.468750,-47.62
15:45:49.484375,-43.40
15:45:49.500000,-34.72
15:45:49.515625,-22.41
15:45:49.531250,-8.20
15:45:49.546875,5.76
15:45:49.562500,17.53
15:45:49.578125,25.85
15:45:49.593750,30.41
15:45:49.609375,31.57
15:45:49.625000,30.10
15:45:49.640625,26.75
15:45:49.656250,22.14
15:45:49.671875,16.88
15:45:49.687500,11.68
15:45:49.703125,7.46
15:45:49.718750,5.21
15:45:49.734375,5.68
15:45:49.750000,9.15
15:45:49.765625,15.28
15:45:49.781250,23.24
15:45:49.796875,32.07
15:45:49.812500,41.03
15:45:49.828125,49.80
15:45:49.843750,58.57
15:45:49.859375,67.78
15:45:49.875000,77.96
15:45:49.890625,89.39
15:45:49.906250,101.95
15:45:49.921875,114.93
15:45:49.937500,127.15
15:45:49.953125,137.25
15:45:49.968750,144.11
15:45:49.984375,147.21
15:45:50,146.67
15:45:50.015625,143.07
15:45:50.031250,136.96
15:45:50.046875,128.55
15:45:50.062500,117.71
15:45:50.078125,104.20
15:45:50.093750,88.10
15:45:50.109375,69.94
15:45:50.125000,50.70
15:45:50.140625,31.36
15:45:50.156250,12.68
15:45:50.171875,-5.12
15:45:50.187500,-22.24
15:45:50.203125,-39.19
15:45:50.218750,-56.56
15:45:50.234375,-74.91
15:45:50.250000,-94.63
15:45:50.265625,-115.72
15:45:50.281250,-137.56
15:45:50.296875,-158.80
15:45:50.312500,-177.39
15:45:50.328125,-190.95
15:45:50.343750,-197.35
15:45:50.359375,-195.24
15:45:50.375000,-184.54
15:45:50.390625,-166.44
15:45:50.406250,-143.10
15:45:50.421875,-117.16
15:45:50.437500,-91.10
15:45:50.453125,-66.86
15:45:50.468750,-45.56
15:45:50.484375,-27.52
15:45:50.500000,-12.43
15:45:50.515625,0.33
15:45:50.531250,11.48
15:45:50.546875,21.51
15:45:50.562500,30.62
15:45:50.578125,38.67
15:45:50.593750,45.29
15:45:50.609375,50.01
15:45:50.625000,52.49
15:45:50.640625,52.57
15:45:50.656250,50.39
15:45:50.671875,46.36
15:45:50.687500,41.16
15:45:50.703125,35.60
15:45:50.718750,30.32
15:45:50.734375,25.64
15:45:50.750000,21.32
15:45:50.765625,16.62
15:45:50.781250,10.62
15:45:50.796875,2.59
15:45:50.812500,-7.61
15:45:50.828125,-19.47
15:45:50.843750,-32.12
15:45:50.859375,-44.72
15:45:50.875000,-56.82
15:45:50.890625,-68.47
15:45:50.906250,-79.98
15:45:50.921875,-91.55
15:45:50.937500,-103.00
15:45:50.953125,-113.79
15:45:50.968750,-123.31
15:45:50.984375,-131.21
15:45:51,-137.56
15:45:51.015625,-142.66
15:45:51.031250,-146.70
15:45:51.046875,-149.41
15:45:51.062500,-149.94
15:45:51.078125,-147.12
15:45:51.093750,-139.86
15:45:51.109375,-127.55
15:45:51.125000,-110.36
15:45:51.140625,-89.15
15:45:51.156250,-65.30
15:45:51.171875,-40.47
15:45:51.187500,-16.28
15:45:51.203125,5.86
15:45:51.218750,24.94
15:45:51.234375,40.37
15:45:51.250000,51.98
15:45:51.265625,60.00
15:45:51.281250,64.95
15:45:51.296875,67.55
15:45:51.312500,68.58
15:45:51.328125,68.75
15:45:51.343750,68.51
15:45:51.359375,67.97
15:45:51.375000,66.83
15:45:51.390625,64.54
15:45:51.406250,60.55
15:45:51.421875,54.60
15:45:51.437500,46.96
15:45:51.453125,38.36
15:45:51.468750,29.83
15:45:51.484375,22.36
15:45:51.500000,16.69
15:45:51.515625,13.16
15:45:51.531250,11.77
15:45:51.546875,12.28
15:45:51.562500,14.41
15:45:51.578125,17.81
15:45:51.593750,22.03
15:45:51.609375,26.47
15:45:51.625000,30.29
15:45:51.640625,32.53
15:45:51.656250,32.35
15:45:51.671875,29.30
15:45:51.687500,23.52
15:45:51.703125,15.65
15:45:51.718750,6.55
15:45:51.734375,-3.13
15:45:51.750000,-13.28
15:45:51.765625,-24.22
15:45:51.781250,-36.31
15:45:51.796875,-49.37
15:45:51.812500,-62.26
15:45:51.828125,-73.00
15:45:51.843750,-79.38
15:45:51.859375,-79.68
15:45:51.875000,-73.31
15:45:51.890625,-61.00
15:45:51.906250,-44.45
15:45:51.921875,-25.83
15:45:51.937500,-7.20
15:45:51.953125,9.87
15:45:51.968750,24.40
15:45:51.984375,35.95
15:45:52,44.47
15:45:52.015625,50.16
15:45:52.031250,53.42
15:45:52.046875,54.73
15:45:52.062500,54.64
15:45:52.078125,53.72
15:45:52.093750,52.46
15:45:52.109375,51.12
15:45:52.125000,49.70
15:45:52.140625,47.77
15:45:52.156250,44.67
15:45:52.171875,39.75
15:45:52.187500,32.66
15:45:52.203125,23.57
15:45:52.218750,13.06
15:45:52.234375,1.96
15:45:52.250000,-8.89
15:45:52.265625,-18.83
15:45:52.281250,-27.34
15:45:52.296875,-34.07
15:45:52.312500,-38.81
15:45:52.328125,-41.46
15:45:52.343750,-42.04
15:45:52.359375,-40.66
15:45:52.375000,-37.51
15:45:52.390625,-32.88
15:45:52.406250,-27.17
15:45:52.421875,-20.98
15:45:52.437500,-15.04
15:45:52.453125,-10.09
15:45:52.468750,-6.71
15:45:52.484375,-5.28
15:45:52.500000,-6.08
15:45:52.515625,-9.31
15:45:52.531250,-15.11
15:45:52.546875,-23.20
15:45:52.562500,-32.59
15:45:52.578125,-41.43
15:45:52.593750,-47.34
15:45:52.609375,-48.13
15:45:52.625000,-42.71
15:45:52.640625,-31.58
15:45:52.656250,-16.68
15:45:52.671875,-0.77
15:45:52.687500,13.64
15:45:52.703125,24.83
15:45:52.718750,32.15
15:45:52.734375,35.60
15:45:52.750000,35.43
15:45:52.765625,31.78
15:45:52.781250,24.72
15:45:52.796875,14.61
15:45:52.812500,2.40
15:45:52.828125,-10.24
15:45:52.843750,-21.24
15:45:52.859375,-28.67
15:45:52.875000,-31.41
15:45:52.890625,-29.44
15:45:52.906250,-23.83
15:45:52.921875,-16.33
15:45:52.937500,-8.80
15:45:52.953125,-2.71
15:45:52.968750,1.07
15:45:52.984375,2.28
15:45:53,1.10
15:45:53.015625,-2.03
15:45:53.031250,-6.56
15:45:53.046875,-11.86
15:45:53.062500,-17.31
15:45:53.078125,-22.42
15:45:53.093750,-26.97
15:45:53.109375,-31.13
15:45:53.125000,-35.43
15:45:53.140625,-40.39
15:45:53.156250,-46.27
15:45:53.171875,-52.75
15:45:53.187500,-58.96
15:45:53.203125,-63.88
15:45:53.218750,-66.81
15:45:53.234375,-67.88
15:45:53.250000,-68.09
15:45:53.265625,-69.11
15:45:53.281250,-72.64
15:45:53.296875,-79.87
15:45:53.312500,-90.92
15:45:53.328125,-104.71
15:45:53.343750,-119.10
15:45:53.359375,-131.23
15:45:53.375000,-138.25
15:45:53.390625,-138.07
15:45:53.406250,-129.96
15:45:53.421875,-114.78
15:45:53.437500,-94.60
15:45:53.453125,-71.84
15:45:53.468750,-48.41
15:45:53.484375,-25.31
15:45:53.500000,-2.78
15:45:53.515625,19.04
15:45:53.531250,39.40
15:45:53.546875,56.84
15:45:53.562500,69.64
15:45:53.578125,76.56
15:45:53.593750,77.51
15:45:53.609375,73.59
15:45:53.625000,66.54
15:45:53.640625,58.05
15:45:53.656250,49.26
15:45:53.671875,40.80
15:45:53.687500,33.10
15:45:53.703125,26.84
15:45:53.718750,22.93
15:45:53.734375,22.41
15:45:53.750000,25.99
15:45:53.765625,33.81
15:45:53.781250,45.52
15:45:53.796875,60.39
15:45:53.812500,77.58
15:45:53.828125,96.01
15:45:53.843750,114.19
15:45:53.859375,130.13
15:45:53.875000,141.56
15:45:53.890625,146.60
15:45:53.906250,144.39
15:45:53.921875,135.51
15:45:53.937500,121.77
15:45:53.953125,105.46
15:45:53.968750,88.50
15:45:53.984375,71.86
15:45:54,55.50
15:45:54.015625,38.97
15:45:54.031250,22.09
15:45:54.046875,5.53
15:45:54.062500,-9.15
15:45:54.078125,-19.99
15:45:54.093750,-25.38
15:45:54.109375,-24.80
15:45:54.125000,-19.20
15:45:54.140625,-10.83
15:45:54.156250,-2.66
15:45:54.171875,2.56
15:45:54.187500,3.36
15:45:54.203125,0.03
15:45:54.218750,-5.31
15:45:54.234375,-9.49
15:45:54.250000,-9.48
15:45:54.265625,-3.51
15:45:54.281250,8.27
15:45:54.296875,24.04
15:45:54.312500,41.20
15:45:54.328125,57.56
15:45:54.343750,72.02
15:45:54.359375,84.60
15:45:54.375000,95.80
15:45:54.390625,105.76
15:45:54.406250,113.99
15:45:54.421875,119.55
15:45:54.437500,121.76
15:45:54.453125,120.63
15:45:54.468750,116.89
15:45:54.484375,111.54
15:45:54.500000,105.27
15:45:54.515625,98.25
15:45:54.531250,90.26
15:45:54.546875,81.10
15:45:54.562500,70.84
15:45:54.578125,59.69
15:45:54.593750,47.85
15:45:54.609375,35.34
15:45:54.625000,22.21
15:45:54.640625,8.88
15:45:54.656250,-3.69
15:45:54.671875,-14.28
15:45:54.687500,-21.90
15:45:54.703125,-26.38
15:45:54.718750,-28.49
15:45:54.734375,-29.49
15:45:54.750000,-30.62
15:45:54.765625,-32.46
15:45:54.781250,-34.92
15:45:54.796875,-37.44
15:45:54.812500,-39.55
15:45:54.828125,-41.31
15:45:54.843750,-43.63
15:45:54.859375,-48.16
15:45:54.875000,-56.93
15:45:54.890625,-71.68
15:45:54.906250,-93.14
15:45:54.921875,-120.43
15:45:54.937500,-151.01
15:45:54.953125,-181.15
15:45:54.968750,-206.76
15:45:54.984375,-224.37
15:45:55,-231.86
15:45:55.015625,-228.69
15:45:55.031250,-215.74
15:45:55.046875,-194.90
15:45:55.062500,-168.38
15:45:55.078125,-138.26
15:45:55.093750,-106.09
15:45:55.109375,-72.65
15:45:55.125000,-38.17
15:45:55.140625,-2.67
15:45:55.156250,33.48
15:45:55.171875,69.17
15:45:55.187500,102.42
15:45:55.203125,130.82
15:45:55.218750,152.16
15:45:55.234375,164.98
15:45:55.250000,169.04
15:45:55.265625,165.24
15:45:55.281250,155.36
15:45:55.296875,141.52
15:45:55.312500,125.70
15:45:55.328125,109.46
15:45:55.343750,93.89
15:45:55.359375,79.74
15:45:55.375000,67.61
15:45:55.390625,58.05
15:45:55.406250,51.47
15:45:55.421875,47.90
15:45:55.437500,46.79
15:45:55.453125,46.98
15:45:55.468750,46.87
15:45:55.484375,44.83
15:45:55.500000,39.62
15:45:55.515625,30.75
15:45:55.531250,18.54
15:45:55.546875,4.01
15:45:55.562500,-11.50
15:45:55.578125,-26.73
15:45:55.593750,-40.80
15:45:55.609375,-53.36
15:45:55.625000,-64.48
15:45:55.640625,-74.45
15:45:55.656250,-83.38
15:45:55.671875,-90.89
15:45:55.687500,-96.14
15:45:55.703125,-97.99
15:45:55.718750,-95.64
15:45:55.734375,-89.09
15:45:55.750000,-79.52
15:45:55.765625,-69.09
15:45:55.781250,-60.32
15:45:55.796875,-55.20
15:45:55.812500,-54.41
15:45:55.828125,-57.06
15:45:55.843750,-60.99
15:45:55.859375,-63.56
15:45:55.875000,-62.51
15:45:55.890625,-56.61
15:45:55.906250,-45.95
15:45:55.921875,-31.65
15:45:55.937500,-15.56
15:45:55.953125,0.31
15:45:55.968750,14.09
15:45:55.984375,24.31
15:45:56,30.07
15:45:56.015625,31.05
15:45:56.031250,27.51
15:45:56.046875,20.27
15:45:56.062500,10.53
15:45:56.078125,-0.28
15:45:56.093750,-10.72
15:45:56.109375,-19.58
15:45:56.125000,-25.99
15:45:56.140625,-29.55
15:45:56.156250,-30.34
15:45:56.171875,-28.78
15:45:56.187500,-25.47
15:45:56.203125,-20.97
15:45:56.218750,-15.73
15:45:56.234375,-10.04
15:45:56.250000,-4.11
15:45:56.265625,1.76
15:45:56.281250,7.17
15:45:56.296875,11.61
15:45:56.312500,14.54
15:45:56.328125,15.58
15:45:56.343750,14.65
15:45:56.359375,12.00
15:45:56.375000,8.11
15:45:56.390625,3.55
15:45:56.406250,-1.20
15:45:56.421875,-5.87
15:45:56.437500,-10.39
15:45:56.453125,-14.86
15:45:56.468750,-19.35
15:45:56.484375,-23.84
15:45:56.500000,-28.09
15:45:56.515625,-31.73
15:45:56.531250,-34.39
15:45:56.546875,-35.92
15:45:56.562500,-36.56
15:45:56.578125,-36.93
15:45:56.593750,-37.95
15:45:56.609375,-40.57
15:45:56.625000,-45.36
15:45:56.640625,-52.27
15:45:56.656250,-60.47
15:45:56.671875,-68.33
15:45:56.687500,-73.80
15:45:56.703125,-74.86
15:45:56.718750,-70.02
15:45:56.734375,-58.78
15:45:56.750000,-41.79
15:45:56.765625,-20.71
15:45:56.781250,2.21
15:45:56.796875,24.64
15:45:56.812500,44.70
15:45:56.828125,61.26
15:45:56.843750,73.95
15:45:56.859375,82.97
15:45:56.875000,88.79
15:45:56.890625,91.92
15:45:56.906250,92.78
15:45:56.921875,91.77
15:45:56.937500,89.36
15:45:56.953125,86.13
15:45:56.968750,82.75
15:45:56.984375,79.77
15:45:57,77.57
15:45:57.015625,76.22
15:45:57.031250,75.52
15:45:57.046875,75.18
15:45:57.062500,74.87
15:45:57.078125,74.34
15:45:57.093750,73.48
15:45:57.109375,72.29
15:45:57.125000,70.79
15:45:57.140625,68.95
15:45:57.156250,66.60
15:45:57.171875,63.46
15:45:57.187500,59.15
15:45:57.203125,53.40
15:45:57.218750,46.15
15:45:57.234375,37.64
15:45:57.250000,28.30
15:45:57.265625,18.57
15:45:57.281250,8.71
15:45:57.296875,-1.24
15:45:57.312500,-11.36
15:45:57.328125,-21.63
15:45:57.343750,-31.83
15:45:57.359375,-41.52
15:45:57.375000,-50.20
15:45:57.390625,-57.54
15:45:57.406250,-63.45
15:45:57.421875,-68.06
15:45:57.437500,-71.65
15:45:57.453125,-74.49
15:45:57.468750,-76.81
15:45:57.484375,-78.84
15:45:57.500000,-80.92
15:45:57.515625,-83.42
15:45:57.531250,-86.69
15:45:57.546875,-90.77
15:45:57.562500,-95.19
15:45:57.578125,-98.89
15:45:57.593750,-100.36
15:45:57.609375,-98.09
15:45:57.625000,-91.04
15:45:57.640625,-79.05
15:45:57.656250,-62.96
15:45:57.671875,-44.36
15:45:57.687500,-25.13
15:45:57.703125,-6.83
15:45:57.718750,9.52
15:45:57.734375,23.57
15:45:57.750000,35.31
15:45:57.765625,44.81
15:45:57.781250,51.99
15:45:57.796875,56.72
15:45:57.812500,58.95
15:45:57.828125,58.87
15:45:57.843750,57.02
15:45:57.859375,54.11
15:45:57.875000,50.83
15:45:57.890625,47.59
15:45:57.906250,44.53
15:45:57.921875,41.57
15:45:57.937500,38.59
15:45:57.953125,35.63
15:45:57.968750,32.88
15:45:57.984375,30.60
15:45:58,28.94
15:45:58.015625,27.81
15:45:58.031250,26.87
15:45:58.046875,25.54
15:45:58.062500,23.25
15:45:58.078125,19.63
15:45:58.093750,14.64
15:45:58.109375,8.62
15:45:58.125000,2.16
15:45:58.140625,-4.10
15:45:58.156250,-9.73
15:45:58.171875,-14.62
15:45:58.187500,-18.96
15:45:58.203125,-23.15
15:45:58.218750,-27.49
15:45:58.234375,-32.08
15:45:58.250000,-36.72
15:45:58.265625,-41.03
15:45:58.281250,-44.66
15:45:58.296875,-47.41
15:45:58.312500,-49.39
15:45:58.328125,-50.94
15:45:58.343750,-52.60
15:45:58.359375,-54.95
15:45:58.375000,-58.55
15:45:58.390625,-63.65
15:45:58.406250,-70.10
15:45:58.421875,-77.20
15:45:58.437500,-83.65
15:45:58.453125,-87.77
15:45:58.468750,-87.93
15:45:58.484375,-82.97
15:45:58.500000,-72.63
15:45:58.515625,-57.58
15:45:58.531250,-39.36
15:45:58.546875,-19.88
15:45:58.562500,-0.97
15:45:58.578125,16.07
15:45:58.593750,30.67
15:45:58.609375,42.88
15:45:58.625000,52.99
15:45:58.640625,61.28
15:45:58.656250,67.70
15:45:58.671875,72.01
15:45:58.687500,73.96
15:45:58.703125,73.67
15:45:58.718750,71.67
15:45:58.734375,68.84
15:45:58.750000,66.06
15:45:58.765625,63.92
15:45:58.781250,62.60
15:45:58.796875,61.96
15:45:58.812500,61.80
15:45:58.828125,62.00
15:45:58.843750,62.54
15:45:58.859375,63.34
15:45:58.875000,64.05
15:45:58.890625,64.10
15:45:58.906250,62.87
15:45:58.921875,59.96
15:45:58.937500,55.37
15:45:58.953125,49.59
15:45:58.968750,43.32
15:45:58.984375,37.28
15:45:59,31.85
15:45:59.015625,27.02
15:45:59.031250,22.41
15:45:59.046875,17.54
15:45:59.062500,12.00
15:45:59.078125,5.65
15:45:59.093750,-1.34
15:45:59.109375,-8.59
15:45:59.125000,-15.68
15:45:59.140625,-22.35
15:45:59.156250,-28.59
15:45:59.171875,-34.70
15:45:59.187500,-41.13
15:45:59.203125,-48.33
15:45:59.218750,-56.46
15:45:59.234375,-65.32
15:45:59.250000,-74.13
15:45:59.265625,-81.62
15:45:59.281250,-86.24
15:45:59.296875,-86.46
15:45:59.312500,-81.27
15:45:59.328125,-70.49
15:45:59.343750,-54.89
15:45:59.359375,-36.07
15:45:59.375000,-15.98
15:45:59.390625,3.50
15:45:59.406250,20.99
15:45:59.421875,35.69
15:45:59.437500,47.25
15:45:59.453125,55.63
15:45:59.468750,60.99
15:45:59.484375,63.67
15:45:59.500000,64.21
15:45:59.515625,63.36
15:45:59.531250,61.91
15:45:59.546875,60.50
15:45:59.562500,59.47
15:45:59.578125,58.85
15:45:59.593750,58.51
15:45:59.609375,58.23
15:45:59.625000,57.94
15:45:59.640625,57.64
15:45:59.656250,57.39
15:45:59.671875,57.18
15:45:59.687500,56.86
15:45:59.703125,56.14
15:45:59.718750,54.59
15:45:59.734375,51.79
15:45:59.750000,47.46
15:45:59.765625,41.63
15:45:59.781250,34.70
15:45:59.796875,27.30
15:45:59.812500,20.05
15:45:59.828125,13.31
15:45:59.843750,6.98
15:45:59.859375,0.59
15:45:59.875000,-6.38
15:45:59.890625,-14.18
15:45:59.906250,-22.49
15:45:59.921875,-30.59
15:45:59.937500,-37.60
15:45:59.953125,-42.97
15:45:59.968750,-46.73
15:45:59.984375,-49.51
15:46:00,-52.25
15:46:00.015625,-55.86
15:46:00.031250,-60.90
15:46:00.046875,-67.50
15:46:00.062500,-75.30
15:46:00.078125,-83.53
15:46:00.093750,-90.98
15:46:00.109375,-96.16
15:46:00.125000,-97.45
15:46:00.140625,-93.51
15:46:00.156250,-83.74
15:46:00.171875,-68.56
15:46:00.187500,-49.41
15:46:00.203125,-28.36
15:46:00.218750,-7.48
15:46:00.234375,11.66
15:46:00.250000,28.32
15:46:00.265625,42.32
15:46:00.281250,53.79
15:46:00.296875,62.76
15:46:00.312500,69.11
15:46:00.328125,72.70
15:46:00.343750,73.70
15:46:00.359375,72.74
15:46:00.375000,70.79
15:46:00.390625,68.76
15:46:00.406250,67.16
15:46:00.421875,65.95
15:46:00.437500,64.68
15:46:00.453125,62.93
15:46:00.468750,60.64
15:46:00.484375,58.18
15:46:00.500000,56.15
15:46:00.515625,54.97
15:46:00.531250,54.55
15:46:00.546875,54.33
15:46:00.562500,53.45
15:46:00.578125,51.18
15:46:00.593750,47.13
15:46:00.609375,41.35
15:46:00.625000,34.20
15:46:00.640625,26.17
15:46:00.656250,17.71
15:46:00.671875,9.22
15:46:00.687500,0.97
15:46:00.703125,-6.83
15:46:00.718750,-14.14
15:46:00.734375,-21.05
15:46:00.750000,-27.75
15:46:00.765625,-34.42
15:46:00.781250,-41.08
15:46:00.796875,-47.60
15:46:00.812500,-53.71
15:46:00.828125,-59.25
15:46:00.843750,-64.25
15:46:00.859375,-69.05
15:46:00.875000,-74.21
15:46:00.890625,-80.29
15:46:00.906250,-87.60
15:46:00.921875,-95.94
15:46:00.937500,-104.48
15:46:00.953125,-111.76
15:46:00.968750,-116.01
15:46:00.984375,-115.46
15:46:01,-108.90
15:46:01.015625,-96.04
15:46:01.031250,-77.73
15:46:01.046875,-55.70
15:46:01.062500,-32.26
15:46:01.078125,-9.64
15:46:01.093750,10.43
15:46:01.109375,26.98
15:46:01.125000,39.80
15:46:01.140625,49.21
15:46:01.156250,55.82
15:46:01.171875,60.30
15:46:01.187500,63.25
15:46:01.203125,65.14
15:46:01.218750,66.35
15:46:01.234375,67.19
15:46:01.250000,67.88
15:46:01.265625,68.49
15:46:01.281250,69.00
15:46:01.296875,69.31
15:46:01.312500,69.41
15:46:01.328125,69.39
15:46:01.343750,69.48
15:46:01.359375,69.80
15:46:01.375000,70.26
15:46:01.390625,70.40
15:46:01.406250,69.59
15:46:01.421875,67.24
15:46:01.437500,63.17
15:46:01.453125,57.71
15:46:01.468750,51.50
15:46:01.484375,45.23
15:46:01.500000,39.30
15:46:01.515625,33.72
15:46:01.531250,28.17
15:46:01.546875,22.29
15:46:01.562500,15.82
15:46:01.578125,8.67
15:46:01.593750,0.89
15:46:01.609375,-7.43
15:46:01.625000,-16.23
15:46:01.640625,-25.40
15:46:01.656250,-34.89
15:46:01.671875,-44.66
15:46:01.687500,-54.80
15:46:01.703125,-65.55
15:46:01.718750,-77.19
15:46:01.734375,-89.88
15:46:01.750000,-103.42
15:46:01.765625,-117.11
15:46:01.781250,-129.73
15:46:01.796875,-139.71
15:46:01.812500,-145.47
15:46:01.828125,-145.68
15:46:01.843750,-139.66
15:46:01.859375,-127.53
15:46:01.875000,-110.26
15:46:01.890625,-89.45
15:46:01.906250,-67.00
15:46:01.921875,-44.68
15:46:01.937500,-23.81
15:46:01.953125,-5.17
15:46:01.968750,10.96
15:46:01.984375,24.59
15:46:02,35.93
15:46:02.015625,45.21
15:46:02.031250,52.76
15:46:02.046875,58.89
15:46:02.062500,63.90
15:46:02.078125,67.95
15:46:02.093750,71.15
15:46:02.109375,73.59
15:46:02.125000,75.46
15:46:02.140625,77.01
15:46:02.156250,78.57
15:46:02.171875,80.30
15:46:02.187500,82.14
15:46:02.203125,83.74
15:46:02.218750,84.65
15:46:02.234375,84.46
15:46:02.250000,82.99
15:46:02.265625,80.34
15:46:02.281250,76.82
15:46:02.296875,72.81
15:46:02.312500,68.58
15:46:02.328125,64.23
15:46:02.343750,59.72
15:46:02.359375,54.88
15:46:02.375000,49.50
15:46:02.390625,43.43
15:46:02.406250,36.58
15:46:02.421875,28.82
15:46:02.437500,20.07
15:46:02.453125,10.26
15:46:02.468750,-0.60
15:46:02.484375,-12.32
15:46:02.500000,-24.62
15:46:02.515625,-37.19
15:46:02.531250,-49.75
15:46:02.546875,-62.02
15:46:02.562500,-73.59
15:46:02.578125,-83.68
15:46:02.593750,-91.12
15:46:02.609375,-94.39
15:46:02.625000,-92.11
15:46:02.640625,-83.45
15:46:02.656250,-68.51
15:46:02.671875,-48.42
15:46:02.687500,-25.13
15:46:02.703125,-0.88
15:46:02.718750,22.22
15:46:02.734375,42.54
15:46:02.750000,59.04
15:46:02.765625,71.25
15:46:02.781250,79.03
15:46:02.796875,82.57
15:46:02.812500,82.31
15:46:02.828125,79.09
15:46:02.843750,74.07
15:46:02.859375,68.68
15:46:02.875000,64.31
15:46:02.890625,61.92
15:46:02.906250,61.85
15:46:02.921875,63.70
15:46:02.937500,66.54
15:46:02.953125,69.26
15:46:02.968750,70.93
15:46:02.984375,71.06
15:46:03,69.45
15:46:03.015625,65.99
15:46:03.031250,60.44
15:46:03.046875,52.35
15:46:03.062500,41.34
15:46:03.078125,27.44
15:46:03.093750,11.46
15:46:03.109375,-5.09
15:46:03.125000,-20.29
15:46:03.140625,-32.49
15:46:03.156250,-40.80
15:46:03.171875,-45.36
15:46:03.187500,-47.14
15:46:03.203125,-47.55
15:46:03.218750,-47.93
15:46:03.234375,-49.31
15:46:03.250000,-52.25
15:46:03.265625,-56.95
15:46:03.281250,-63.28
