12:43:16,-0.00
12:43:16.015625,-0.00
12:43:16.031250,-0.00
12:43:16.046875,-0.00
12:43:16.062500,-0.00
12:43:16.078125,-0.00
12:43:16.093750,-0.00
12:43:16.109375,-0.00
12:43:16.125000,-0.00
12:43:16.140625,-0.01
12:43:16.156250,-0.00
12:43:16.171875,0.00
12:43:16.187500,0.01
12:43:16.203125,0.01
12:43:16.218750,-0.00
12:43:16.234375,-0.03
12:43:16.250000,-0.05
12:43:16.265625,-0.05
12:43:16.281250,-0.00
12:43:16.296875,0.13
12:43:16.312500,0.36
12:43:16.328125,0.66
12:43:16.343750,1.01
12:43:16.359375,1.37
12:43:16.375000,1.72
12:43:16.390625,2.06
12:43:16.406250,2.40
12:43:16.421875,2.77
12:43:16.437500,3.24
12:43:16.453125,3.80
12:43:16.468750,4.42
12:43:16.484375,5.06
12:43:16.500000,5.66
12:43:16.515625,6.20
12:43:16.531250,6.68
12:43:16.546875,7.15
12:43:16.562500,7.64
12:43:16.578125,8.31
12:43:16.593750,9.14
12:43:16.609375,10.09
12:43:16.625000,11.04
12:43:16.640625,11.88
12:43:16.656250,12.56
12:43:16.671875,13.14
12:43:16.687500,13.76
12:43:16.703125,14.58
12:43:16.718750,15.96
12:43:16.734375,17.91
12:43:16.750000,20.32
12:43:16.765625,22.90
12:43:16.781250,25.38
12:43:16.796875,27.58
12:43:16.812500,29.57
12:43:16.828125,31.68
12:43:16.843750,34.20
12:43:16.859375,37.81
12:43:16.875000,42.54
12:43:16.890625,48.15
12:43:16.906250,54.10
12:43:16.921875,59.83
12:43:16.937500,64.97
12:43:16.953125,69.58
12:43:16.968750,74.14
12:43:16.984375,79.19
12:43:17,85.71
12:43:17.015625,93.76
12:43:17.031250,103.00
12:43:17.046875,112.62
12:43:17.062500,121.73
12:43:17.078125,129.77
12:43:17.093750,136.75
12:43:17.109375,144.29
12:43:17.125000,150.58
12:43:17.140625,157.77
12:43:17.156250,166.64
12:43:17.171875,177.95
12:43:17.187500,191.79
12:43:17.203125,206.97
12:43:17.218750,220.57
12:43:17.234375,228.25
12:43:17.250000,225.36
12:43:17.265625,208.37
12:43:17.281250,176.87
12:43:17.296875,132.76
12:43:17.312500,80.05
12:43:17.328125,23.07
12:43:17.343750,-34.94
12:43:17.359375,-92.44
12:43:17.375000,-149.16
12:43:17.390625,-205.23
12:43:17.406250,-260.49
12:43:17.421875,-313.74
12:43:17.437500,-363.87
12:43:17.453125,-409.83
12:43:17.468750,-450.91
12:43:17.484375,-486.50
12:43:17.500000,-515.74
12:43:17.515625,-537.23
12:43:17.531250,-549.22
12:43:17.546875,-550.04
12:43:17.562500,-538.37
12:43:17.578125,-514.20
12:43:17.593750,-478.67
12:43:17.609375,-433.88
12:43:17.625000,-382.45
12:43:17.640625,-327.02
12:43:17.656250,-269.84
12:43:17.671875,-212.63
12:43:17.687500,-156.70
12:43:17.703125,-102.95
12:43:17.718750,-52.37
12:43:17.734375,-5.90
12:43:17.750000,35.58
12:43:17.765625,71.43
12:43:17.781250,101.35
12:43:17.796875,125.50
12:43:17.812500,144.38
12:43:17.828125,158.68
12:43:17.843750,169.15
12:43:17.859375,176.37
12:43:17.875000,180.75
12:43:17.890625,182.57
12:43:17.906250,182.07
12:43:17.921875,179.51
12:43:17.937500,175.23
12:43:17.953125,169.65
12:43:17.968750,163.18
12:43:17.984375,156.15
12:43:18,148.81
12:43:18.015625,141.30
12:43:18.031250,133.69
12:43:18.046875,126.02
12:43:18.062500,118.33
12:43:18.078125,110.69
12:43:18.093750,103.16
12:43:18.109375,95.80
12:43:18.125000,88.68
12:43:18.140625,81.83
12:43:18.156250,75.25
12:43:18.171875,68.95
12:43:18.187500,62.95
12:43:18.203125,57.25
12:43:18.218750,51.86
12:43:18.234375,46.78
12:43:18.250000,42.03
12:43:18.265625,37.59
12:43:18.281250,33.45
12:43:18.296875,29.61
12:43:18.312500,26.07
12:43:18.328125,22.81
12:43:18.343750,19.82
12:43:18.359375,17.11
12:43:18.375000,14.67
12:43:18.390625,12.48
12:43:18.406250,10.54
12:43:18.421875,8.83
12:43:18.437500,7.35
12:43:18.453125,6.07
12:43:18.468750,4.97
12:43:18.484375,4.05
12:43:18.500000,3.27
12:43:18.515625,2.62
12:43:18.531250,2.09
12:43:18.546875,1.65
12:43:18.562500,1.30
12:43:18.578125,1.01
12:43:18.593750,0.79
12:43:18.609375,0.61
12:43:18.625000,0.47
12:43:18.640625,0.37
12:43:18.656250,0.29
12:43:18.671875,0.23
12:43:18.687500,0.18
12:43:18.703125,0.16
12:43:18.718750,0.14
12:43:18.734375,0.13
12:43:18.750000,0.14
12:43:18.765625,0.15
12:43:18.781250,0.17
12:43:18.796875,0.19
12:43:18.812500,0.22
12:43:18.828125,0.26
12:43:18.843750,0.29
12:43:18.859375,0.33
12:43:18.875000,0.37
12:43:18.890625,0.41
12:43:18.906250,0.45
12:43:18.921875,0.50
12:43:18.937500,0.55
12:43:18.953125,0.60
12:43:18.968750,0.65
12:43:18.984375,0.70
12:43:19,0.76
12:43:19.015625,0.82
12:43:19.031250,0.91
12:43:19.046875,1.01
12:43:19.062500,1.12
12:43:19.078125,1.23
12:43:19.093750,1.32
12:43:19.109375,1.38
12:43:19.125000,1.42
12:43:19.140625,1.46
12:43:19.156250,1.51
12:43:19.171875,1.61
12:43:19.187500,1.77
12:43:19.203125,1.99
12:43:19.218750,2.23
12:43:19.234375,2.48
12:43:19.250000,2.71
12:43:19.265625,2.92
12:43:19.281250,3.13
12:43:19.296875,3.39
12:43:19.312500,3.73
12:43:19.328125,4.17
12:43:19.343750,4.69
12:43:19.359375,5.25
12:43:19.375000,5.78
12:43:19.390625,6.26
12:43:19.406250,6.68
12:43:19.421875,7.08
12:43:19.437500,7.54
12:43:19.453125,8.17
12:43:19.468750,8.96
12:43:19.484375,9.88
12:43:19.500000,10.82
12:43:19.515625,11.63
12:43:19.531250,12.21
12:43:19.546875,12.58
12:43:19.562500,12.84
12:43:19.578125,13.22
12:43:19.593750,13.86
12:43:19.609375,14.79
12:43:19.625000,15.82
12:43:19.640625,16.59
12:43:19.656250,16.64
12:43:19.671875,15.64
12:43:19.687500,13.48
12:43:19.703125,10.34
12:43:19.718750,6.60
12:43:19.734375,2.66
12:43:19.750000,-1.26
12:43:19.765625,-5.25
12:43:19.781250,-9.59
12:43:19.796875,-14.63
12:43:19.812500,-20.52
12:43:19.828125,-27.05
12:43:19.843750,-33.65
12:43:19.859375,-39.53
12:43:19.875000,-44.12
12:43:19.890625,-47.17
12:43:19.906250,-48.90
12:43:19.921875,-49.89
12:43:19.937500,-50.78
12:43:19.953125,-52.11
12:43:19.968750,-54.34
12:43:19.984375,-57.86
12:43:20,-62.70
12:43:20.015625,-68.31
12:43:20.031250,-73.14
12:43:20.046875,-74.95
12:43:20.062500,-71.54
12:43:20.078125,-61.81
12:43:20.093750,-46.53
12:43:20.109375,-28.24
12:43:20.125000,-10.27
12:43:20.140625,4.62
12:43:20.156250,15.17
12:43:20.171875,21.87
12:43:20.187500,26.16
12:43:20.203125,29.46
12:43:20.218750,32.59
12:43:20.234375,35.53
12:43:20.250000,38.01
12:43:20.265625,39.83
12:43:20.281250,41.12
12:43:20.296875,42.01
12:43:20.312500,42.29
12:43:20.328125,41.40
12:43:20.343750,38.53
12:43:20.359375,33.33
12:43:20.375000,25.92
12:43:20.390625,17.26
12:43:20.406250,8.82
12:43:20.421875,2.19
12:43:20.437500,-1.45
12:43:20.453125,-1.76
12:43:20.468750,0.59
12:43:20.484375,4.07
12:43:20.500000,7.09
12:43:20.515625,8.28
12:43:20.531250,7.12
12:43:20.546875,4.08
12:43:20.562500,0.36
12:43:20.578125,-2.61
12:43:20.593750,-3.72
12:43:20.609375,-2.53
12:43:20.625000,0.55
12:43:20.640625,4.74
12:43:20.656250,8.93
12:43:20.671875,12.29
12:43:20.687500,14.45
12:43:20.703125,15.52
12:43:20.718750,15.97
12:43:20.734375,16.26
12:43:20.750000,16.90
12:43:20.765625,17.07
12:43:20.781250,16.85
12:43:20.796875,16.69
12:43:20.812500,17.26
12:43:20.828125,19.19
12:43:20.843750,22.66
12:43:20.859375,27.16
12:43:20.875000,31.57
12:43:20.890625,34.63
12:43:20.906250,35.45
12:43:20.921875,34.17
12:43:20.937500,31.73
12:43:20.953125,29.56
12:43:20.968750,29.00
12:43:20.984375,30.71
12:43:21,34.40
12:43:21.015625,38.86
12:43:21.031250,42.36
12:43:21.046875,43.29
12:43:21.062500,40.95
12:43:21.078125,35.78
12:43:21.093750,29.35
12:43:21.109375,23.72
12:43:21.125000,20.61
12:43:21.140625,20.61
12:43:21.156250,22.83
12:43:21.171875,25.40
12:43:21.187500,26.40
12:43:21.203125,24.85
12:43:21.218750,21.21
12:43:21.234375,17.44
12:43:21.250000,16.59
12:43:21.265625,22.23
12:43:21.281250,37.61
12:43:21.296875,64.72
12:43:21.312500,103.32
12:43:21.328125,150.09
12:43:21.343750,198.82
12:43:21.359375,241.54
12:43:21.375000,270.78
12:43:21.390625,281.81
12:43:21.406250,273.94
12:43:21.421875,250.18
12:43:21.437500,215.41
12:43:21.453125,174.29
12:43:21.468750,129.88
12:43:21.484375,83.59
12:43:21.500000,36.18
12:43:21.515625,-11.41
12:43:21.531250,-57.69
12:43:21.546875,-101.35
12:43:21.562500,-142.11
12:43:21.578125,-181.16
12:43:21.593750,-220.81
12:43:21.609375,-263.73
12:43:21.625000,-312.08
12:43:21.640625,-366.79
12:43:21.656250,-427.05
12:43:21.671875,-489.68
12:43:21.687500,-549.03
12:43:21.703125,-597.69
12:43:21.718750,-628.18
12:43:21.734375,-635.30
12:43:21.750000,-618.01
12:43:21.765625,-579.81
12:43:21.781250,-527.29
12:43:21.796875,-467.71
12:43:21.812500,-406.62
12:43:21.828125,-346.90
12:43:21.843750,-289.31
12:43:21.859375,-233.85
12:43:21.875000,-180.85
12:43:21.890625,-131.03
12:43:21.906250,-84.71
12:43:21.921875,-40.83
12:43:21.937500,3.28
12:43:21.953125,51.11
12:43:21.968750,105.22
12:43:21.984375,165.53
12:43:22,228.49
12:43:22.015625,287.48
12:43:22.031250,334.92
12:43:22.046875,364.98
12:43:22.062500,375.80
12:43:22.078125,370.14
12:43:22.093750,354.14
12:43:22.109375,334.79
12:43:22.125000,317.38
12:43:22.140625,303.97
12:43:22.156250,293.60
12:43:22.171875,283.72
12:43:22.187500,271.91
12:43:22.203125,256.98
12:43:22.218750,239.09
12:43:22.234375,219.21
12:43:22.250000,198.37
12:43:22.265625,177.20
12:43:22.281250,156.04
12:43:22.296875,135.18
12:43:22.312500,115.10
12:43:22.328125,96.53
12:43:22.343750,80.16
12:43:22.359375,66.18
12:43:22.375000,54.10
12:43:22.390625,42.90
12:43:22.406250,31.55
12:43:22.421875,19.66
12:43:22.437500,7.91
12:43:22.453125,-2.14
12:43:22.468750,-8.58
12:43:22.484375,-10.01
12:43:22.500000,-6.11
12:43:22.515625,2.39
12:43:22.531250,14.14
12:43:22.546875,27.69
12:43:22.562500,42.06
12:43:22.578125,56.72
12:43:22.593750,71.45
12:43:22.609375,86.04
12:43:22.625000,100.11
12:43:22.640625,113.16
12:43:22.656250,124.67
12:43:22.671875,134.23
12:43:22.687500,141.54
12:43:22.703125,146.41
12:43:22.718750,148.78
12:43:22.734375,148.82
12:43:22.750000,146.97
12:43:22.765625,143.98
12:43:22.781250,140.70
12:43:22.796875,137.81
12:43:22.812500,135.53
12:43:22.828125,133.57
12:43:22.843750,131.34
12:43:22.859375,128.24
12:43:22.875000,124.05
12:43:22.890625,118.99
12:43:22.906250,113.66
12:43:22.921875,108.67
12:43:22.937500,104.47
12:43:22.953125,101.13
12:43:22.968750,98.31
12:43:22.984375,95.42
12:43:23,91.73
12:43:23.015625,86.68
12:43:23.031250,79.99
12:43:23.046875,71.71
12:43:23.062500,62.18
12:43:23.078125,51.86
12:43:23.093750,41.11
12:43:23.109375,29.99
12:43:23.125000,18.38
12:43:23.140625,6.09
12:43:23.156250,-6.78
12:43:23.171875,-19.35
12:43:23.187500,-29.69
12:43:23.203125,-35.00
12:43:23.218750,-32.37
12:43:23.234375,-19.96
12:43:23.250000,1.87
12:43:23.265625,29.89
12:43:23.281250,58.60
12:43:23.296875,81.79
12:43:23.312500,94.60
12:43:23.328125,95.17
12:43:23.343750,84.87
12:43:23.359375,67.29
12:43:23.375000,46.26
12:43:23.390625,24.13
12:43:23.406250,1.02
12:43:23.421875,-24.75
12:43:23.437500,-55.68
12:43:23.453125,-93.88
12:43:23.468750,-139.89
12:43:23.484375,-191.85
12:43:23.500000,-245.00
12:43:23.515625,-291.87
12:43:23.531250,-323.57
12:43:23.546875,-332.23
12:43:23.562500,-313.71
12:43:23.578125,-269.40
12:43:23.593750,-206.11
12:43:23.609375,-133.68
12:43:23.625000,-61.43
12:43:23.640625,4.78
12:43:23.656250,63.28
12:43:23.671875,115.09
12:43:23.687500,161.25
12:43:23.703125,200.79
12:43:23.718750,230.80
12:43:23.734375,248.17
12:43:23.750000,251.98
12:43:23.765625,244.64
12:43:23.781250,231.19
12:43:23.796875,217.04
12:43:23.812500,205.58
12:43:23.828125,197.08
12:43:23.843750,189.20
12:43:23.859375,179.04
12:43:23.875000,165.04
12:43:23.890625,147.88
12:43:23.906250,129.86
12:43:23.921875,113.55
12:43:23.937500,100.15
12:43:23.953125,88.80
12:43:23.968750,77.05
12:43:23.984375,62.07
12:43:24,41.92
12:43:24.015625,16.42
12:43:24.031250,-12.84
12:43:24.046875,-43.39
12:43:24.062500,-72.91
12:43:24.078125,-100.16
12:43:24.093750,-125.36
12:43:24.109375,-149.78
12:43:24.125000,-175.13
12:43:24.140625,-202.80
12:43:24.156250,-233.66
12:43:24.171875,-268.03
12:43:24.187500,-305.56
12:43:24.203125,-345.02
12:43:24.218750,-383.89
12:43:24.234375,-418.44
12:43:24.250000,-444.26
12:43:24.265625,-457.61
12:43:24.281250,-456.56
12:43:24.296875,-441.70
12:43:24.312500,-415.78
12:43:24.328125,-382.55
12:43:24.343750,-345.46
12:43:24.359375,-306.81
12:43:24.375000,-267.69
12:43:24.390625,-228.50
12:43:24.406250,-189.59
12:43:24.421875,-151.59
12:43:24.437500,-115.35
12:43:24.453125,-81.71
12:43:24.468750,-51.25
12:43:24.484375,-24.23
12:43:24.500000,-0.67
12:43:24.515625,19.58
12:43:24.531250,36.75
12:43:24.546875,51.02
12:43:24.562500,62.43
12:43:24.578125,70.96
12:43:24.593750,76.61
12:43:24.609375,79.62
12:43:24.625000,80.53
12:43:24.640625,80.14
12:43:24.656250,79.23
12:43:24.671875,78.38
12:43:24.687500,77.93
12:43:24.703125,78.16
12:43:24.718750,79.40
12:43:24.734375,81.94
12:43:24.750000,85.66
12:43:24.765625,89.52
12:43:24.781250,91.23
12:43:24.796875,87.70
12:43:24.812500,76.01
12:43:24.828125,54.60
12:43:24.843750,24.12
12:43:24.859375,-12.54
12:43:24.875000,-51.26
12:43:24.890625,-87.96
12:43:24.906250,-119.87
12:43:24.921875,-145.90
12:43:24.937500,-166.24
12:43:24.953125,-181.63
12:43:24.968750,-192.70
12:43:24.984375,-199.79
12:43:25,-203.16
12:43:25.015625,-203.35
12:43:25.031250,-201.29
12:43:25.046875,-197.95
12:43:25.062500,-194.06
12:43:25.078125,-189.75
12:43:25.093750,-184.66
12:43:25.109375,-178.27
12:43:25.125000,-170.30
12:43:25.140625,-160.87
12:43:25.156250,-150.40
12:43:25.171875,-139.21
12:43:25.187500,-127.35
12:43:25.203125,-114.48
12:43:25.218750,-100.20
12:43:25.234375,-84.45
12:43:25.250000,-67.80
12:43:25.265625,-51.49
12:43:25.281250,-37.18
12:43:25.296875,-26.35
12:43:25.312500,-19.88
12:43:25.328125,-17.64
12:43:25.343750,-18.56
12:43:25.359375,-20.80
12:43:25.375000,-22.27
12:43:25.390625,-21.12
12:43:25.406250,-16.12
12:43:25.421875,-6.88
12:43:25.437500,6.30
12:43:25.453125,22.68
12:43:25.468750,41.41
12:43:25.484375,61.80
12:43:25.500000,83.35
12:43:25.515625,105.58
12:43:25.531250,127.84
12:43:25.546875,149.09
12:43:25.562500,167.93
12:43:25.578125,182.84
12:43:25.593750,192.60
12:43:25.609375,196.72
12:43:25.625000,195.62
12:43:25.640625,190.59
12:43:25.656250,183.41
12:43:25.671875,175.72
12:43:25.687500,168.49
12:43:25.703125,161.59
12:43:25.718750,153.72
12:43:25.734375,142.58
12:43:25.750000,125.56
12:43:25.765625,100.72
12:43:25.781250,67.84
12:43:25.796875,28.99
12:43:25.812500,-11.57
12:43:25.828125,-48.49
12:43:25.843750,-77.03
12:43:25.859375,-94.49
12:43:25.875000,-100.97
12:43:25.890625,-98.84
12:43:25.906250,-91.49
12:43:25.921875,-81.84
12:43:25.937500,-71.63
12:43:25.953125,-61.49
12:43:25.968750,-51.72
12:43:25.984375,-42.88
12:43:26,-35.94
12:43:26.015625,-31.75
12:43:26.031250,-30.46
12:43:26.046875,-31.25
12:43:26.062500,-32.63
12:43:26.078125,-33.22
12:43:26.093750,-32.40
12:43:26.109375,-30.58
12:43:26.125000,-28.89
12:43:26.140625,-28.54
12:43:26.156250,-30.11
12:43:26.171875,-33.29
12:43:26.187500,-37.05
12:43:26.203125,-40.03
12:43:26.218750,-41.16
12:43:26.234375,-39.97
12:43:26.250000,-36.65
12:43:26.265625,-31.81
12:43:26.281250,-26.27
12:43:26.296875,-20.74
12:43:26.312500,-15.69
12:43:26.328125,-11.27
12:43:26.343750,-7.39
12:43:26.359375,-3.79
12:43:26.375000,-0.15
12:43:26.390625,3.66
12:43:26.406250,7.57
12:43:26.421875,11.32
12:43:26.437500,14.51
12:43:26.453125,16.90
12:43:26.468750,18.50
12:43:26.484375,19.63
12:43:26.500000,20.76
12:43:26.515625,22.29
12:43:26.531250,24.36
12:43:26.546875,26.87
12:43:26.562500,29.61
12:43:26.578125,32.41
12:43:26.593750,35.37
12:43:26.609375,38.76
12:43:26.625000,42.90
12:43:26.640625,47.84
12:43:26.656250,53.16
12:43:26.671875,58.00
12:43:26.687500,61.30
12:43:26.703125,62.20
12:43:26.718750,60.41
12:43:26.734375,56.32
12:43:26.750000,50.78
12:43:26.765625,44.79
12:43:26.781250,39.11
12:43:26.796875,34.00
12:43:26.812500,29.35
12:43:26.828125,24.84
12:43:26.843750,20.18
12:43:26.859375,15.20
12:43:26.875000,9.86
12:43:26.890625,4.13
12:43:26.906250,-1.98
12:43:26.921875,-8.37
12:43:26.937500,-14.72
12:43:26.953125,-20.40
12:43:26.968750,-24.63
12:43:26.984375,-26.61
12:43:27,-25.90
12:43:27.015625,-22.53
12:43:27.031250,-17.09
12:43:27.046875,-10.49
12:43:27.062500,-3.70
12:43:27.078125,2.48
12:43:27.093750,7.67
12:43:27.109375,11.81
12:43:27.125000,15.09
12:43:27.140625,17.76
12:43:27.156250,20.02
12:43:27.171875,21.94
12:43:27.187500,23.43
12:43:27.203125,24.29
12:43:27.218750,24.20
12:43:27.234375,22.83
12:43:27.250000,19.95
12:43:27.265625,15.52
12:43:27.281250,9.87
12:43:27.296875,3.68
12:43:27.312500,-2.11
12:43:27.328125,-6.49
12:43:27.343750,-8.63
12:43:27.359375,-8.11
12:43:27.375000,-4.91
12:43:27.390625,0.57
12:43:27.406250,7.69
12:43:27.421875,15.66
12:43:27.437500,23.58
12:43:27.453125,30.52
12:43:27.468750,35.65
12:43:27.484375,38.49
12:43:27.500000,38.99
12:43:27.515625,37.69
12:43:27.531250,35.53
12:43:27.546875,33.40
12:43:27.562500,31.84
12:43:27.578125,30.68
12:43:27.593750,29.23
12:43:27.609375,26.58
12:43:27.625000,22.14
12:43:27.640625,15.89
12:43:27.656250,8.37
12:43:27.671875,0.44
12:43:27.687500,-7.15
12:43:27.703125,-13.89
12:43:27.718750,-19.58
12:43:27.734375,-24.08
12:43:27.750000,-27.22
12:43:27.765625,-28.65
12:43:27.781250,-28.13
12:43:27.796875,-25.53
12:43:27.812500,-21.09
12:43:27.828125,-15.33
12:43:27.843750,-8.88
12:43:27.859375,-2.33
12:43:27.875000,3.96
12:43:27.890625,9.86
12:43:27.906250,15.39
12:43:27.921875,20.51
12:43:27.937500,24.90
12:43:27.953125,27.91
12:43:27.968750,28.73
12:43:27.984375,26.64
12:43:28,21.49
12:43:28.015625,13.77
12:43:28.031250,4.61
12:43:28.046875,-4.64
12:43:28.062500,-12.91
12:43:28.078125,-19.56
12:43:28.093750,-24.46
12:43:28.109375,-27.60
12:43:28.125000,-28.89
12:43:28.140625,-28.04
12:43:28.156250,-24.82
12:43:28.171875,-19.40
12:43:28.187500,-12.57
12:43:28.203125,-5.57
12:43:28.218750,0.26
12:43:28.234375,4.08
12:43:28.250000,5.74
12:43:28.265625,5.77
12:43:28.281250,5.00
12:43:28.296875,4.09
12:43:28.312500,3.23
12:43:28.328125,2.14
12:43:28.343750,0.26
12:43:28.359375,-2.82
12:43:28.375000,-7.21
12:43:28.390625,-12.62
12:43:28.406250,-18.60
12:43:28.421875,-24.70
12:43:28.437500,-30.70
12:43:28.453125,-36.56
12:43:28.468750,-42.25
12:43:28.484375,-47.56
12:43:28.500000,-52.02
12:43:28.515625,-54.92
12:43:28.531250,-55.60
12:43:28.546875,-53.69
12:43:28.562500,-49.30
12:43:28.578125,-43.07
12:43:28.593750,-35.88
12:43:28.609375,-28.57
12:43:28.625000,-21.67
12:43:28.640625,-15.31
12:43:28.656250,-9.34
12:43:28.671875,-3.60
12:43:28.687500,1.85
12:43:28.703125,6.66
12:43:28.718750,10.25
12:43:28.734375,12.14
12:43:28.750000,12.09
12:43:28.765625,10.24
12:43:28.781250,7.02
12:43:28.796875,2.97
12:43:28.812500,-1.46
12:43:28.828125,-5.89
12:43:28.843750,-9.96
12:43:28.859375,-13.24
12:43:28.875000,-15.18
12:43:28.890625,-15.25
12:43:28.906250,-13.14
12:43:28.921875,-8.95
12:43:28.937500,-3.25
12:43:28.953125,3.09
12:43:28.968750,9.20
12:43:28.984375,14.46
12:43:29,18.62
12:43:29.015625,21.69
12:43:29.031250,23.81
12:43:29.046875,25.03
12:43:29.062500,25.31
12:43:29.078125,24.60
12:43:29.093750,22.92
12:43:29.109375,20.40
12:43:29.125000,17.29
12:43:29.140625,13.82
12:43:29.156250,10.13
12:43:29.171875,6.20
12:43:29.187500,1.89
12:43:29.203125,-2.98
12:43:29.218750,-8.60
12:43:29.234375,-14.99
12:43:29.250000,-21.93
12:43:29.265625,-28.94
12:43:29.281250,-35.32
12:43:29.296875,-40.32
12:43:29.312500,-43.42
12:43:29.328125,-44.43
12:43:29.343750,-43.50
12:43:29.359375,-40.95
12:43:29.375000,-37.17
12:43:29.390625,-32.43
12:43:29.406250,-27.01
12:43:29.421875,-21.29
12:43:29.437500,-15.81
12:43:29.453125,-11.11
12:43:29.468750,-7.58
12:43:29.484375,-5.12
12:43:29.500000,-3.19
12:43:29.515625,-1.01
12:43:29.531250,2.12
12:43:29.546875,6.41
12:43:29.562500,11.60
12:43:29.578125,17.05
12:43:29.593750,22.16
12:43:29.609375,26.55
12:43:29.625000,30.25
12:43:29.640625,33.48
12:43:29.656250,36.54
12:43:29.671875,39.56
12:43:29.687500,42.44
12:43:29.703125,44.92
12:43:29.718750,46.74
12:43:29.734375,47.73
12:43:29.750000,47.83
12:43:29.765625,47.07
12:43:29.781250,45.49
12:43:29.796875,43.15
12:43:29.812500,40.09
12:43:29.828125,36.39
12:43:29.843750,32.18
12:43:29.859375,27.71
12:43:29.875000,23.26
12:43:29.890625,19.12
12:43:29.906250,15.48
12:43:29.921875,12.40
12:43:29.937500,9.79
12:43:29.953125,7.57
12:43:29.968750,5.68
12:43:29.984375,4.24
12:43:30,3.42
12:43:30.015625,3.29
12:43:30.031250,3.73
12:43:30.046875,4.40
12:43:30.062500,4.76
12:43:30.078125,4.43
12:43:30.093750,3.26
12:43:30.109375,1.43
12:43:30.125000,-0.74
12:43:30.140625,-3.02
12:43:30.156250,-5.42
12:43:30.171875,-8.22
12:43:30.187500,-11.71
12:43:30.203125,-16.00
12:43:30.218750,-20.84
12:43:30.234375,-25.71
12:43:30.250000,-29.95
12:43:30.265625,-32.93
12:43:30.281250,-34.11
12:43:30.296875,-33.10
12:43:30.312500,-29.63
12:43:30.328125,-23.66
12:43:30.343750,-15.46
12:43:30.359375,-5.66
12:43:30.375000,4.81
12:43:30.390625,14.99
12:43:30.406250,24.06
12:43:30.421875,31.57
12:43:30.437500,37.40
12:43:30.453125,41.63
12:43:30.468750,44.35
12:43:30.484375,45.51
12:43:30.500000,44.95
12:43:30.515625,42.53
12:43:30.531250,38.22
12:43:30.546875,32.33
12:43:30.562500,25.46
12:43:30.578125,18.44
12:43:30.593750,12.16
12:43:30.609375,7.28
12:43:30.625000,4.09
12:43:30.640625,2.53
12:43:30.656250,2.22
12:43:30.671875,2.74
12:43:30.687500,3.73
12:43:30.703125,5.03
12:43:30.718750,6.55
12:43:30.734375,8.29
12:43:30.750000,10.23
12:43:30.765625,12.33
12:43:30.781250,14.59
12:43:30.796875,17.03
12:43:30.812500,19.59
12:43:30.828125,22.08
12:43:30.843750,24.15
12:43:30.859375,25.33
12:43:30.875000,25.24
12:43:30.890625,23.71
12:43:30.906250,20.90
12:43:30.921875,17.16
12:43:30.937500,13.04
12:43:30.953125,9.10
12:43:30.968750,5.84
12:43:30.984375,3.68
12:43:31,2.89
12:43:31.015625,3.58
12:43:31.031250,5.65
12:43:31.046875,8.83
12:43:31.062500,12.76
12:43:31.078125,17.09
12:43:31.093750,21.58
12:43:31.109375,26.10
12:43:31.125000,30.56
12:43:31.140625,34.83
12:43:31.156250,38.68
12:43:31.171875,41.76
12:43:31.187500,43.64
12:43:31.203125,43.86
12:43:31.218750,42.06
12:43:31.234375,38.06
12:43:31.250000,31.99
12:43:31.265625,24.30
12:43:31.281250,15.76
12:43:31.296875,7.18
12:43:31.312500,-0.75
12:43:31.328125,-7.64
12:43:31.343750,-13.44
12:43:31.359375,-18.24
12:43:31.375000,-22.20
12:43:31.390625,-25.33
12:43:31.406250,-27.45
12:43:31.421875,-28.28
12:43:31.437500,-27.57
12:43:31.453125,-25.08
12:43:31.468750,-20.71
12:43:31.484375,-14.48
12:43:31.500000,-6.60
12:43:31.515625,2.42
12:43:31.531250,11.79
12:43:31.546875,20.50
12:43:31.562500,27.57
12:43:31.578125,32.29
12:43:31.593750,34.40
12:43:31.609375,34.03
12:43:31.625000,31.57
12:43:31.640625,27.44
12:43:31.656250,21.89
12:43:31.671875,15.12
12:43:31.687500,7.34
12:43:31.703125,-1.06
12:43:31.718750,-9.51
12:43:31.734375,-17.31
12:43:31.750000,-23.83
12:43:31.765625,-28.73
12:43:31.781250,-31.91
12:43:31.796875,-33.58
12:43:31.812500,-34.06
12:43:31.828125,-33.71
12:43:31.843750,-32.86
12:43:31.859375,-31.76
12:43:31.875000,-30.54
12:43:31.890625,-29.25
12:43:31.906250,-27.79
12:43:31.921875,-25.96
12:43:31.937500,-23.54
12:43:31.953125,-20.35
12:43:31.968750,-16.36
12:43:31.984375,-11.72
12:43:32,-6.83
12:43:32.015625,-2.34
12:43:32.031250,1.02
12:43:32.046875,2.56
12:43:32.062500,1.83
12:43:32.078125,-1.24
12:43:32.093750,-6.27
12:43:32.109375,-12.53
12:43:32.125000,-19.20
12:43:32.140625,-25.50
12:43:32.156250,-30.85
12:43:32.171875,-34.84
12:43:32.187500,-37.16
12:43:32.203125,-37.59
12:43:32.218750,-36.02
12:43:32.234375,-32.51
12:43:32.250000,-27.45
12:43:32.265625,-21.43
12:43:32.281250,-15.20
12:43:32.296875,-9.35
12:43:32.312500,-4.19
12:43:32.328125,0.32
12:43:32.343750,4.48
12:43:32.359375,8.69
12:43:32.375000,13.19
12:43:32.390625,18.01
12:43:32.406250,22.93
12:43:32.421875,27.61
12:43:32.437500,31.66
12:43:32.453125,34.79
12:43:32.468750,36.83
12:43:32.484375,37.71
12:43:32.500000,37.48
12:43:32.515625,36.23
12:43:32.531250,34.04
12:43:32.546875,31.08
12:43:32.562500,27.57
12:43:32.578125,23.92
12:43:32.593750,20.62
12:43:32.609375,18.08
12:43:32.625000,16.51
12:43:32.640625,15.85
12:43:32.656250,15.80
12:43:32.671875,15.96
12:43:32.687500,16.02
12:43:32.703125,15.79
12:43:32.718750,15.21
12:43:32.734375,14.30
12:43:32.750000,13.03
12:43:32.765625,11.38
12:43:32.781250,9.27
12:43:32.796875,6.72
12:43:32.812500,3.77
12:43:32.828125,0.54
12:43:32.843750,-2.78
12:43:32.859375,-5.96
12:43:32.875000,-8.73
12:43:32.890625,-10.85
12:43:32.906250,-12.12
12:43:32.921875,-12.46
12:43:32.937500,-11.91
12:43:32.953125,-10.60
12:43:32.968750,-8.63
12:43:32.984375,-6.16
12:43:33,-3.38
12:43:33.015625,-0.57
12:43:33.031250,2.01
12:43:33.046875,4.20
12:43:33.062500,6.04
12:43:33.078125,7.80
12:43:33.093750,9.81
12:43:33.109375,12.27
12:43:33.125000,15.06
12:43:33.140625,17.74
12:43:33.156250,19.62
12:43:33.171875,20.14
12:43:33.187500,19.05
12:43:33.203125,16.49
12:43:33.218750,12.93
12:43:33.234375,8.93
12:43:33.250000,4.95
12:43:33.265625,1.24
12:43:33.281250,-2.15
12:43:33.296875,-5.23
12:43:33.312500,-7.97
12:43:33.328125,-10.24
12:43:33.343750,-11.93
12:43:33.359375,-12.94
12:43:33.375000,-13.32
12:43:33.390625,-13.23
12:43:33.406250,-12.88
12:43:33.421875,-12.36
12:43:33.437500,-11.61
12:43:33.453125,-10.40
12:43:33.468750,-8.52
12:43:33.484375,-5.90
12:43:33.500000,-2.73
12:43:33.515625,0.56
12:43:33.531250,3.42
12:43:33.546875,5.39
12:43:33.562500,6.19
12:43:33.578125,5.79
12:43:33.593750,4.38
12:43:33.609375,2.19
12:43:33.625000,-0.48
12:43:33.640625,-3.39
12:43:33.656250,-6.31
12:43:33.671875,-9.01
12:43:33.687500,-11.27
12:43:33.703125,-12.90
12:43:33.718750,-13.81
12:43:33.734375,-13.95
12:43:33.750000,-13.38
12:43:33.765625,-12.17
12:43:33.781250,-10.45
12:43:33.796875,-8.35
12:43:33.812500,-6.06
12:43:33.828125,-3.85
12:43:33.843750,-1.95
12:43:33.859375,-0.59
12:43:33.875000,0.18
12:43:33.890625,0.36
12:43:33.906250,0.06
12:43:33.921875,-0.70
12:43:33.937500,-1.91
12:43:33.953125,-3.58
12:43:33.968750,-5.70
12:43:33.984375,-8.12
12:43:34,-10.66
12:43:34.015625,-13.13
12:43:34.031250,-15.46
12:43:34.046875,-17.64
12:43:34.062500,-19.69
12:43:34.078125,-21.54
12:43:34.093750,-22.97
12:43:34.109375,-23.69
12:43:34.125000,-23.43
12:43:34.140625,-22.04
12:43:34.156250,-19.50
12:43:34.171875,-15.92
12:43:34.187500,-11.47
12:43:34.203125,-6.44
12:43:34.218750,-1.27
12:43:34.234375,3.48
12:43:34.250000,7.32
12:43:34.265625,9.93
12:43:34.281250,11.30
12:43:34.296875,11.68
12:43:34.312500,11.40
12:43:34.328125,10.69
12:43:34.343750,9.57
12:43:34.359375,7.88
12:43:34.375000,5.55
12:43:34.390625,2.60
12:43:34.406250,-0.70
12:43:34.421875,-4.02
12:43:34.437500,-7.06
12:43:34.453125,-9.63
12:43:34.468750,-11.67
12:43:34.484375,-13.15
12:43:34.500000,-13.99
12:43:34.515625,-14.13
12:43:34.531250,-13.56
12:43:34.546875,-12.39
12:43:34.562500,-10.89
12:43:34.578125,-9.38
12:43:34.593750,-8.20
12:43:34.609375,-7.54
12:43:34.625000,-7.49
12:43:34.640625,-8.04
12:43:34.656250,-9.24
12:43:34.671875,-11.19
12:43:34.687500,-14.08
12:43:34.703125,-18.12
12:43:34.718750,-23.32
12:43:34.734375,-29.46
12:43:34.750000,-36.01
12:43:34.765625,-42.30
12:43:34.781250,-47.72
12:43:34.796875,-51.91
12:43:34.812500,-54.85
12:43:34.828125,-56.77
12:43:34.843750,-57.99
12:43:34.859375,-58.81
12:43:34.875000,-59.38
12:43:34.890625,-59.84
12:43:34.906250,-60.37
12:43:34.921875,-61.19
12:43:34.937500,-62.52
12:43:34.953125,-64.48
12:43:34.968750,-66.91
12:43:34.984375,-69.52
12:43:35,-71.98
12:43:35.015625,-74.17
12:43:35.031250,-76.23
12:43:35.046875,-78.54
12:43:35.062500,-81.52
12:43:35.078125,-85.41
12:43:35.093750,-90.21
12:43:35.109375,-95.63
12:43:35.125000,-101.20
12:43:35.140625,-106.46
12:43:35.156250,-111.07
12:43:35.171875,-114.92
12:43:35.187500,-118.10
12:43:35.203125,-120.88
12:43:35.218750,-123.33
12:43:35.234375,-125.23
12:43:35.250000,-125.72
12:43:35.265625,-123.41
12:43:35.281250,-116.62
12:43:35.296875,-103.84
12:43:35.312500,-84.14
12:43:35.328125,-57.33
12:43:35.343750,-24.04
12:43:35.359375,14.22
12:43:35.375000,55.00
12:43:35.390625,95.06
12:43:35.406250,130.69
12:43:35.421875,158.46
12:43:35.437500,176.03
12:43:35.453125,182.68
12:43:35.468750,179.41
12:43:35.484375,168.35
12:43:35.500000,152.01
12:43:35.515625,132.60
12:43:35.531250,111.81
12:43:35.546875,90.94
12:43:35.562500,71.10
12:43:35.578125,53.32
12:43:35.593750,38.36
12:43:35.609375,26.47
12:43:35.625000,17.42
12:43:35.640625,10.62
12:43:35.656250,5.48
12:43:35.671875,1.57
12:43:35.687500,-1.33
12:43:35.703125,-3.37
12:43:35.718750,-4.67
12:43:35.734375,-5.35
12:43:35.750000,-5.50
12:43:35.765625,-5.09
12:43:35.781250,-4.02
12:43:35.796875,-2.17
12:43:35.812500,0.55
12:43:35.828125,4.15
12:43:35.843750,8.59
12:43:35.859375,13.83
12:43:35.875000,19.76
12:43:35.890625,26.21
12:43:35.906250,32.92
12:43:35.921875,39.59
12:43:35.937500,45.92
12:43:35.953125,51.71
12:43:35.968750,56.92
12:43:35.984375,61.67
12:43:36,66.26
12:43:36.015625,71.04
12:43:36.031250,76.40
12:43:36.046875,82.59
12:43:36.062500,89.62
12:43:36.078125,97.13
12:43:36.093750,104.35
12:43:36.109375,110.27
12:43:36.125000,113.82
12:43:36.140625,114.28
12:43:36.156250,111.42
12:43:36.171875,105.62
12:43:36.187500,97.64
12:43:36.203125,88.41
12:43:36.218750,78.69
12:43:36.234375,68.98
12:43:36.250000,59.53
12:43:36.265625,50.49
12:43:36.281250,42.03
12:43:36.296875,34.41
12:43:36.312500,27.93
12:43:36.328125,22.77
12:43:36.343750,18.89
12:43:36.359375,16.09
12:43:36.375000,14.03
12:43:36.390625,12.35
12:43:36.406250,10.87
12:43:36.421875,9.48
12:43:36.437500,8.19
12:43:36.453125,7.03
12:43:36.468750,5.94
12:43:36.484375,4.80
12:43:36.500000,3.46
12:43:36.515625,1.88
12:43:36.531250,0.17
12:43:36.546875,-1.40
12:43:36.562500,-2.51
12:43:36.578125,-2.93
12:43:36.593750,-2.61
12:43:36.609375,-1.72
12:43:36.625000,-0.51
12:43:36.640625,0.79
12:43:36.656250,2.10
12:43:36.671875,3.44
12:43:36.687500,4.95
12:43:36.703125,6.71
12:43:36.718750,8.69
12:43:36.734375,10.78
12:43:36.750000,12.82
12:43:36.765625,14.73
12:43:36.781250,16.50
12:43:36.796875,18.20
12:43:36.812500,20.00
12:43:36.828125,22.00
12:43:36.843750,24.29
12:43:36.859375,26.82
12:43:36.875000,29.52
12:43:36.890625,32.27
12:43:36.906250,34.91
12:43:36.921875,37.34
12:43:36.937500,39.51
12:43:36.953125,41.46
12:43:36.968750,43.31
12:43:36.984375,45.25
12:43:37,47.32
12:43:37.015625,49.36
12:43:37.031250,50.89
12:43:37.046875,51.20
12:43:37.062500,49.56
12:43:37.078125,45.51
12:43:37.093750,39.05
12:43:37.109375,30.70
12:43:37.125000,21.36
12:43:37.140625,12.04
12:43:37.156250,3.58
12:43:37.171875,-3.54
12:43:37.187500,-9.24
12:43:37.203125,-13.74
12:43:37.218750,-17.48
12:43:37.234375,-20.90
12:43:37.250000,-24.33
12:43:37.265625,-27.78
12:43:37.281250,-31.05
12:43:37.296875,-33.74
12:43:37.312500,-35.40
12:43:37.328125,-35.71
12:43:37.343750,-34.52
12:43:37.359375,-31.93
12:43:37.375000,-28.25
12:43:37.390625,-23.90
12:43:37.406250,-19.44
12:43:37.421875,-15.39
12:43:37.437500,-12.13
12:43:37.453125,-9.82
12:43:37.468750,-8.32
12:43:37.484375,-7.27
12:43:37.500000,-6.24
12:43:37.515625,-4.96
12:43:37.531250,-3.35
12:43:37.546875,-1.59
12:43:37.562500,0.07
12:43:37.578125,1.43
12:43:37.593750,2.42
12:43:37.609375,3.13
12:43:37.625000,3.74
12:43:37.640625,4.46
12:43:37.656250,5.45
12:43:37.671875,6.78
12:43:37.687500,8.39
12:43:37.703125,10.08
12:43:37.718750,11.52
12:43:37.734375,12.36
12:43:37.750000,12.36
12:43:37.765625,11.45
12:43:37.781250,9.85
12:43:37.796875,7.88
12:43:37.812500,5.95
12:43:37.828125,4.34
12:43:37.843750,3.13
12:43:37.859375,2.17
12:43:37.875000,1.14
12:43:37.890625,-0.30
12:43:37.906250,-2.35
12:43:37.921875,-4.96
12:43:37.937500,-7.85
12:43:37.953125,-10.67
12:43:37.968750,-13.09
12:43:37.984375,-14.92
12:43:38,-16.12
12:43:38.015625,-16.70
12:43:38.031250,-16.67
12:43:38.046875,-16.00
12:43:38.062500,-14.75
12:43:38.078125,-13.03
12:43:38.093750,-11.07
12:43:38.109375,-9.15
12:43:38.125000,-7.42
12:43:38.140625,-5.88
12:43:38.156250,-4.41
12:43:38.171875,-2.84
12:43:38.187500,-1.14
12:43:38.203125,0.63
12:43:38.218750,2.33
12:43:38.234375,3.82
12:43:38.250000,4.99
12:43:38.265625,5.82
12:43:38.281250,6.32
12:43:38.296875,6.54
12:43:38.312500,6.58
12:43:38.328125,6.51
12:43:38.343750,6.43
12:43:38.359375,6.38
12:43:38.375000,6.34
12:43:38.390625,6.26
12:43:38.406250,6.06
12:43:38.421875,5.72
12:43:38.437500,5.25
12:43:38.453125,4.71
12:43:38.468750,4.18
12:43:38.484375,3.75
12:43:38.500000,3.50
12:43:38.515625,3.43
12:43:38.531250,3.47
12:43:38.546875,3.48
12:43:38.562500,3.30
12:43:38.578125,2.84
12:43:38.593750,2.07
12:43:38.609375,1.02
12:43:38.625000,-0.19
12:43:38.640625,-1.43
12:43:38.656250,-2.59
12:43:38.671875,-3.57
12:43:38.687500,-4.29
12:43:38.703125,-4.74
12:43:38.718750,-5.00
12:43:38.734375,-5.27
12:43:38.750000,-5.75
12:43:38.765625,-6.62
12:43:38.781250,-7.89
12:43:38.796875,-9.37
12:43:38.812500,-10.71
12:43:38.828125,-11.54
12:43:38.843750,-11.57
12:43:38.859375,-10.74
12:43:38.875000,-9.18
12:43:38.890625,-7.18
12:43:38.906250,-5.05
12:43:38.921875,-3.07
12:43:38.937500,-1.41
12:43:38.953125,-0.06
12:43:38.968750,1.07
12:43:38.984375,2.14
12:43:39,3.28
12:43:39.015625,4.57
12:43:39.031250,6.00
12:43:39.046875,7.53
12:43:39.062500,9.10
12:43:39.078125,10.65
12:43:39.093750,12.06
12:43:39.109375,13.13
12:43:39.125000,13.64
12:43:39.140625,13.42
12:43:39.156250,12.46
12:43:39.171875,10.97
12:43:39.187500,9.31
12:43:39.203125,7.85
12:43:39.218750,6.83
12:43:39.234375,6.30
12:43:39.250000,6.12
12:43:39.265625,6.11
12:43:39.281250,6.09
12:43:39.296875,5.95
12:43:39.312500,5.62
12:43:39.328125,5.01
12:43:39.343750,4.10
12:43:39.359375,2.85
12:43:39.375000,1.39
12:43:39.390625,-0.07
12:43:39.406250,-1.28
12:43:39.421875,-2.09
12:43:39.437500,-2.43
12:43:39.453125,-2.39
12:43:39.468750,-2.21
12:43:39.484375,-2.13
12:43:39.500000,-2.38
12:43:39.515625,-3.04
12:43:39.531250,-4.09
12:43:39.546875,-5.33
12:43:39.562500,-6.53
12:43:39.578125,-7.54
12:43:39.593750,-8.29
12:43:39.609375,-8.84
12:43:39.625000,-9.32
12:43:39.640625,-9.79
12:43:39.656250,-10.27
12:43:39.671875,-10.75
12:43:39.687500,-11.19
12:43:39.703125,-11.63
12:43:39.718750,-12.05
12:43:39.734375,-12.36
12:43:39.750000,-12.41
12:43:39.765625,-11.97
12:43:39.781250,-10.91
12:43:39.796875,-9.26
12:43:39.812500,-7.20
12:43:39.828125,-5.07
12:43:39.843750,-3.18
12:43:39.859375,-1.80
12:43:39.875000,-1.06
12:43:39.890625,-0.96
12:43:39.906250,-1.40
12:43:39.921875,-2.18
12:43:39.937500,-3.05
12:43:39.953125,-3.73
12:43:39.968750,-4.01
12:43:39.984375,-3.81
12:43:40,-3.16
12:43:40.015625,-2.18
12:43:40.031250,-1.05
12:43:40.046875,0.07
12:43:40.062500,1.04
12:43:40.078125,1.70
12:43:40.093750,1.90
12:43:40.109375,1.50
12:43:40.125000,0.52
12:43:40.140625,-0.89
12:43:40.156250,-2.41
12:43:40.171875,-3.71
12:43:40.187500,-4.54
12:43:40.203125,-4.79
12:43:40.218750,-4.56
12:43:40.234375,-4.06
12:43:40.250000,-3.51
12:43:40.265625,-3.02
12:43:40.281250,-2.59
12:43:40.296875,-2.21
12:43:40.312500,-1.85
12:43:40.328125,-1.58
12:43:40.343750,-1.51
12:43:40.359375,-1.72
12:43:40.375000,-2.19
12:43:40.390625,-2.81
12:43:40.406250,-3.37
12:43:40.421875,-3.75
12:43:40.437500,-3.93
12:43:40.453125,-4.02
12:43:40.468750,-4.26
12:43:40.484375,-4.82
12:43:40.500000,-5.78
12:43:40.515625,-6.98
12:43:40.531250,-8.20
12:43:40.546875,-9.19
12:43:40.562500,-9.84
12:43:40.578125,-10.19
12:43:40.593750,-10.40
12:43:40.609375,-10.60
12:43:40.625000,-10.81
12:43:40.640625,-10.91
12:43:40.656250,-10.66
12:43:40.671875,-9.86
12:43:40.687500,-8.46
12:43:40.703125,-6.57
12:43:40.718750,-4.44
12:43:40.734375,-2.34
12:43:40.750000,-0.46
12:43:40.765625,1.13
12:43:40.781250,2.48
12:43:40.796875,3.61
12:43:40.812500,4.50
12:43:40.828125,5.08
12:43:40.843750,5.29
12:43:40.859375,5.16
12:43:40.875000,4.88
12:43:40.890625,4.75
12:43:40.906250,5.07
12:43:40.921875,6.00
12:43:40.937500,7.47
12:43:40.953125,9.16
12:43:40.968750,10.66
12:43:40.984375,11.52
12:43:41,11.47
12:43:41.015625,10.52
12:43:41.031250,8.92
12:43:41.046875,7.20
12:43:41.062500,5.98
12:43:41.078125,5.90
12:43:41.093750,7.35
12:43:41.109375,10.28
12:43:41.125000,14.02
12:43:41.140625,17.26
12:43:41.156250,18.32
12:43:41.171875,15.55
12:43:41.187500,8.02
12:43:41.203125,-4.10
12:43:41.218750,-19.38
12:43:41.234375,-35.42
12:43:41.250000,-49.50
12:43:41.265625,-59.30
12:43:41.281250,-63.42
12:43:41.296875,-61.59
12:43:41.312500,-54.56
12:43:41.328125,-43.71
12:43:41.343750,-30.66
12:43:41.359375,-16.95
12:43:41.375000,-3.85
12:43:41.390625,7.66
12:43:41.406250,16.93
12:43:41.421875,23.56
12:43:41.437500,27.38
12:43:41.453125,28.55
12:43:41.468750,27.53
12:43:41.484375,25.12
12:43:41.500000,22.32
12:43:41.515625,20.07
12:43:41.531250,18.95
12:43:41.546875,19.01
12:43:41.562500,19.76
12:43:41.578125,20.39
12:43:41.593750,20.18
12:43:41.609375,18.66
12:43:41.625000,15.72
12:43:41.640625,11.51
12:43:41.656250,6.22
12:43:41.671875,-0.03
12:43:41.687500,-7.18
12:43:41.703125,-15.12
12:43:41.718750,-23.57
12:43:41.734375,-32.00
12:43:41.750000,-39.81
12:43:41.765625,-46.39
12:43:41.781250,-51.27
12:43:41.796875,-54.19
12:43:41.812500,-55.04
12:43:41.828125,-53.90
12:43:41.843750,-50.93
12:43:41.859375,-46.38
12:43:41.875000,-40.55
12:43:41.890625,-33.76
12:43:41.906250,-26.35
12:43:41.921875,-18.62
12:43:41.937500,-10.86
12:43:41.953125,-3.28
12:43:41.968750,3.86
12:43:41.984375,10.31
12:43:42,15.78
12:43:42.015625,19.89
12:43:42.031250,22.29
12:43:42.046875,22.71
12:43:42.062500,21.05
12:43:42.078125,17.45
12:43:42.093750,12.36
12:43:42.109375,6.37
12:43:42.125000,0.05
12:43:42.140625,-6.24
12:43:42.156250,-12.42
12:43:42.171875,-18.68
12:43:42.187500,-25.27
12:43:42.203125,-32.30
12:43:42.218750,-39.68
12:43:42.234375,-47.00
12:43:42.250000,-53.64
12:43:42.265625,-58.79
12:43:42.281250,-61.59
12:43:42.296875,-61.43
12:43:42.312500,-58.06
12:43:42.328125,-51.84
12:43:42.343750,-43.72
12:43:42.359375,-34.93
12:43:42.375000,-26.61
12:43:42.390625,-19.38
12:43:42.406250,-13.16
12:43:42.421875,-7.32
12:43:42.437500,-1.14
12:43:42.453125,5.72
12:43:42.468750,12.88
12:43:42.484375,19.30
12:43:42.500000,23.59
12:43:42.515625,24.56
12:43:42.531250,21.63
12:43:42.546875,15.03
12:43:42.562500,5.67
12:43:42.578125,-5.25
12:43:42.593750,-16.71
12:43:42.609375,-28.30
12:43:42.625000,-40.29
12:43:42.640625,-53.34
12:43:42.656250,-68.02
12:43:42.671875,-84.35
12:43:42.687500,-101.59
12:43:42.703125,-118.49
12:43:42.718750,-133.85
12:43:42.734375,-147.03
12:43:42.750000,-158.45
12:43:42.765625,-169.32
12:43:42.781250,-181.20
12:43:42.796875,-195.12
12:43:42.812500,-210.92
12:43:42.828125,-226.90
12:43:42.843750,-239.92
12:43:42.859375,-246.00
12:43:42.875000,-241.03
12:43:42.890625,-221.72
12:43:42.906250,-186.69
12:43:42.921875,-137.65
12:43:42.937500,-80.00
12:43:42.953125,-22.44
12:43:42.968750,24.87
12:43:42.984375,53.26
12:43:43,58.28
12:43:43.015625,41.29
12:43:43.031250,8.98
12:43:43.046875,-28.94
12:43:43.062500,-62.61
12:43:43.078125,-84.55
12:43:43.093750,-90.81
12:43:43.109375,-80.85
12:43:43.125000,-56.77
12:43:43.140625,-22.36
12:43:43.156250,17.76
12:43:43.171875,58.97
12:43:43.187500,97.44
12:43:43.203125,130.92
12:43:43.218750,159.22
12:43:43.234375,183.89
12:43:43.250000,207.28
12:43:43.265625,231.25
12:43:43.281250,256.34
12:43:43.296875,281.65
12:43:43.312500,305.40
12:43:43.328125,325.67
12:43:43.343750,341.12
12:43:43.359375,351.27
12:43:43.375000,356.37
12:43:43.390625,357.38
12:43:43.406250,355.91
12:43:43.421875,354.22
12:43:43.437500,354.79
12:43:43.453125,359.23
12:43:43.468750,367.18
12:43:43.484375,375.65
12:43:43.500000,379.82
12:43:43.515625,375.13
12:43:43.531250,359.74
12:43:43.546875,335.93
12:43:43.562500,309.43
12:43:43.578125,286.93
12:43:43.593750,272.96
12:43:43.609375,268.06
12:43:43.625000,269.01
12:43:43.640625,270.71
12:43:43.656250,268.64
12:43:43.671875,260.62
12:43:43.687500,246.97
12:43:43.703125,229.56
12:43:43.718750,210.59
12:43:43.734375,191.72
12:43:43.750000,173.98
12:43:43.765625,158.00
12:43:43.781250,144.24
12:43:43.796875,133.12
12:43:43.812500,124.85
12:43:43.828125,119.26
12:43:43.843750,115.73
12:43:43.859375,113.47
12:43:43.875000,111.68
12:43:43.890625,109.81
12:43:43.906250,107.62
12:43:43.921875,105.01
12:43:43.937500,101.69
12:43:43.953125,97.00
12:43:43.968750,89.85
12:43:43.984375,78.99
12:43:44,63.26
12:43:44.015625,42.08
12:43:44.031250,15.59
12:43:44.046875,-15.42
12:43:44.062500,-49.83
12:43:44.078125,-86.72
12:43:44.093750,-126.07
12:43:44.109375,-169.16
12:43:44.125000,-218.03
12:43:44.140625,-274.30
12:43:44.156250,-337.10
12:43:44.171875,-401.62
12:43:44.187500,-459.12
12:43:44.203125,-498.72
12:43:44.218750,-510.53
12:43:44.234375,-488.49
12:43:44.250000,-432.19
12:43:44.265625,-347.06
12:43:44.281250,-243.15
12:43:44.296875,-133.08
12:43:44.312500,-29.74
12:43:44.328125,56.01
12:43:44.343750,117.40
12:43:44.359375,152.93
12:43:44.375000,166.32
12:43:44.390625,164.96
12:43:44.406250,157.15
12:43:44.421875,149.35
12:43:44.437500,144.53
12:43:44.453125,142.10
12:43:44.468750,139.45
12:43:44.484375,133.73
12:43:44.500000,122.96
12:43:44.515625,106.40
12:43:44.531250,84.03
12:43:44.546875,56.14
12:43:44.562500,23.19
12:43:44.578125,-14.08
12:43:44.593750,-54.62
12:43:44.609375,-97.29
12:43:44.625000,-141.15
12:43:44.640625,-186.29
12:43:44.656250,-233.88
12:43:44.671875,-285.41
12:43:44.687500,-341.06
12:43:44.703125,-398.22
12:43:44.718750,-450.96
12:43:44.734375,-491.37
12:43:44.750000,-512.39
12:43:44.765625,-510.72
12:43:44.781250,-488.26
12:43:44.796875,-451.21
12:43:44.812500,-407.39
12:43:44.828125,-363.31
12:43:44.843750,-322.58
12:43:44.859375,-286.25
12:43:44.875000,-254.46
12:43:44.890625,-227.79
12:43:44.906250,-207.56
12:43:44.921875,-194.83
12:43:44.937500,-189.21
12:43:44.953125,-188.46
12:43:44.968750,-189.24
12:43:44.984375,-188.60
12:43:45,-185.07
12:43:45.015625,-178.95
12:43:45.031250,-171.74
12:43:45.046875,-165.18
12:43:45.062500,-160.45
12:43:45.078125,-157.82
12:43:45.093750,-156.75
12:43:45.109375,-156.21
12:43:45.125000,-155.06
12:43:45.140625,-152.29
12:43:45.156250,-147.23
12:43:45.171875,-139.53
12:43:45.187500,-129.18
12:43:45.203125,-116.42
12:43:45.218750,-101.83
12:43:45.234375,-86.35
12:43:45.250000,-71.29
12:43:45.265625,-58.16
12:43:45.281250,-48.06
12:43:45.296875,-41.20
12:43:45.312500,-36.43
12:43:45.328125,-31.47
12:43:45.343750,-23.61
12:43:45.359375,-10.84
12:43:45.375000,7.27
12:43:45.390625,29.26
12:43:45.406250,52.27
12:43:45.421875,73.12
12:43:45.437500,89.39
12:43:45.453125,100.09
12:43:45.468750,105.66
12:43:45.484375,107.47
12:43:45.500000,106.91
12:43:45.515625,104.85
12:43:45.531250,101.43
12:43:45.546875,96.27
12:43:45.562500,88.89
12:43:45.578125,79.00
12:43:45.593750,66.66
12:43:45.609375,52.23
12:43:45.625000,36.33
12:43:45.640625,19.71
12:43:45.656250,3.32
12:43:45.671875,-11.68
12:43:45.687500,-23.96
12:43:45.703125,-32.12
12:43:45.718750,-35.05
12:43:45.734375,-32.18
12:43:45.750000,-23.89
12:43:45.765625,-11.66
12:43:45.781250,2.11
12:43:45.796875,14.72
12:43:45.812500,24.20
12:43:45.828125,30.06
12:43:45.843750,33.66
12:43:45.859375,37.73
12:43:45.875000,45.43
12:43:45.890625,59.40
12:43:45.906250,81.04
12:43:45.921875,110.02
12:43:45.937500,144.17
12:43:45.953125,179.41
12:43:45.968750,210.04
12:43:45.984375,229.80
12:43:46,233.59
12:43:46.015625,219.32
12:43:46.031250,189.11
12:43:46.046875,148.67
12:43:46.062500,105.29
12:43:46.078125,65.36
12:43:46.093750,32.86
12:43:46.109375,9.49
12:43:46.125000,-3.90
12:43:46.140625,-5.84
12:43:46.156250,6.05
12:43:46.171875,34.09
12:43:46.187500,79.03
12:43:46.203125,138.85
12:43:46.218750,208.65
12:43:46.234375,281.35
12:43:46.250000,349.07
12:43:46.265625,404.55
12:43:46.281250,442.32
12:43:46.296875,459.51
12:43:46.312500,456.21
12:43:46.328125,435.03
12:43:46.343750,400.24
12:43:46.359375,356.45
12:43:46.375000,307.59
12:43:46.390625,256.43
12:43:46.406250,204.86
12:43:46.421875,154.32
12:43:46.437500,105.85
12:43:46.453125,59.85
12:43:46.468750,15.65
12:43:46.484375,-28.76
12:43:46.500000,-76.35
12:43:46.515625,-130.19
12:43:46.531250,-192.28
12:43:46.546875,-262.33
12:43:46.562500,-336.89
12:43:46.578125,-409.42
12:43:46.593750,-471.44
12:43:46.609375,-514.93
12:43:46.625000,-534.87
12:43:46.640625,-530.88
12:43:46.656250,-507.18
12:43:46.671875,-470.85
12:43:46.687500,-429.21
12:43:46.703125,-387.50
12:43:46.718750,-348.17
12:43:46.734375,-311.42
12:43:46.750000,-276.43
12:43:46.765625,-242.39
12:43:46.781250,-208.64
12:43:46.796875,-174.14
12:43:46.812500,-136.87
12:43:46.828125,-94.23
12:43:46.843750,-44.47
12:43:46.859375,11.50
12:43:46.875000,69.01
12:43:46.890625,120.14
12:43:46.906250,156.12
12:43:46.921875,170.61
12:43:46.937500,162.34
12:43:46.953125,135.97
12:43:46.968750,100.32
12:43:46.984375,65.23
12:43:47,38.14
12:43:47.015625,22.13
12:43:47.031250,16.02
12:43:47.046875,16.22
12:43:47.062500,19.00
12:43:47.078125,22.11
12:43:47.093750,25.14
12:43:47.109375,28.73
12:43:47.125000,33.47
12:43:47.140625,39.10
12:43:47.156250,44.51
12:43:47.171875,48.32
12:43:47.187500,49.65
12:43:47.203125,48.89
12:43:47.218750,47.46
12:43:47.234375,47.26
12:43:47.250000,49.75
12:43:47.265625,55.42
12:43:47.281250,63.62
12:43:47.296875,73.07
12:43:47.312500,82.48
12:43:47.328125,91.02
12:43:47.343750,98.44
12:43:47.359375,104.67
12:43:47.375000,109.59
12:43:47.390625,112.72
12:43:47.406250,113.52
12:43:47.421875,111.71
12:43:47.437500,107.68
12:43:47.453125,102.55
12:43:47.468750,97.83
12:43:47.484375,94.93
12:43:47.500000,94.60
12:43:47.515625,96.72
12:43:47.531250,100.37
12:43:47.546875,104.25
12:43:47.562500,107.02
12:43:47.578125,107.67
12:43:47.593750,105.73
12:43:47.609375,101.27
12:43:47.625000,94.82
12:43:47.640625,87.18
12:43:47.656250,79.23
12:43:47.671875,71.75
12:43:47.687500,65.28
12:43:47.703125,60.12
12:43:47.718750,56.36
12:43:47.734375,53.98
12:43:47.750000,52.85
12:43:47.765625,52.72
12:43:47.781250,53.13
12:43:47.796875,53.51
12:43:47.812500,53.22
12:43:47.828125,51.82
12:43:47.843750,49.24
12:43:47.859375,45.85
12:43:47.875000,42.27
12:43:47.890625,39.14
12:43:47.906250,36.80
12:43:47.921875,35.23
12:43:47.937500,34.15
12:43:47.953125,33.27
12:43:47.968750,32.53
12:43:47.984375,32.02
12:43:48,31.86
12:43:48.015625,31.91
12:43:48.031250,31.66
12:43:48.046875,30.53
12:43:48.062500,28.10
12:43:48.078125,24.42
12:43:48.093750,20.00
12:43:48.109375,15.50
12:43:48.125000,11.37
12:43:48.140625,7.69
12:43:48.156250,4.19
12:43:48.171875,0.50
12:43:48.187500,-3.51
12:43:48.203125,-7.79
12:43:48.218750,-12.12
12:43:48.234375,-16.38
12:43:48.250000,-20.63
12:43:48.265625,-25.01
12:43:48.281250,-29.58
12:43:48.296875,-34.07
12:43:48.312500,-38.00
12:43:48.328125,-40.86
12:43:48.343750,-42.36
12:43:48.359375,-42.65
12:43:48.375000,-42.29
12:43:48.390625,-42.02
12:43:48.406250,-42.46
12:43:48.421875,-43.79
12:43:48.437500,-45.67
12:43:48.453125,-47.36
12:43:48.468750,-48.08
12:43:48.484375,-47.43
12:43:48.500000,-45.54
12:43:48.515625,-43.01
12:43:48.531250,-40.62
12:43:48.546875,-38.93
12:43:48.562500,-38.04
12:43:48.578125,-37.64
12:43:48.593750,-37.17
12:43:48.609375,-36.15
12:43:48.625000,-34.33
12:43:48.640625,-31.77
12:43:48.656250,-28.79
12:43:48.671875,-25.80
12:43:48.687500,-23.23
12:43:48.703125,-21.39
12:43:48.718750,-20.42
12:43:48.734375,-20.26
12:43:48.750000,-20.63
12:43:48.765625,-21.14
12:43:48.781250,-21.45
12:43:48.796875,-21.38
12:43:48.812500,-20.97
12:43:48.828125,-20.37
12:43:48.843750,-19.83
12:43:48.859375,-19.58
12:43:48.875000,-19.76
12:43:48.890625,-20.47
12:43:48.906250,-21.74
12:43:48.921875,-23.49
12:43:48.937500,-25.54
12:43:48.953125,-27.55
12:43:48.968750,-29.12
12:43:48.984375,-29.88
12:43:49,-29.61
12:43:49.015625,-28.31
12:43:49.031250,-26.23
12:43:49.046875,-23.76
12:43:49.062500,-21.30
12:43:49.078125,-19.14
12:43:49.093750,-17.40
12:43:49.109375,-15.98
12:43:49.125000,-14.55
12:43:49.140625,-12.65
12:43:49.156250,-9.80
12:43:49.171875,-5.71
12:43:49.187500,-0.40
12:43:49.203125,5.72
12:43:49.218750,11.97
12:43:49.234375,17.55
12:43:49.250000,21.84
12:43:49.265625,24.60
12:43:49.281250,25.99
12:43:49.296875,26.51
12:43:49.312500,26.77
12:43:49.328125,27.24
12:43:49.343750,28.20
12:43:49.359375,29.67
12:43:49.375000,31.44
12:43:49.390625,33.15
12:43:49.406250,34.43
12:43:49.421875,34.95
12:43:49.437500,34.54
12:43:49.453125,33.16
12:43:49.468750,30.87
12:43:49.484375,27.68
12:43:49.500000,23.52
12:43:49.515625,18.28
12:43:49.531250,12.00
12:43:49.546875,4.92
12:43:49.562500,-2.47
12:43:49.578125,-9.58
12:43:49.593750,-15.92
12:43:49.609375,-21.27
12:43:49.625000,-25.68
12:43:49.640625,-29.34
12:43:49.656250,-32.45
12:43:49.671875,-35.08
12:43:49.687500,-37.15
12:43:49.703125,-38.52
12:43:49.718750,-39.08
12:43:49.734375,-38.78
12:43:49.750000,-37.59
12:43:49.765625,-35.48
12:43:49.781250,-32.43
12:43:49.796875,-28.45
12:43:49.812500,-23.62
12:43:49.828125,-18.17
12:43:49.843750,-12.42
12:43:49.859375,-6.84
12:43:49.875000,-1.93
12:43:49.890625,1.78
12:43:49.906250,3.83
12:43:49.921875,3.92
12:43:49.937500,2.10
12:43:49.953125,-1.22
12:43:49.968750,-5.32
12:43:49.984375,-9.41
12:43:50,-12.85
12:43:50.015625,-15.35
12:43:50.031250,-16.96
12:43:50.046875,-17.92
12:43:50.062500,-18.40
12:43:50.078125,-18.40
12:43:50.093750,-17.75
12:43:50.109375,-16.28
12:43:50.125000,-13.98
12:43:50.140625,-11.03
12:43:50.156250,-7.70
12:43:50.171875,-4.15
12:43:50.187500,-0.27
12:43:50.203125,4.23
12:43:50.218750,9.51
12:43:50.234375,15.33
12:43:50.250000,20.76
12:43:50.265625,24.41
12:43:50.281250,24.93
12:43:50.296875,21.53
12:43:50.312500,14.51
12:43:50.328125,5.14
12:43:50.343750,-4.76
12:43:50.359375,-13.44
12:43:50.375000,-19.79
12:43:50.390625,-23.53
12:43:50.406250,-25.11
12:43:50.421875,-25.47
12:43:50.437500,-25.69
12:43:50.453125,-26.77
12:43:50.468750,-29.48
12:43:50.484375,-34.16
12:43:50.500000,-40.58
12:43:50.515625,-47.84
12:43:50.531250,-54.55
12:43:50.546875,-59.15
12:43:50.562500,-60.35
12:43:50.578125,-57.57
12:43:50.593750,-51.18
12:43:50.609375,-42.42
12:43:50.625000,-33.12
12:43:50.640625,-25.19
12:43:50.656250,-20.14
12:43:50.671875,-18.72
12:43:50.687500,-20.77
12:43:50.703125,-25.31
12:43:50.718750,-30.87
12:43:50.734375,-35.90
12:43:50.750000,-39.14
12:43:50.765625,-39.84
12:43:50.781250,-37.84
12:43:50.796875,-33.43
12:43:50.812500,-27.28
12:43:50.828125,-20.21
12:43:50.843750,-13.11
12:43:50.859375,-6.80
12:43:50.875000,-1.90
12:43:50.890625,1.22
12:43:50.906250,2.61
12:43:50.921875,2.71
12:43:50.937500,2.30
12:43:50.953125,2.24
12:43:50.968750,3.33
12:43:50.984375,6.05
12:43:51,10.50
12:43:51.015625,16.44
12:43:51.031250,23.41
12:43:51.046875,30.85
12:43:51.062500,38.17
12:43:51.078125,44.79
12:43:51.093750,50.13
12:43:51.109375,53.65
12:43:51.125000,54.93
12:43:51.140625,53.84
12:43:51.156250,50.72
12:43:51.171875,46.35
12:43:51.187500,41.90
12:43:51.203125,38.60
12:43:51.218750,37.39
12:43:51.234375,38.58
12:43:51.250000,41.72
12:43:51.265625,45.75
12:43:51.281250,49.31
12:43:51.296875,51.14
12:43:51.312500,50.46
12:43:51.328125,47.17
12:43:51.343750,41.81
12:43:51.359375,35.47
12:43:51.375000,29.56
12:43:51.390625,25.50
12:43:51.406250,24.44
12:43:51.421875,27.01
12:43:51.437500,33.12
12:43:51.453125,41.94
12:43:51.468750,52.09
12:43:51.484375,61.82
12:43:51.500000,69.51
12:43:51.515625,73.92
12:43:51.531250,74.54
12:43:51.546875,71.69
12:43:51.562500,66.31
12:43:51.578125,59.71
12:43:51.593750,53.10
12:43:51.609375,47.22
12:43:51.625000,42.16
12:43:51.640625,37.43
12:43:51.656250,32.21
12:43:51.671875,25.80
12:43:51.687500,17.86
12:43:51.703125,8.58
12:43:51.718750,-1.34
12:43:51.734375,-10.98
12:43:51.750000,-19.43
12:43:51.765625,-26.05
12:43:51.781250,-30.63
12:43:51.796875,-33.38
12:43:51.812500,-34.75
12:43:51.828125,-35.19
12:43:51.843750,-34.97
12:43:51.859375,-34.10
12:43:51.875000,-32.53
12:43:51.890625,-30.41
12:43:51.906250,-28.37
12:43:51.921875,-27.47
12:43:51.937500,-28.88
12:43:51.953125,-33.36
12:43:51.968750,-40.81
12:43:51.984375,-50.23
12:43:52,-60.00
12:43:52.015625,-68.60
12:43:52.031250,-75.30
12:43:52.046875,-80.46
12:43:52.062500,-85.37
12:43:52.078125,-91.57
12:43:52.093750,-100.14
12:43:52.109375,-111.11
12:43:52.125000,-123.47
12:43:52.140625,-135.58
12:43:52.156250,-145.76
12:43:52.171875,-152.88
12:43:52.187500,-156.74
12:43:52.203125,-158.27
12:43:52.218750,-159.52
12:43:52.234375,-163.74
12:43:52.250000,-174.89
12:43:52.265625,-196.62
12:43:52.281250,-230.67
12:43:52.296875,-275.34
12:43:52.312500,-324.96
12:43:52.328125,-371.09
12:43:52.343750,-405.09
12:43:52.359375,-421.14
12:43:52.375000,-418.09
12:43:52.390625,-399.24
12:43:52.406250,-370.37
12:43:52.421875,-336.98
12:43:52.437500,-302.43
12:43:52.453125,-267.78
12:43:52.468750,-232.91
12:43:52.484375,-198.11
12:43:52.500000,-164.68
12:43:52.515625,-134.43
12:43:52.531250,-108.38
12:43:52.546875,-85.75
12:43:52.562500,-64.01
12:43:52.578125,-39.98
12:43:52.593750,-11.47
12:43:52.609375,21.60
12:43:52.625000,57.14
12:43:52.640625,91.74
12:43:52.656250,122.33
12:43:52.671875,147.50
12:43:52.687500,168.10
12:43:52.703125,186.85
12:43:52.718750,207.35
12:43:52.734375,232.83
12:43:52.750000,265.14
12:43:52.765625,304.03
12:43:52.781250,346.83
12:43:52.796875,388.58
12:43:52.812500,422.78
12:43:52.828125,442.82
12:43:52.843750,443.92
12:43:52.859375,424.85
12:43:52.875000,388.73
12:43:52.890625,342.27
12:43:52.906250,293.56
12:43:52.921875,249.34
12:43:52.937500,213.11
12:43:52.953125,184.56
12:43:52.968750,160.78
12:43:52.984375,138.36
12:43:53,115.10
12:43:53.015625,90.76
12:43:53.031250,66.71
12:43:53.046875,44.84
12:43:53.062500,26.61
12:43:53.078125,12.59
12:43:53.093750,2.66
12:43:53.109375,-3.49
12:43:53.125000,-5.85
12:43:53.140625,-4.06
12:43:53.156250,2.29
12:43:53.171875,13.23
12:43:53.187500,27.79
12:43:53.203125,43.94
12:43:53.218750,58.90
12:43:53.234375,69.98
12:43:53.250000,75.48
12:43:53.265625,75.36
12:43:53.281250,71.24
12:43:53.296875,65.62
12:43:53.312500,60.84
12:43:53.328125,58.03
12:43:53.343750,56.90
12:43:53.359375,56.18
12:43:53.375000,54.49
12:43:53.390625,51.20
12:43:53.406250,46.70
12:43:53.421875,42.06
12:43:53.437500,38.46
12:43:53.453125,36.59
12:43:53.468750,36.35
12:43:53.484375,36.96
12:43:53.500000,37.37
12:43:53.515625,36.81
12:43:53.531250,35.15
12:43:53.546875,33.15
12:43:53.562500,32.19
12:43:53.578125,33.77
12:43:53.593750,38.74
12:43:53.609375,46.90
12:43:53.625000,56.92
12:43:53.640625,66.88
12:43:53.656250,75.03
12:43:53.671875,80.33
12:43:53.687500,82.55
12:43:53.703125,81.85
12:43:53.718750,78.55
12:43:53.734375,73.00
12:43:53.750000,65.84
12:43:53.765625,58.23
12:43:53.781250,51.91
12:43:53.796875,48.72
12:43:53.812500,50.04
12:43:53.828125,56.36
12:43:53.843750,67.21
12:43:53.859375,81.64
12:43:53.875000,98.63
12:43:53.890625,117.34
12:43:53.906250,136.98
12:43:53.921875,156.57
12:43:53.937500,174.75
12:43:53.953125,190.22
12:43:53.968750,202.18
12:43:53.984375,210.69
12:43:54,216.69
12:43:54.015625,221.51
12:43:54.031250,226.29
12:43:54.046875,231.42
12:43:54.062500,236.30
12:43:54.078125,239.44
12:43:54.093750,238.79
12:43:54.109375,232.26
12:43:54.125000,218.20
12:43:54.140625,195.66
12:43:54.156250,164.52
12:43:54.171875,125.30
12:43:54.187500,78.82
12:43:54.203125,25.99
12:43:54.218750,-32.02
12:43:54.234375,-93.32
12:43:54.250000,-154.61
12:43:54.265625,-211.08
12:43:54.281250,-257.17
12:43:54.296875,-288.21
12:43:54.312500,-302.47
12:43:54.328125,-302.45
12:43:54.343750,-294.79
12:43:54.359375,-288.37
12:43:54.375000,-291.40
12:43:54.390625,-308.64
12:43:54.406250,-339.85
12:43:54.421875,-380.24
12:43:54.437500,-422.59
12:43:54.453125,-459.76
12:43:54.468750,-486.66
12:43:54.484375,-500.75
12:43:54.500000,-501.31
12:43:54.515625,-488.41
12:43:54.531250,-462.28
12:43:54.546875,-423.43
12:43:54.562500,-373.43
12:43:54.578125,-315.38
12:43:54.593750,-253.49
12:43:54.609375,-192.00
12:43:54.625000,-133.70
12:43:54.640625,-79.06
12:43:54.656250,-26.18
12:43:54.671875,28.11
12:43:54.687500,86.36
12:43:54.703125,148.66
12:43:54.718750,211.62
12:43:54.734375,268.75
12:43:54.750000,312.27
12:43:54.765625,335.67
12:43:54.781250,335.93
12:43:54.796875,314.23
12:43:54.812500,275.23
12:43:54.828125,225.06
12:43:54.843750,169.34
12:43:54.859375,112.15
12:43:54.875000,56.05
12:43:54.890625,2.91
12:43:54.906250,-45.30
12:43:54.921875,-86.47
12:43:54.937500,-118.96
12:43:54.953125,-142.33
12:43:54.968750,-157.74
12:43:54.984375,-167.60
12:43:55,-174.57
12:43:55.015625,-180.44
12:43:55.031250,-185.32
12:43:55.046875,-187.29
12:43:55.062500,-182.87
12:43:55.078125,-168.22
12:43:55.093750,-140.57
12:43:55.109375,-99.64
12:43:55.125000,-48.13
12:43:55.140625,8.89
12:43:55.156250,65.56
12:43:55.171875,117.16
12:43:55.187500,161.49
12:43:55.203125,199.08
12:43:55.218750,232.17
12:43:55.234375,263.13
12:43:55.250000,293.16
12:43:55.265625,321.74
12:43:55.281250,347.32
12:43:55.296875,368.44
12:43:55.312500,384.50
12:43:55.328125,395.68
12:43:55.343750,402.02
12:43:55.359375,402.51
12:43:55.375000,394.89
12:43:55.390625,376.54
12:43:55.406250,346.29
12:43:55.421875,305.67
12:43:55.437500,259.11
12:43:55.453125,212.45
12:43:55.468750,170.68
12:43:55.484375,136.06
12:43:55.500000,107.65
12:43:55.515625,82.52
12:43:55.531250,57.79
12:43:55.546875,32.41
12:43:55.562500,7.61
12:43:55.578125,-13.95
12:43:55.593750,-29.76
12:43:55.609375,-38.83
12:43:55.625000,-42.02
12:43:55.640625,-41.56
12:43:55.656250,-40.06
12:43:55.671875,-39.65
12:43:55.687500,-41.67
12:43:55.703125,-46.74
12:43:55.718750,-55.02
12:43:55.734375,-66.26
12:43:55.750000,-79.58
12:43:55.765625,-93.03
12:43:55.781250,-103.58
12:43:55.796875,-107.39
12:43:55.812500,-100.83
12:43:55.828125,-81.68
12:43:55.843750,-50.17
12:43:55.859375,-9.28
12:43:55.875000,35.75
12:43:55.890625,78.63
12:43:55.906250,113.56
12:43:55.921875,136.28
12:43:55.937500,144.67
12:43:55.953125,138.70
12:43:55.968750,119.84
12:43:55.984375,90.41
12:43:56,53.07
12:43:56.015625,10.39
12:43:56.031250,-35.08
12:43:56.046875,-80.86
12:43:56.062500,-124.61
12:43:56.078125,-164.14
12:43:56.093750,-197.68
12:43:56.109375,-224.13
12:43:56.125000,-243.25
12:43:56.140625,-255.44
12:43:56.156250,-261.47
12:43:56.171875,-262.00
12:43:56.187500,-257.42
12:43:56.203125,-247.85
12:43:56.218750,-233.53
12:43:56.234375,-215.09
12:43:56.250000,-193.73
12:43:56.265625,-171.06
12:43:56.281250,-148.64
12:43:56.296875,-127.65
12:43:56.312500,-108.65
12:43:56.328125,-91.68
12:43:56.343750,-76.49
12:43:56.359375,-62.85
12:43:56.375000,-50.78
12:43:56.390625,-40.47
12:43:56.406250,-32.19
12:43:56.421875,-26.04
12:43:56.437500,-21.91
12:43:56.453125,-19.42
12:43:56.468750,-18.10
12:43:56.484375,-17.59
12:43:56.500000,-17.69
12:43:56.515625,-18.45
12:43:56.531250,-19.97
12:43:56.546875,-22.25
12:43:56.562500,-25.01
12:43:56.578125,-27.76
12:43:56.593750,-29.88
12:43:56.609375,-30.85
12:43:56.625000,-30.39
12:43:56.640625,-28.49
12:43:56.656250,-25.31
12:43:56.671875,-21.07
12:43:56.687500,-15.94
12:43:56.703125,-10.14
12:43:56.718750,-3.97
12:43:56.734375,2.14
12:43:56.750000,7.66
12:43:56.765625,12.09
12:43:56.781250,15.07
12:43:56.796875,16.45
12:43:56.812500,16.24
12:43:56.828125,14.57
12:43:56.843750,11.58
12:43:56.859375,7.49
12:43:56.875000,2.64
12:43:56.890625,-2.47
12:43:56.906250,-7.34
12:43:56.921875,-11.58
12:43:56.937500,-15.02
12:43:56.953125,-17.77
12:43:56.968750,-20.10
12:43:56.984375,-22.25
12:43:57,-24.33
12:43:57.015625,-26.26
12:43:57.031250,-27.81
12:43:57.046875,-28.71
12:43:57.062500,-28.70
12:43:57.078125,-27.56
12:43:57.093750,-25.07
12:43:57.109375,-21.11
12:43:57.125000,-15.73
12:43:57.140625,-9.18
12:43:57.156250,-2.03
12:43:57.171875,4.98
12:43:57.187500,11.13
12:43:57.203125,15.83
12:43:57.218750,18.86
12:43:57.234375,20.29
12:43:57.250000,20.45
12:43:57.265625,19.76
12:43:57.281250,18.61
12:43:57.296875,17.23
12:43:57.312500,15.69
12:43:57.328125,13.83
12:43:57.343750,11.31
12:43:57.359375,7.83
12:43:57.375000,3.21
12:43:57.390625,-2.41
12:43:57.406250,-8.58
12:43:57.421875,-14.61
12:43:57.437500,-19.84
12:43:57.453125,-23.73
12:43:57.468750,-26.15
12:43:57.484375,-27.21
12:43:57.500000,-27.15
12:43:57.515625,-26.20
12:43:57.531250,-24.41
12:43:57.546875,-21.73
12:43:57.562500,-18.15
12:43:57.578125,-13.85
12:43:57.593750,-9.18
12:43:57.609375,-4.65
12:43:57.625000,-0.70
12:43:57.640625,2.39
12:43:57.656250,4.51
12:43:57.671875,5.70
12:43:57.687500,6.07
12:43:57.703125,5.63
12:43:57.718750,4.35
12:43:57.734375,2.16
12:43:57.750000,-1.01
12:43:57.765625,-5.19
12:43:57.781250,-10.34
12:43:57.796875,-16.29
12:43:57.812500,-22.66
12:43:57.828125,-28.87
12:43:57.843750,-34.17
12:43:57.859375,-37.83
12:43:57.875000,-39.28
12:43:57.890625,-38.36
12:43:57.906250,-35.30
12:43:57.921875,-30.60
12:43:57.937500,-24.90
12:43:57.953125,-18.68
12:43:57.968750,-12.32
12:43:57.984375,-6.10
12:43:58,-0.31
12:43:58.015625,4.64
12:43:58.031250,8.31
12:43:58.046875,10.33
12:43:58.062500,10.56
12:43:58.078125,9.13
12:43:58.093750,6.35
12:43:58.109375,2.65
12:43:58.125000,-1.69
12:43:58.140625,-6.44
12:43:58.156250,-11.53
12:43:58.171875,-16.90
12:43:58.187500,-22.41
12:43:58.203125,-27.86
12:43:58.218750,-32.97
12:43:58.234375,-37.37
12:43:58.250000,-40.72
12:43:58.265625,-42.68
12:43:58.281250,-42.93
12:43:58.296875,-41.23
12:43:58.312500,-37.55
12:43:58.328125,-32.10
12:43:58.343750,-25.38
12:43:58.359375,-18.12
12:43:58.375000,-11.09
12:43:58.390625,-4.94
12:43:58.406250,0.02
12:43:58.421875,3.76
12:43:58.437500,6.51
12:43:58.453125,8.58
12:43:58.468750,10.22
12:43:58.484375,11.58
12:43:58.500000,12.76
12:43:58.515625,13.80
12:43:58.531250,14.74
12:43:58.546875,15.60
12:43:58.562500,16.30
12:43:58.578125,16.79
12:43:58.593750,17.00
12:43:58.609375,16.98
12:43:58.625000,16.89
12:43:58.640625,16.95
12:43:58.656250,17.35
12:43:58.671875,18.25
12:43:58.687500,19.67
12:43:58.703125,21.52
12:43:58.718750,23.63
12:43:58.734375,25.71
12:43:58.750000,27.47
12:43:58.765625,28.61
12:43:58.781250,29.02
12:43:58.796875,28.76
12:43:58.812500,28.13
12:43:58.828125,27.51
12:43:58.843750,27.21
12:43:58.859375,27.38
12:43:58.875000,27.91
12:43:58.890625,28.49
12:43:58.906250,28.76
12:43:58.921875,28.42
12:43:58.937500,27.26
12:43:58.953125,25.26
12:43:58.968750,22.55
12:43:58.984375,19.44
12:43:59,16.35
12:43:59.015625,13.72
12:43:59.031250,11.92
12:43:59.046875,11.10
12:43:59.062500,11.19
12:43:59.078125,11.85
12:43:59.093750,12.73
12:43:59.109375,13.49
12:43:59.125000,13.97
12:43:59.140625,14.16
12:43:59.156250,14.15
12:43:59.171875,14.02
12:43:59.187500,13.81
12:43:59.203125,13.50
12:43:59.218750,13.03
12:43:59.234375,12.38
12:43:59.250000,11.57
12:43:59.265625,10.73
12:43:59.281250,10.00
12:43:59.296875,9.50
12:43:59.312500,9.28
12:43:59.328125,9.29
12:43:59.343750,9.47
12:43:59.359375,9.74
12:43:59.375000,10.09
12:43:59.390625,10.51
12:43:59.406250,10.97
12:43:59.421875,11.39
12:43:59.437500,11.60
12:43:59.453125,11.37
12:43:59.468750,10.56
12:43:59.484375,9.14
12:43:59.500000,7.21
12:43:59.515625,4.99
12:43:59.531250,2.67
12:43:59.546875,0.44
12:43:59.562500,-1.65
12:43:59.578125,-3.61
12:43:59.593750,-5.49
12:43:59.609375,-7.36
12:43:59.625000,-9.23
12:43:59.640625,-11.01
12:43:59.656250,-12.54
12:43:59.671875,-13.59
12:43:59.687500,-13.97
12:43:59.703125,-13.55
12:43:59.718750,-12.33
12:43:59.734375,-10.38
12:43:59.750000,-7.92
12:43:59.765625,-5.18
12:43:59.781250,-2.41
12:43:59.796875,0.17
12:43:59.812500,2.41
12:43:59.828125,4.18
12:43:59.843750,5.48
12:43:59.859375,6.34
12:43:59.875000,6.85
12:43:59.890625,7.13
12:43:59.906250,7.25
12:43:59.921875,7.21
12:43:59.937500,6.98
12:43:59.953125,6.54
12:43:59.968750,5.86
12:43:59.984375,5.00
12:44:00,4.04
12:44:00.015625,3.08
12:44:00.031250,2.19
12:44:00.046875,1.41
12:44:00.062500,0.72
12:44:00.078125,0.14
12:44:00.093750,-0.27
12:44:00.109375,-0.41
12:44:00.125000,-0.16
12:44:00.140625,0.47
12:44:00.156250,1.31
12:44:00.171875,2.11
12:44:00.187500,2.55
12:44:00.203125,2.51
12:44:00.218750,2.04
12:44:00.234375,1.43
12:44:00.250000,0.97
12:44:00.265625,0.82
12:44:00.281250,0.83
12:44:00.296875,0.66
12:44:00.312500,-0.06
12:44:00.328125,-1.55
12:44:00.343750,-3.77
12:44:00.359375,-6.40
12:44:00.375000,-9.03
12:44:00.390625,-11.26
12:44:00.406250,-12.79
12:44:00.421875,-13.46
12:44:00.437500,-13.21
12:44:00.453125,-12.08
12:44:00.468750,-10.25
12:44:00.484375,-7.99
12:44:00.500000,-5.64
12:44:00.515625,-3.52
12:44:00.531250,-1.81
12:44:00.546875,-0.53
12:44:00.562500,0.43
12:44:00.578125,1.23
12:44:00.593750,1.99
12:44:00.609375,2.76
12:44:00.625000,3.51
12:44:00.640625,4.21
12:44:00.656250,4.84
12:44:00.671875,5.43
12:44:00.687500,5.98
12:44:00.703125,6.45
12:44:00.718750,6.70
12:44:00.734375,6.59
12:44:00.750000,6.02
12:44:00.765625,5.08
12:44:00.781250,3.96
12:44:00.796875,2.96
12:44:00.812500,2.30
12:44:00.828125,2.10
12:44:00.843750,2.27
12:44:00.859375,2.61
12:44:00.875000,2.92
12:44:00.890625,3.00
12:44:00.906250,2.82
12:44:00.921875,2.41
12:44:00.937500,1.91
12:44:00.953125,1.40
12:44:00.968750,0.94
12:44:00.984375,0.51
12:44:01,0.03
12:44:01.015625,-0.55
12:44:01.031250,-1.24
12:44:01.046875,-1.99
12:44:01.062500,-2.75
12:44:01.078125,-3.48
12:44:01.093750,-4.17
12:44:01.109375,-4.84
12:44:01.125000,-5.46
12:44:01.140625,-5.91
12:44:01.156250,-5.98
12:44:01.171875,-5.46
12:44:01.187500,-4.26
12:44:01.203125,-2.49
12:44:01.218750,-0.42
12:44:01.234375,1.58
12:44:01.250000,3.21
12:44:01.265625,4.31
12:44:01.281250,4.94
12:44:01.296875,5.30
12:44:01.312500,5.61
12:44:01.328125,6.02
12:44:01.343750,6.58
12:44:01.359375,7.26
12:44:01.375000,7.97
12:44:01.390625,8.67
12:44:01.406250,9.33
12:44:01.421875,9.97
12:44:01.437500,10.57
12:44:01.453125,11.08
12:44:01.468750,11.44
12:44:01.484375,11.58
12:44:01.500000,11.44
12:44:01.515625,10.97
12:44:01.531250,10.18
12:44:01.546875,9.04
12:44:01.562500,7.62
12:44:01.578125,5.96
12:44:01.593750,4.11
12:44:01.609375,2.14
12:44:01.625000,0.04
12:44:01.640625,-2.21
12:44:01.656250,-4.62
12:44:01.671875,-7.11
12:44:01.687500,-9.54
12:44:01.703125,-11.66
12:44:01.718750,-13.19
12:44:01.734375,-13.92
12:44:01.750000,-13.74
12:44:01.765625,-12.67
12:44:01.781250,-10.88
12:44:01.796875,-8.67
12:44:01.812500,-6.38
12:44:01.828125,-4.38
12:44:01.843750,-2.99
12:44:01.859375,-2.41
12:44:01.875000,-2.73
12:44:01.890625,-3.85
12:44:01.906250,-5.60
12:44:01.921875,-7.72
12:44:01.937500,-9.99
12:44:01.953125,-12.17
12:44:01.968750,-14.09
12:44:01.984375,-15.54
12:44:02,-16.35
12:44:02.015625,-16.43
12:44:02.031250,-15.75
12:44:02.046875,-14.42
12:44:02.062500,-12.60
12:44:02.078125,-10.41
12:44:02.093750,-7.97
12:44:02.109375,-5.32
12:44:02.125000,-2.56
12:44:02.140625,0.17
12:44:02.156250,2.67
12:44:02.171875,4.76
12:44:02.187500,6.34
12:44:02.203125,7.46
12:44:02.218750,8.30
12:44:02.234375,9.03
12:44:02.250000,9.72
12:44:02.265625,10.34
12:44:02.281250,10.76
12:44:02.296875,10.86
12:44:02.312500,10.65
12:44:02.328125,10.27
12:44:02.343750,9.86
12:44:02.359375,9.52
12:44:02.375000,9.18
12:44:02.390625,8.72
12:44:02.406250,7.97
12:44:02.421875,6.88
12:44:02.437500,5.53
12:44:02.453125,4.05
12:44:02.468750,2.56
12:44:02.484375,1.13
12:44:02.500000,-0.21
12:44:02.515625,-1.41
12:44:02.531250,-2.38
12:44:02.546875,-3.04
12:44:02.562500,-3.36
12:44:02.578125,-3.45
12:44:02.593750,-3.53
12:44:02.609375,-3.82
12:44:02.625000,-4.45
12:44:02.640625,-5.45
12:44:02.656250,-6.66
12:44:02.671875,-7.90
12:44:02.687500,-8.94
12:44:02.703125,-9.61
12:44:02.718750,-9.76
12:44:02.734375,-9.31
12:44:02.750000,-8.30
12:44:02.765625,-6.88
12:44:02.781250,-5.29
12:44:02.796875,-3.77
12:44:02.812500,-2.46
12:44:02.828125,-1.40
12:44:02.843750,-0.51
12:44:02.859375,0.29
12:44:02.875000,1.06
12:44:02.890625,1.77
12:44:02.906250,2.35
12:44:02.921875,2.76
12:44:02.937500,3.04
12:44:02.953125,3.31
12:44:02.968750,3.71
12:44:02.984375,4.33
12:44:03,5.15
12:44:03.015625,6.09
12:44:03.031250,6.99
12:44:03.046875,7.77
12:44:03.062500,8.38
12:44:03.078125,8.89
12:44:03.093750,9.41
12:44:03.109375,10.04
12:44:03.125000,10.81
12:44:03.140625,11.68
12:44:03.156250,12.53
12:44:03.171875,13.21
12:44:03.187500,13.56
12:44:03.203125,13.52
12:44:03.218750,13.15
12:44:03.234375,12.56
12:44:03.250000,11.93
12:44:03.265625,11.37
12:44:03.281250,10.88
12:44:03.296875,10.37
12:44:03.312500,9.68
12:44:03.328125,8.69
12:44:03.343750,7.28
12:44:03.359375,5.39
12:44:03.375000,2.99
12:44:03.390625,0.10
12:44:03.406250,-3.15
12:44:03.421875,-6.45
12:44:03.437500,-9.39
12:44:03.453125,-11.49
12:44:03.468750,-12.39
12:44:03.484375,-11.99
12:44:03.500000,-10.47
12:44:03.515625,-8.18
12:44:03.531250,-5.56
12:44:03.546875,-2.91
12:44:03.562500,-0.43
12:44:03.578125,1.82
12:44:03.593750,3.79
12:44:03.609375,5.45
12:44:03.625000,6.73
12:44:03.640625,7.56
12:44:03.656250,7.90
12:44:03.671875,7.78
12:44:03.687500,7.32
12:44:03.703125,6.65
12:44:03.718750,5.92
12:44:03.734375,5.18
12:44:03.750000,4.42
12:44:03.765625,3.61
12:44:03.781250,2.67
12:44:03.796875,1.61
12:44:03.812500,0.46
12:44:03.828125,-0.68
12:44:03.843750,-1.71
12:44:03.859375,-2.55
12:44:03.875000,-3.11
12:44:03.890625,-3.36
12:44:03.906250,-3.24
12:44:03.921875,-2.79
12:44:03.937500,-2.09
12:44:03.953125,-1.32
12:44:03.968750,-0.69
12:44:03.984375,-0.40
12:44:04,-0.60
12:44:04.015625,-1.36
12:44:04.031250,-2.66
12:44:04.046875,-4.46
12:44:04.062500,-6.78
12:44:04.078125,-9.65
12:44:04.093750,-13.14
12:44:04.109375,-17.27
12:44:04.125000,-21.96
12:44:04.140625,-26.99
12:44:04.156250,-32.09
12:44:04.171875,-36.94
12:44:04.187500,-41.28
12:44:04.203125,-44.89
12:44:04.218750,-47.61
12:44:04.234375,-49.30
12:44:04.250000,-49.86
12:44:04.265625,-49.20
12:44:04.281250,-47.38
12:44:04.296875,-44.52
12:44:04.312500,-40.92
12:44:04.328125,-36.96
12:44:04.343750,-33.11
12:44:04.359375,-29.82
12:44:04.375000,-27.52
12:44:04.390625,-26.51
12:44:04.406250,-26.90
12:44:04.421875,-28.59
12:44:04.437500,-31.28
12:44:04.453125,-34.56
12:44:04.468750,-37.98
12:44:04.484375,-41.14
12:44:04.500000,-43.67
12:44:04.515625,-45.23
12:44:04.531250,-45.45
12:44:04.546875,-43.99
12:44:04.562500,-40.62
12:44:04.578125,-35.24
12:44:04.593750,-27.90
12:44:04.609375,-18.80
12:44:04.625000,-8.26
12:44:04.640625,3.33
12:44:04.656250,15.53
12:44:04.671875,27.87
12:44:04.687500,39.86
12:44:04.703125,51.06
12:44:04.718750,61.12
12:44:04.734375,69.65
12:44:04.750000,76.31
12:44:04.765625,80.67
12:44:04.781250,82.36
12:44:04.796875,81.16
12:44:04.812500,77.12
12:44:04.828125,70.64
12:44:04.843750,62.44
12:44:04.859375,53.39
12:44:04.875000,44.24
12:44:04.890625,35.51
12:44:04.906250,27.42
12:44:04.921875,19.92
12:44:04.937500,12.91
12:44:04.953125,6.32
12:44:04.968750,0.18
12:44:04.984375,-5.43
12:44:05,-10.41
12:44:05.015625,-14.73
12:44:05.031250,-18.33
12:44:05.046875,-21.15
12:44:05.062500,-23.01
12:44:05.078125,-23.76
12:44:05.093750,-23.30
12:44:05.109375,-21.71
12:44:05.125000,-19.30
12:44:05.140625,-16.48
12:44:05.156250,-13.65
12:44:05.171875,-11.06
12:44:05.187500,-8.83
12:44:05.203125,-6.96
12:44:05.218750,-5.41
12:44:05.234375,-4.14
12:44:05.250000,-3.10
12:44:05.265625,-2.17
12:44:05.281250,-1.13
12:44:05.296875,0.31
12:44:05.312500,2.43
12:44:05.328125,5.40
12:44:05.343750,9.26
12:44:05.359375,13.94
12:44:05.375000,19.35
12:44:05.390625,25.38
12:44:05.406250,31.91
12:44:05.421875,38.71
12:44:05.437500,45.39
12:44:05.453125,51.28
12:44:05.468750,55.62
12:44:05.484375,57.65
12:44:05.500000,56.87
12:44:05.515625,53.16
12:44:05.531250,46.88
12:44:05.546875,38.74
12:44:05.562500,29.60
12:44:05.578125,20.23
12:44:05.593750,11.14
12:44:05.609375,2.53
12:44:05.625000,-5.71
12:44:05.640625,-13.83
12:44:05.656250,-22.08
12:44:05.671875,-30.60
12:44:05.687500,-39.35
12:44:05.703125,-47.98
12:44:05.718750,-55.85
12:44:05.734375,-62.06
12:44:05.750000,-65.62
12:44:05.765625,-65.67
12:44:05.781250,-61.81
12:44:05.796875,-54.23
12:44:05.812500,-43.74
12:44:05.828125,-31.54
12:44:05.843750,-18.91
12:44:05.859375,-6.92
12:44:05.875000,3.64
12:44:05.890625,12.27
12:44:05.906250,18.70
12:44:05.921875,22.82
12:44:05.937500,24.80
12:44:05.953125,25.06
12:44:05.968750,24.29
12:44:05.984375,23.19
12:44:06,22.35
12:44:06.015625,21.97
12:44:06.031250,21.91
12:44:06.046875,21.82
12:44:06.062500,21.30
12:44:06.078125,20.14
12:44:06.093750,18.31
12:44:06.109375,15.95
12:44:06.125000,13.30
12:44:06.140625,10.62
12:44:06.156250,8.19
12:44:06.171875,6.25
12:44:06.187500,4.99
12:44:06.203125,4.52
12:44:06.218750,4.84
12:44:06.234375,5.80
12:44:06.250000,7.23
12:44:06.265625,8.87
12:44:06.281250,10.53
12:44:06.296875,12.08
12:44:06.312500,13.46
12:44:06.328125,14.71
12:44:06.343750,15.88
12:44:06.359375,17.01
12:44:06.375000,18.04
12:44:06.390625,18.81
12:44:06.406250,19.05
12:44:06.421875,18.54
12:44:06.437500,17.17
12:44:06.453125,15.07
12:44:06.468750,12.63
12:44:06.484375,10.40
12:44:06.500000,8.96
12:44:06.515625,8.75
12:44:06.531250,9.97
12:44:06.546875,12.48
12:44:06.562500,15.95
12:44:06.578125,19.95
12:44:06.593750,24.14
12:44:06.609375,28.35
12:44:06.625000,32.59
12:44:06.640625,36.93
12:44:06.656250,41.45
12:44:06.671875,46.12
12:44:06.687500,50.81
12:44:06.703125,55.41
12:44:06.718750,59.88
12:44:06.734375,64.36
12:44:06.750000,69.12
12:44:06.765625,74.45
12:44:06.781250,80.55
12:44:06.796875,87.39
12:44:06.812500,94.73
12:44:06.828125,102.18
12:44:06.843750,109.39
12:44:06.859375,116.21
12:44:06.875000,122.70
12:44:06.890625,129.18
12:44:06.906250,136.08
12:44:06.921875,143.90
12:44:06.937500,153.02
12:44:06.953125,163.69
12:44:06.968750,175.86
12:44:06.984375,189.11
12:44:07,202.59
12:44:07.015625,215.07
12:44:07.031250,225.01
12:44:07.046875,230.76
12:44:07.062500,230.75
12:44:07.078125,223.66
12:44:07.093750,208.70
12:44:07.109375,185.69
12:44:07.125000,155.29
12:44:07.140625,119.02
12:44:07.156250,79.04
12:44:07.171875,37.80
12:44:07.187500,-2.59
12:44:07.203125,-40.85
12:44:07.218750,-76.81
12:44:07.234375,-111.37
12:44:07.250000,-146.23
12:44:07.265625,-183.55
12:44:07.281250,-225.34
12:44:07.296875,-272.58
12:44:07.312500,-324.16
12:44:07.328125,-376.08
12:44:07.343750,-421.80
12:44:07.359375,-453.75
12:44:07.375000,-465.91
12:44:07.390625,-456.15
12:44:07.406250,-427.25
12:44:07.421875,-385.85
12:44:07.437500,-339.86
12:44:07.453125,-295.53
12:44:07.468750,-255.76
12:44:07.484375,-220.23
12:44:07.500000,-187.02
12:44:07.515625,-154.59
12:44:07.531250,-122.92
12:44:07.546875,-93.25
12:44:07.562500,-67.08
12:44:07.578125,-45.10
12:44:07.593750,-26.80
12:44:07.609375,-11.02
12:44:07.625000,3.21
12:44:07.640625,16.04
12:44:07.656250,26.66
12:44:07.671875,33.90
12:44:07.687500,37.08
12:44:07.703125,36.48
12:44:07.718750,33.47
12:44:07.734375,29.91
12:44:07.750000,27.38
12:44:07.765625,26.60
12:44:07.781250,27.29
12:44:07.796875,28.57
12:44:07.812500,29.53
12:44:07.828125,29.79
12:44:07.843750,29.60
12:44:07.859375,29.55
12:44:07.875000,30.21
12:44:07.890625,31.74
12:44:07.906250,33.86
12:44:07.921875,35.97
12:44:07.937500,37.45
12:44:07.953125,37.91
12:44:07.968750,37.27
12:44:07.984375,35.79
12:44:08,33.87
12:44:08.015625,31.96
12:44:08.031250,30.38
12:44:08.046875,29.25
12:44:08.062500,28.42
12:44:08.078125,27.55
12:44:08.093750,26.22
12:44:08.109375,24.08
12:44:08.125000,20.97
12:44:08.140625,17.05
12:44:08.156250,12.73
12:44:08.171875,8.59
12:44:08.187500,5.21
12:44:08.203125,3.00
12:44:08.218750,2.02
12:44:08.234375,2.01
12:44:08.250000,2.42
12:44:08.265625,2.59
12:44:08.281250,2.01
12:44:08.296875,0.44
12:44:08.312500,-2.03
12:44:08.328125,-4.97
12:44:08.343750,-7.82
12:44:08.359375,-10.01
12:44:08.375000,-11.16
12:44:08.390625,-11.09
12:44:08.406250,-9.87
12:44:08.421875,-7.75
12:44:08.437500,-5.11
12:44:08.453125,-2.36
12:44:08.468750,0.22
12:44:08.484375,2.51
12:44:08.500000,4.55
12:44:08.515625,6.51
12:44:08.531250,8.58
12:44:08.546875,10.83
12:44:08.562500,13.27
12:44:08.578125,15.78
12:44:08.593750,18.24
12:44:08.609375,20.58
12:44:08.625000,22.78
12:44:08.640625,24.84
12:44:08.656250,26.70
12:44:08.671875,28.24
12:44:08.687500,29.33
12:44:08.703125,29.91
12:44:08.718750,30.01
12:44:08.734375,29.82
12:44:08.750000,29.53
12:44:08.765625,29.23
12:44:08.781250,28.81
12:44:08.796875,27.90
12:44:08.812500,26.02
12:44:08.828125,22.77
12:44:08.843750,18.06
12:44:08.859375,12.23
12:44:08.875000,5.94
12:44:08.890625,0.01
12:44:08.906250,-4.82
12:44:08.921875,-8.14
12:44:08.937500,-9.95
12:44:08.953125,-10.68
12:44:08.968750,-11.05
12:44:08.984375,-11.81
12:44:09,-13.45
12:44:09.015625,-16.04
12:44:09.031250,-19.17
12:44:09.046875,-22.11
12:44:09.062500,-24.16
12:44:09.078125,-24.95
12:44:09.093750,-24.61
12:44:09.109375,-23.67
12:44:09.125000,-22.81
12:44:09.140625,-22.56
12:44:09.156250,-23.14
12:44:09.171875,-24.40
12:44:09.187500,-26.04
12:44:09.203125,-27.81
12:44:09.218750,-29.54
12:44:09.234375,-31.13
12:44:09.250000,-32.36
12:44:09.265625,-32.82
12:44:09.281250,-31.92
12:44:09.296875,-29.25
12:44:09.312500,-24.82
12:44:09.328125,-19.30
12:44:09.343750,-13.81
12:44:09.359375,-9.49
12:44:09.375000,-6.96
12:44:09.390625,-5.92
12:44:09.406250,-5.42
12:44:09.421875,-4.39
12:44:09.437500,-2.35
12:44:09.453125,0.21
12:44:09.468750,2.04
12:44:09.484375,1.93
12:44:09.500000,-0.47
12:44:09.515625,-4.33
12:44:09.531250,-8.06
12:44:09.546875,-10.22
12:44:09.562500,-10.44
12:44:09.578125,-9.62
12:44:09.593750,-9.26
12:44:09.609375,-10.32
12:44:09.625000,-12.45
12:44:09.640625,-14.05
12:44:09.656250,-13.34
12:44:09.671875,-9.69
12:44:09.687500,-4.26
12:44:09.703125,0.51
12:44:09.718750,2.31
12:44:09.734375,0.37
12:44:09.750000,-4.06
12:44:09.765625,-8.52
12:44:09.781250,-10.82
12:44:09.796875,-10.19
12:44:09.812500,-7.52
12:44:09.828125,-4.53
12:44:09.843750,-2.54
12:44:09.859375,-1.84
12:44:09.875000,-1.74
12:44:09.890625,-1.28
12:44:09.906250,0.00
12:44:09.921875,1.82
12:44:09.937500,3.39
12:44:09.953125,4.01
12:44:09.968750,3.48
12:44:09.984375,2.16
12:44:10,0.72
12:44:10.015625,-0.16
12:44:10.031250,-0.09
12:44:10.046875,0.97
12:44:10.062500,2.77
12:44:10.078125,4.91
12:44:10.093750,7.07
12:44:10.109375,9.08
12:44:10.125000,11.00
12:44:10.140625,12.96
12:44:10.156250,15.11
12:44:10.171875,17.37
12:44:10.187500,19.49
12:44:10.203125,21.10
12:44:10.218750,21.87
12:44:10.234375,21.67
12:44:10.250000,20.63
12:44:10.265625,19.09
12:44:10.281250,17.47
12:44:10.296875,16.15
12:44:10.312500,15.34
12:44:10.328125,15.07
12:44:10.343750,15.20
12:44:10.359375,15.47
12:44:10.375000,15.57
12:44:10.390625,15.20
12:44:10.406250,14.11
12:44:10.421875,12.21
12:44:10.437500,9.55
12:44:10.453125,6.38
12:44:10.468750,3.12
12:44:10.484375,0.21
12:44:10.500000,-2.02
12:44:10.515625,-3.47
12:44:10.531250,-4.25
12:44:10.546875,-4.57
12:44:10.562500,-4.68
12:44:10.578125,-4.67
12:44:10.593750,-4.47
12:44:10.609375,-3.93
12:44:10.625000,-2.88
12:44:10.640625,-1.31
12:44:10.656250,0.74
12:44:10.671875,3.03
12:44:10.687500,5.33
12:44:10.703125,7.38
12:44:10.718750,9.06
12:44:10.734375,10.34
12:44:10.750000,11.32
12:44:10.765625,12.18
12:44:10.781250,13.07
12:44:10.796875,14.09
12:44:10.812500,15.23
12:44:10.828125,16.42
12:44:10.843750,17.51
12:44:10.859375,18.39
12:44:10.875000,18.89
12:44:10.890625,18.89
12:44:10.906250,18.23
12:44:10.921875,16.77
12:44:10.937500,14.46
12:44:10.953125,11.34
12:44:10.968750,7.56
12:44:10.984375,3.36
12:44:11,-0.99
12:44:11.015625,-5.22
12:44:11.031250,-9.18
12:44:11.046875,-12.79
12:44:11.062500,-16.06
12:44:11.078125,-19.04
12:44:11.093750,-21.79
12:44:11.109375,-24.32
12:44:11.125000,-26.58
12:44:11.140625,-28.43
12:44:11.156250,-29.71
12:44:11.171875,-30.25
12:44:11.187500,-29.97
12:44:11.203125,-28.88
12:44:11.218750,-27.06
12:44:11.234375,-24.73
12:44:11.250000,-22.10
12:44:11.265625,-19.38
12:44:11.281250,-16.75
12:44:11.296875,-14.30
12:44:11.312500,-12.08
12:44:11.328125,-10.13
12:44:11.343750,-8.50
12:44:11.359375,-7.29
12:44:11.375000,-6.64
12:44:11.390625,-6.71
12:44:11.406250,-7.58
12:44:11.421875,-9.25
12:44:11.437500,-11.59
12:44:11.453125,-14.42
12:44:11.468750,-17.49
12:44:11.484375,-20.57
12:44:11.500000,-23.52
12:44:11.515625,-26.35
12:44:11.531250,-29.14
12:44:11.546875,-31.92
12:44:11.562500,-34.52
12:44:11.578125,-36.53
12:44:11.593750,-37.38
12:44:11.609375,-36.59
12:44:11.625000,-33.99
12:44:11.640625,-29.85
12:44:11.656250,-24.83
12:44:11.671875,-19.61
12:44:11.687500,-14.72
12:44:11.703125,-10.28
12:44:11.718750,-6.16
12:44:11.734375,-2.15
12:44:11.750000,1.91
12:44:11.765625,6.01
12:44:11.781250,10.08
12:44:11.796875,14.04
12:44:11.812500,17.87
12:44:11.828125,21.52
12:44:11.843750,24.86
12:44:11.859375,27.74
12:44:11.875000,29.99
12:44:11.890625,31.58
12:44:11.906250,32.59
12:44:11.921875,33.19
12:44:11.937500,33.64
12:44:11.953125,34.13
12:44:11.968750,34.82
12:44:11.984375,35.79
12:44:12,37.07
12:44:12.015625,38.59
12:44:12.031250,40.16
12:44:12.046875,41.59
12:44:12.062500,42.66
12:44:12.078125,43.25
12:44:12.093750,43.33
12:44:12.109375,43.00
12:44:12.125000,42.37
12:44:12.140625,41.55
12:44:12.156250,40.53
12:44:12.171875,39.30
12:44:12.187500,37.79
12:44:12.203125,35.98
12:44:12.218750,33.92
12:44:12.234375,31.74
12:44:12.250000,29.62
12:44:12.265625,27.69
12:44:12.281250,26.04
12:44:12.296875,24.61
12:44:12.312500,23.32
12:44:12.328125,22.05
12:44:12.343750,20.72
12:44:12.359375,19.29
12:44:12.375000,17.76
12:44:12.390625,16.15
12:44:12.406250,14.55
12:44:12.421875,13.11
12:44:12.437500,11.98
12:44:12.453125,11.34
12:44:12.468750,11.21
12:44:12.484375,11.47
12:44:12.500000,11.76
12:44:12.515625,11.64
12:44:12.531250,10.69
12:44:12.546875,8.68
12:44:12.562500,5.69
12:44:12.578125,2.09
12:44:12.593750,-1.57
12:44:12.609375,-4.74
12:44:12.625000,-7.01
12:44:12.640625,-8.25
12:44:12.656250,-8.58
12:44:12.671875,-8.24
12:44:12.687500,-7.49
12:44:12.703125,-6.55
12:44:12.718750,-5.59
12:44:12.734375,-4.78
12:44:12.750000,-4.29
12:44:12.765625,-4.23
12:44:12.781250,-4.58
12:44:12.796875,-5.14
12:44:12.812500,-5.62
12:44:12.828125,-5.75
12:44:12.843750,-5.49
12:44:12.859375,-4.98
12:44:12.875000,-4.49
12:44:12.890625,-4.24
12:44:12.906250,-4.25
12:44:12.921875,-4.37
12:44:12.937500,-4.33
12:44:12.953125,-3.93
12:44:12.968750,-3.19
12:44:12.984375,-2.24
12:44:13,-1.34
12:44:13.015625,-0.67
12:44:13.031250,-0.30
12:44:13.046875,-0.20
12:44:13.062500,-0.25
12:44:13.078125,-0.32
12:44:13.093750,-0.39
12:44:13.109375,-0.48
12:44:13.125000,-0.64
12:44:13.140625,-0.99
12:44:13.156250,-1.53
12:44:13.171875,-2.27
12:44:13.187500,-3.13
12:44:13.203125,-4.03
12:44:13.218750,-4.89
12:44:13.234375,-5.76
12:44:13.250000,-6.72
12:44:13.265625,-7.96
12:44:13.281250,-9.63
12:44:13.296875,-11.78
12:44:13.312500,-14.30
12:44:13.328125,-16.88
12:44:13.343750,-19.18
12:44:13.359375,-20.80
12:44:13.375000,-21.58
12:44:13.390625,-21.47
12:44:13.406250,-20.59
12:44:13.421875,-19.08
12:44:13.437500,-17.07
12:44:13.453125,-14.59
12:44:13.468750,-11.69
12:44:13.484375,-8.46
12:44:13.500000,-5.07
12:44:13.515625,-1.76
12:44:13.531250,1.20
12:44:13.546875,3.64
12:44:13.562500,5.47
12:44:13.578125,6.69
12:44:13.593750,7.41
12:44:13.609375,7.75
12:44:13.625000,7.82
12:44:13.640625,7.74
12:44:13.656250,7.58
12:44:13.671875,7.39
12:44:13.687500,7.19
12:44:13.703125,7.01
12:44:13.718750,6.83
12:44:13.734375,6.68
12:44:13.750000,6.58
12:44:13.765625,6.55
12:44:13.781250,6.57
12:44:13.796875,6.59
12:44:13.812500,6.53
12:44:13.828125,6.33
12:44:13.843750,5.95
12:44:13.859375,5.40
12:44:13.875000,4.72
12:44:13.890625,3.96
12:44:13.906250,3.20
12:44:13.921875,2.49
12:44:13.937500,1.85
12:44:13.953125,1.22
12:44:13.968750,0.46
12:44:13.984375,-0.62
12:44:14,-2.17
12:44:14.015625,-4.22
12:44:14.031250,-6.65
12:44:14.046875,-9.22
12:44:14.062500,-11.62
12:44:14.078125,-13.57
12:44:14.093750,-14.90
12:44:14.109375,-15.50
12:44:14.125000,-15.36
12:44:14.140625,-14.55
12:44:14.156250,-13.27
12:44:14.171875,-11.75
12:44:14.187500,-10.26
12:44:14.203125,-8.90
12:44:14.218750,-7.63
12:44:14.234375,-6.24
12:44:14.250000,-4.54
12:44:14.265625,-2.46
12:44:14.281250,-0.12
12:44:14.296875,2.19
12:44:14.312500,4.17
12:44:14.328125,5.64
12:44:14.343750,6.57
12:44:14.359375,7.11
12:44:14.375000,7.44
12:44:14.390625,7.67
12:44:14.406250,7.80
12:44:14.421875,7.72
12:44:14.437500,7.30
12:44:14.453125,6.52
12:44:14.468750,5.47
12:44:14.484375,4.39
12:44:14.500000,3.49
12:44:14.515625,2.92
12:44:14.531250,2.68
12:44:14.546875,2.64
12:44:14.562500,2.59
12:44:14.578125,2.42
12:44:14.593750,2.03
12:44:14.609375,1.38
12:44:14.625000,0.45
12:44:14.640625,-0.77
12:44:14.656250,-2.25
12:44:14.671875,-3.80
12:44:14.687500,-5.10
12:44:14.703125,-5.73
12:44:14.718750,-5.46
12:44:14.734375,-4.29
12:44:14.750000,-2.60
12:44:14.765625,-0.97
12:44:14.781250,-0.01
12:44:14.796875,-0.06
12:44:14.812500,-1.10
12:44:14.828125,-2.77
12:44:14.843750,-4.56
12:44:14.859375,-6.03
12:44:14.875000,-6.92
12:44:14.890625,-7.18
12:44:14.906250,-6.91
12:44:14.921875,-6.23
12:44:14.937500,-5.18
12:44:14.953125,-3.83
12:44:14.968750,-2.21
12:44:14.984375,-0.45
12:44:15,1.24
12:44:15.015625,2.68
12:44:15.031250,3.75
12:44:15.046875,4.54
12:44:15.062500,5.28
12:44:15.078125,6.25
12:44:15.093750,7.71
12:44:15.109375,9.72
12:44:15.125000,12.18
12:44:15.140625,14.80
12:44:15.156250,17.25
12:44:15.171875,19.20
12:44:15.187500,20.44
12:44:15.203125,20.84
12:44:15.218750,20.43
12:44:15.234375,19.29
12:44:15.250000,17.60
12:44:15.265625,15.53
12:44:15.281250,13.24
12:44:15.296875,10.87
12:44:15.312500,8.47
12:44:15.328125,6.12
12:44:15.343750,3.85
12:44:15.359375,1.72
12:44:15.375000,-0.25
12:44:15.390625,-2.00
12:44:15.406250,-3.43
12:44:15.421875,-4.38
12:44:15.437500,-4.67
12:44:15.453125,-4.20
12:44:15.468750,-3.03
12:44:15.484375,-1.43
12:44:15.500000,0.14
12:44:15.515625,1.25
12:44:15.531250,1.67
12:44:15.546875,1.41
12:44:15.562500,0.74
12:44:15.578125,-0.03
12:44:15.593750,-0.60
12:44:15.609375,-0.87
12:44:15.625000,-0.84
12:44:15.640625,-0.60
12:44:15.656250,-0.27
12:44:15.671875,0.07
12:44:15.687500,0.35
12:44:15.703125,0.53
12:44:15.718750,0.58
12:44:15.734375,0.50
12:44:15.750000,0.34
12:44:15.765625,0.15
12:44:15.781250,0.00
12:44:15.796875,-0.05
12:44:15.812500,0.02
12:44:15.828125,0.24
12:44:15.843750,0.66
12:44:15.859375,1.35
12:44:15.875000,2.36
12:44:15.890625,3.77
12:44:15.906250,5.56
12:44:15.921875,7.63
12:44:15.937500,9.77
12:44:15.953125,11.69
12:44:15.968750,13.06
12:44:15.984375,13.62
12:44:16,13.27
12:44:16.015625,11.98
12:44:16.031250,9.85
12:44:16.046875,7.01
12:44:16.062500,3.60
12:44:16.078125,-0.23
12:44:16.093750,-4.25
12:44:16.109375,-8.19
12:44:16.125000,-11.75
12:44:16.140625,-14.68
12:44:16.156250,-16.84
12:44:16.171875,-18.27
12:44:16.187500,-19.21
12:44:16.203125,-19.94
12:44:16.218750,-20.74
12:44:16.234375,-21.74
12:44:16.250000,-22.81
12:44:16.265625,-23.68
12:44:16.281250,-23.97
12:44:16.296875,-23.38
12:44:16.312500,-21.76
12:44:16.328125,-19.20
12:44:16.343750,-15.97
12:44:16.359375,-12.42
12:44:16.375000,-8.93
12:44:16.390625,-5.79
12:44:16.406250,-3.20
12:44:16.421875,-1.23
12:44:16.437500,0.09
12:44:16.453125,0.80
12:44:16.468750,0.92
12:44:16.484375,0.53
12:44:16.500000,-0.27
12:44:16.515625,-1.30
12:44:16.531250,-2.33
12:44:16.546875,-3.15
12:44:16.562500,-3.63
12:44:16.578125,-3.77
12:44:16.593750,-3.70
12:44:16.609375,-3.51
12:44:16.625000,-3.25
12:44:16.640625,-2.80
12:44:16.656250,-1.94
12:44:16.671875,-0.45
12:44:16.687500,1.78
12:44:16.703125,4.64
12:44:16.718750,7.81
12:44:16.734375,10.84
12:44:16.750000,13.23
12:44:16.765625,14.59
12:44:16.781250,14.73
12:44:16.796875,13.72
12:44:16.812500,11.78
12:44:16.828125,9.28
12:44:16.843750,6.61
12:44:16.859375,4.01
12:44:16.875000,1.57
12:44:16.890625,-0.78
12:44:16.906250,-3.19
12:44:16.921875,-5.76
12:44:16.937500,-8.53
12:44:16.953125,-11.38
12:44:16.968750,-14.09
12:44:16.984375,-16.41
12:44:17,-18.10
12:44:17.015625,-18.97
12:44:17.031250,-18.91
12:44:17.046875,-17.90
12:44:17.062500,-15.98
12:44:17.078125,-13.25
12:44:17.093750,-9.89
12:44:17.109375,-6.16
12:44:17.125000,-2.40
12:44:17.140625,1.07
12:44:17.156250,4.00
12:44:17.171875,6.25
12:44:17.187500,7.80
12:44:17.203125,8.74
12:44:17.218750,9.17
12:44:17.234375,9.12
12:44:17.250000,8.60
12:44:17.265625,7.55
12:44:17.281250,5.96
12:44:17.296875,3.87
12:44:17.312500,1.44
12:44:17.328125,-1.07
12:44:17.343750,-3.34
12:44:17.359375,-5.10
12:44:17.375000,-6.18
12:44:17.390625,-6.55
12:44:17.406250,-6.33
12:44:17.421875,-5.71
12:44:17.437500,-4.86
12:44:17.453125,-3.83
12:44:17.468750,-2.61
12:44:17.484375,-1.17
12:44:17.500000,0.42
12:44:17.515625,1.97
12:44:17.531250,3.21
12:44:17.546875,3.93
12:44:17.562500,4.03
12:44:17.578125,3.56
12:44:17.593750,2.63
12:44:17.609375,1.33
12:44:17.625000,-0.42
12:44:17.640625,-2.76
12:44:17.656250,-5.88
12:44:17.671875,-9.76
12:44:17.687500,-14.18
12:44:17.703125,-18.65
12:44:17.718750,-22.63
12:44:17.734375,-25.56
12:44:17.750000,-27.17
12:44:17.765625,-27.41
12:44:17.781250,-26.47
12:44:17.796875,-24.68
12:44:17.812500,-22.33
12:44:17.828125,-19.65
12:44:17.843750,-16.73
12:44:17.859375,-13.59
12:44:17.875000,-10.23
12:44:17.890625,-6.71
12:44:17.906250,-3.18
12:44:17.921875,0.14
12:44:17.937500,2.98
12:44:17.953125,5.11
12:44:17.968750,6.34
12:44:17.984375,6.56
12:44:18,5.84
12:44:18.015625,4.40
12:44:18.031250,2.59
12:44:18.046875,0.81
12:44:18.062500,-0.58
12:44:18.078125,-1.38
12:44:18.093750,-1.51
12:44:18.109375,-1.10
12:44:18.125000,-0.31
12:44:18.140625,0.66
12:44:18.156250,1.66
12:44:18.171875,2.61
12:44:18.187500,3.50
12:44:18.203125,4.37
12:44:18.218750,5.30
12:44:18.234375,6.43
12:44:18.250000,7.81
12:44:18.265625,9.47
12:44:18.281250,11.28
12:44:18.296875,13.08
12:44:18.312500,14.58
12:44:18.328125,15.53
12:44:18.343750,15.67
12:44:18.359375,14.83
12:44:18.375000,12.94
12:44:18.390625,10.12
12:44:18.406250,6.56
12:44:18.421875,2.62
12:44:18.437500,-1.33
12:44:18.453125,-4.88
12:44:18.468750,-7.68
12:44:18.484375,-9.44
12:44:18.500000,-9.97
12:44:18.515625,-9.19
12:44:18.531250,-7.17
12:44:18.546875,-4.09
12:44:18.562500,-0.32
12:44:18.578125,3.70
12:44:18.593750,7.54
12:44:18.609375,10.93
12:44:18.625000,13.82
12:44:18.640625,16.38
12:44:18.656250,18.88
12:44:18.671875,21.56
12:44:18.687500,24.45
12:44:18.703125,27.34
12:44:18.718750,29.82
12:44:18.734375,31.52
12:44:18.750000,32.22
12:44:18.765625,31.93
12:44:18.781250,30.86
12:44:18.796875,29.24
12:44:18.812500,27.21
12:44:18.828125,24.81
12:44:18.843750,21.97
12:44:18.859375,18.67
12:44:18.875000,15.01
12:44:18.890625,11.18
12:44:18.906250,7.41
12:44:18.921875,3.85
12:44:18.937500,0.55
12:44:18.953125,-2.46
12:44:18.968750,-5.07
12:44:18.984375,-7.10
12:44:19,-8.30
12:44:19.015625,-8.50
12:44:19.031250,-7.72
12:44:19.046875,-6.19
12:44:19.062500,-4.34
12:44:19.078125,-2.55
12:44:19.093750,-1.15
12:44:19.109375,-0.32
12:44:19.125000,-0.11
12:44:19.140625,-0.50
12:44:19.156250,-1.40
12:44:19.171875,-2.59
12:44:19.187500,-3.85
12:44:19.203125,-4.88
12:44:19.218750,-5.49
12:44:19.234375,-5.61
12:44:19.250000,-5.34
12:44:19.265625,-4.89
12:44:19.281250,-4.46
12:44:19.296875,-4.15
12:44:19.312500,-3.93
12:44:19.328125,-3.68
12:44:19.343750,-3.25
12:44:19.359375,-2.52
12:44:19.375000,-1.44
12:44:19.390625,-0.07
12:44:19.406250,1.51
12:44:19.421875,3.15
12:44:19.437500,4.72
12:44:19.453125,6.11
12:44:19.468750,7.30
12:44:19.484375,8.32
12:44:19.500000,9.18
12:44:19.515625,9.84
12:44:19.531250,10.14
12:44:19.546875,9.84
12:44:19.562500,8.72
12:44:19.578125,6.72
12:44:19.593750,3.98
12:44:19.609375,0.82
12:44:19.625000,-2.42
12:44:19.640625,-5.51
12:44:19.656250,-8.35
12:44:19.671875,-10.98
12:44:19.687500,-13.40
12:44:19.703125,-15.53
12:44:19.718750,-17.22
12:44:19.734375,-18.38
12:44:19.750000,-19.10
12:44:19.765625,-19.70
12:44:19.781250,-20.48
12:44:19.796875,-21.57
12:44:19.812500,-22.78
12:44:19.828125,-23.58
12:44:19.843750,-23.43
12:44:19.859375,-21.98
12:44:19.875000,-19.30
12:44:19.890625,-15.85
12:44:19.906250,-12.28
12:44:19.921875,-9.15
12:44:19.937500,-6.74
12:44:19.953125,-5.05
12:44:19.968750,-3.87
12:44:19.984375,-2.95
12:44:20,-2.16
12:44:20.015625,-1.46
12:44:20.031250,-0.93
12:44:20.046875,-0.67
12:44:20.062500,-0.68
12:44:20.078125,-0.89
12:44:20.093750,-1.17
12:44:20.109375,-1.32
12:44:20.125000,-1.19
12:44:20.140625,-0.72
12:44:20.156250,0.06
12:44:20.171875,1.07
12:44:20.187500,2.26
12:44:20.203125,3.68
12:44:20.218750,5.45
12:44:20.234375,7.66
12:44:20.250000,10.22
12:44:20.265625,12.83
12:44:20.281250,15.01
12:44:20.296875,16.31
12:44:20.312500,16.44
12:44:20.328125,15.41
12:44:20.343750,13.48
12:44:20.359375,11.00
12:44:20.375000,8.31
12:44:20.390625,5.61
12:44:20.406250,2.94
12:44:20.421875,0.23
12:44:20.437500,-2.65
12:44:20.453125,-5.80
12:44:20.468750,-9.26
12:44:20.484375,-12.92
12:44:20.500000,-16.51
12:44:20.515625,-19.63
12:44:20.531250,-21.81
12:44:20.546875,-22.67
12:44:20.562500,-22.05
12:44:20.578125,-20.00
12:44:20.593750,-16.81
12:44:20.609375,-12.90
12:44:20.625000,-8.69
12:44:20.640625,-4.54
12:44:20.656250,-0.72
12:44:20.671875,2.58
12:44:20.687500,5.26
12:44:20.703125,7.24
12:44:20.718750,8.48
12:44:20.734375,8.98
12:44:20.750000,8.79
12:44:20.765625,7.97
12:44:20.781250,6.66
12:44:20.796875,5.03
12:44:20.812500,3.29
12:44:20.828125,1.62
12:44:20.843750,0.19
12:44:20.859375,-0.92
12:44:20.875000,-1.69
12:44:20.890625,-2.15
12:44:20.906250,-2.32
12:44:20.921875,-2.20
12:44:20.937500,-1.77
12:44:20.953125,-1.00
12:44:20.968750,0.11
12:44:20.984375,1.47
12:44:21,2.94
12:44:21.015625,4.31
12:44:21.031250,5.39
12:44:21.046875,6.06
12:44:21.062500,6.26
12:44:21.078125,6.03
12:44:21.093750,5.45
12:44:21.109375,4.60
12:44:21.125000,3.47
12:44:21.140625,1.99
12:44:21.156250,0.01
12:44:21.171875,-2.58
12:44:21.187500,-5.73
12:44:21.203125,-9.22
12:44:21.218750,-12.65
12:44:21.234375,-15.55
12:44:21.250000,-17.57
12:44:21.265625,-18.51
12:44:21.281250,-18.33
12:44:21.296875,-17.13
12:44:21.312500,-14.98
12:44:21.328125,-11.94
12:44:21.343750,-8.08
12:44:21.359375,-3.58
12:44:21.375000,1.31
12:44:21.390625,6.24
12:44:21.406250,10.82
12:44:21.421875,14.79
12:44:21.437500,17.94
12:44:21.453125,20.17
12:44:21.468750,21.40
12:44:21.484375,21.62
12:44:21.500000,20.86
12:44:21.515625,19.20
12:44:21.531250,16.79
12:44:21.546875,13.84
12:44:21.562500,10.61
12:44:21.578125,7.39
12:44:21.593750,4.51
12:44:21.609375,2.25
12:44:21.625000,0.79
12:44:21.640625,0.17
12:44:21.656250,0.23
12:44:21.671875,0.70
12:44:21.687500,1.31
12:44:21.703125,1.90
12:44:21.718750,2.50
12:44:21.734375,3.28
12:44:21.750000,4.43
12:44:21.765625,6.00
12:44:21.781250,7.87
12:44:21.796875,9.71
12:44:21.812500,11.17
12:44:21.828125,11.90
12:44:21.843750,11.69
12:44:21.859375,10.45
12:44:21.875000,8.20
12:44:21.890625,5.01
12:44:21.906250,1.01
12:44:21.921875,-3.51
12:44:21.937500,-8.15
12:44:21.953125,-12.37
12:44:21.968750,-15.68
12:44:21.984375,-17.68
12:44:22,-18.29
12:44:22.015625,-17.71
12:44:22.031250,-16.30
12:44:22.046875,-14.41
12:44:22.062500,-12.20
12:44:22.078125,-9.62
12:44:22.093750,-6.42
12:44:22.109375,-2.46
12:44:22.125000,2.18
12:44:22.140625,7.07
12:44:22.156250,11.53
12:44:22.171875,14.85
12:44:22.187500,16.51
12:44:22.203125,16.38
12:44:22.218750,14.75
12:44:22.234375,12.08
12:44:22.250000,8.89
12:44:22.265625,5.57
12:44:22.281250,2.28
12:44:22.296875,-1.11
12:44:22.312500,-4.82
12:44:22.328125,-9.04
12:44:22.343750,-13.71
12:44:22.359375,-18.44
12:44:22.375000,-22.66
12:44:22.390625,-25.76
12:44:22.406250,-27.41
12:44:22.421875,-27.78
12:44:22.437500,-27.57
12:44:22.453125,-27.76
12:44:22.468750,-29.10
12:44:22.484375,-31.74
12:44:22.500000,-34.92
12:44:22.515625,-37.54
12:44:22.531250,-38.41
12:44:22.546875,-37.05
12:44:22.562500,-34.15
12:44:22.578125,-31.45
12:44:22.593750,-31.18
12:44:22.609375,-35.11
12:44:22.625000,-43.55
12:44:22.640625,-54.49
12:44:22.656250,-64.40
12:44:22.671875,-68.02
12:44:22.687500,-59.65
12:44:22.703125,-34.58
12:44:22.718750,9.06
12:44:22.734375,68.65
12:44:22.750000,136.54
12:44:22.765625,201.07
12:44:22.781250,250.29
12:44:22.796875,274.00
12:44:22.812500,268.69
12:44:22.828125,237.89
12:44:22.843750,190.35
12:44:22.859375,136.25
12:44:22.875000,83.42
12:44:22.890625,35.31
12:44:22.906250,-8.70
12:44:22.921875,-50.23
12:44:22.937500,-92.74
12:44:22.953125,-137.65
12:44:22.968750,-184.85
12:44:22.984375,-232.73
12:44:23,-278.15
12:44:23.015625,-316.40
12:44:23.031250,-341.60
12:44:23.046875,-348.31
12:44:23.062500,-332.06
12:44:23.078125,-294.44
12:44:23.093750,-239.63
12:44:23.109375,-173.75
12:44:23.125000,-102.46
12:44:23.140625,-28.94
12:44:23.156250,46.18
12:44:23.171875,123.22
12:44:23.187500,192.63
12:44:23.203125,258.14
12:44:23.218750,311.84
12:44:23.234375,346.82
12:44:23.250000,359.16
12:44:23.265625,349.84
12:44:23.281250,324.60
12:44:23.296875,291.63
12:44:23.312500,258.61
12:44:23.328125,230.27
12:44:23.343750,209.21
12:44:23.359375,193.33
12:44:23.375000,180.97
12:44:23.390625,171.19
12:44:23.406250,163.73
12:44:23.421875,158.21
12:44:23.437500,153.23
12:44:23.453125,146.33
12:44:23.468750,134.91
12:44:23.484375,118.53
12:44:23.500000,97.00
12:44:23.515625,72.90
12:44:23.531250,49.82
12:44:23.546875,30.81
12:44:23.562500,17.12
12:44:23.578125,7.80
12:44:23.593750,0.21
12:44:23.609375,-8.76
12:44:23.625000,-20.79
12:44:23.640625,-37.20
12:44:23.656250,-57.24
12:44:23.671875,-79.21
12:44:23.687500,-101.23
12:44:23.703125,-121.70
12:44:23.718750,-139.54
12:44:23.734375,-154.13
12:44:23.750000,-165.30
12:44:23.765625,-173.09
12:44:23.781250,-178.63
12:44:23.796875,-183.20
12:44:23.812500,-188.17
12:44:23.828125,-194.50
12:44:23.843750,-202.57
12:44:23.859375,-212.19
12:44:23.875000,-222.87
12:44:23.890625,-234.12
12:44:23.906250,-245.51
12:44:23.921875,-256.85
12:44:23.937500,-267.69
12:44:23.953125,-277.30
12:44:23.968750,-284.75
12:44:23.984375,-289.09
12:44:24,-289.59
12:44:24.015625,-285.88
12:44:24.031250,-277.94
12:44:24.046875,-266.21
12:44:24.062500,-251.63
12:44:24.078125,-235.53
12:44:24.093750,-219.40
12:44:24.109375,-204.25
12:44:24.125000,-189.93
12:44:24.140625,-174.96
12:44:24.156250,-156.68
12:44:24.171875,-132.14
12:44:24.187500,-99.09
12:44:24.203125,-56.93
12:44:24.218750,-7.04
12:44:24.234375,47.40
12:44:24.250000,102.30
12:44:24.265625,153.75
12:44:24.281250,198.81
12:44:24.296875,235.96
12:44:24.312500,264.88
12:44:24.328125,286.00
12:44:24.343750,300.02
12:44:24.359375,307.65
12:44:24.375000,309.76
12:44:24.390625,307.38
12:44:24.406250,301.73
12:44:24.421875,293.81
12:44:24.437500,283.95
12:44:24.453125,271.60
12:44:24.468750,255.62
12:44:24.484375,234.97
12:44:24.500000,209.37
12:44:24.515625,179.72
12:44:24.531250,147.68
12:44:24.546875,115.04
12:44:24.562500,83.03
12:44:24.578125,52.04
12:44:24.593750,21.92
12:44:24.609375,-7.52
12:44:24.625000,-35.89
12:44:24.640625,-62.02
12:44:24.656250,-84.08
12:44:24.671875,-100.18
12:44:24.687500,-108.91
12:44:24.703125,-109.86
12:44:24.718750,-103.74
12:44:24.734375,-92.29
12:44:24.750000,-77.84
12:44:24.765625,-62.78
12:44:24.781250,-49.03
12:44:24.796875,-37.78
12:44:24.812500,-29.38
12:44:24.828125,-23.41
12:44:24.843750,-19.08
12:44:24.859375,-15.52
12:44:24.875000,-12.12
12:44:24.890625,-8.79
12:44:24.906250,-6.02
12:44:24.921875,-4.66
12:44:24.937500,-5.71
12:44:24.953125,-9.90
12:44:24.968750,-17.33
12:44:24.984375,-27.11
12:44:25,-37.19
12:44:25.015625,-44.71
12:44:25.031250,-46.89
12:44:25.046875,-42.19
12:44:25.062500,-31.26
12:44:25.078125,-16.99
12:44:25.093750,-3.43
12:44:25.109375,6.15
12:44:25.125000,10.94
12:44:25.140625,13.37
12:44:25.156250,18.34
12:44:25.171875,31.20
12:44:25.187500,55.45
12:44:25.203125,90.93
12:44:25.218750,133.43
12:44:25.234375,175.77
12:44:25.250000,210.07
12:44:25.265625,230.37
12:44:25.281250,234.80
12:44:25.296875,226.51
12:44:25.312500,212.81
12:44:25.328125,202.69
12:44:25.343750,203.53
12:44:25.359375,218.45
12:44:25.375000,245.26
12:44:25.390625,277.62
12:44:25.406250,307.55
12:44:25.421875,328.17
12:44:25.437500,335.53
12:44:25.453125,328.80
12:44:25.468750,309.40
12:44:25.484375,279.71
12:44:25.500000,242.30
12:44:25.515625,199.65
12:44:25.531250,154.34
12:44:25.546875,109.12
12:44:25.562500,66.56
12:44:25.578125,28.35
12:44:25.593750,-5.39
12:44:25.609375,-36.45
12:44:25.625000,-68.10
12:44:25.640625,-103.96
12:44:25.656250,-146.25
12:44:25.671875,-194.34
12:44:25.687500,-244.37
12:44:25.703125,-290.28
12:44:25.718750,-326.07
12:44:25.734375,-348.10
12:44:25.750000,-356.31
12:44:25.765625,-353.81
12:44:25.781250,-345.35
12:44:25.796875,-335.39
12:44:25.812500,-326.92
12:44:25.828125,-321.24
12:44:25.843750,-318.40
12:44:25.859375,-317.84
12:44:25.875000,-318.74
12:44:25.890625,-320.19
12:44:25.906250,-321.26
12:44:25.921875,-321.13
12:44:25.937500,-319.05
12:44:25.953125,-314.21
12:44:25.968750,-305.60
12:44:25.984375,-291.82
12:44:26,-271.38
12:44:26.015625,-243.47
12:44:26.031250,-208.36
12:44:26.046875,-167.51
12:44:26.062500,-123.03
12:44:26.078125,-76.95
12:44:26.093750,-30.73
12:44:26.109375,14.78
12:44:26.125000,59.10
12:44:26.140625,102.12
12:44:26.156250,144.20
12:44:26.171875,186.47
12:44:26.187500,230.41
12:44:26.203125,276.86
12:44:26.218750,324.67
12:44:26.234375,369.96
12:44:26.250000,406.74
12:44:26.265625,428.87
12:44:26.281250,432.43
12:44:26.296875,417.33
12:44:26.312500,387.29
12:44:26.328125,348.19
12:44:26.343750,305.55
12:44:26.359375,262.75
12:44:26.375000,220.44
12:44:26.390625,177.26
12:44:26.406250,131.31
12:44:26.421875,81.60
12:44:26.437500,28.88
12:44:26.453125,-24.16
12:44:26.468750,-73.62
12:44:26.484375,-115.41
12:44:26.500000,-146.43
12:44:26.515625,-165.61
12:44:26.531250,-174.04
12:44:26.546875,-174.28
12:44:26.562500,-168.98
12:44:26.578125,-159.87
12:44:26.593750,-147.50
12:44:26.609375,-132.05
12:44:26.625000,-114.51
12:44:26.640625,-97.23
12:44:26.656250,-83.46
12:44:26.671875,-75.92
12:44:26.687500,-75.34
12:44:26.703125,-79.97
12:44:26.718750,-86.29
12:44:26.734375,-90.42
12:44:26.750000,-89.54
12:44:26.765625,-82.52
12:44:26.781250,-69.78
12:44:26.796875,-52.69
12:44:26.812500,-32.98
12:44:26.828125,-12.25
12:44:26.843750,8.09
12:44:26.859375,27.00
12:44:26.875000,43.83
12:44:26.890625,58.34
12:44:26.906250,70.60
12:44:26.921875,80.90
12:44:26.937500,89.53
12:44:26.953125,96.88
12:44:26.968750,103.44
12:44:26.984375,109.86
12:44:27,116.85
12:44:27.015625,124.95
12:44:27.031250,134.42
12:44:27.046875,145.21
12:44:27.062500,157.13
12:44:27.078125,170.00
12:44:27.093750,183.64
12:44:27.109375,197.45
12:44:27.125000,210.09
12:44:27.140625,219.36
12:44:27.156250,222.65
12:44:27.171875,217.80
12:44:27.187500,204.05
12:44:27.203125,182.50
12:44:27.218750,155.73
12:44:27.234375,126.89
12:44:27.250000,98.53
12:44:27.265625,71.91
12:44:27.281250,47.02
12:44:27.296875,23.25
12:44:27.312500,0.20
12:44:27.328125,-21.88
12:44:27.343750,-42.23
12:44:27.359375,-60.20
12:44:27.375000,-75.93
12:44:27.390625,-90.67
12:44:27.406250,-106.64
12:44:27.421875,-126.58
12:44:27.437500,-153.21
12:44:27.453125,-188.48
12:44:27.468750,-232.83
12:44:27.484375,-284.33
12:44:27.500000,-338.32
12:44:27.515625,-387.95
12:44:27.531250,-425.76
12:44:27.546875,-445.80
12:44:27.562500,-445.65
12:44:27.578125,-427.13
12:44:27.593750,-395.42
12:44:27.609375,-356.99
12:44:27.625000,-317.27
12:44:27.640625,-279.19
12:44:27.656250,-243.01
12:44:27.671875,-207.34
12:44:27.687500,-170.65
12:44:27.703125,-132.48
12:44:27.718750,-93.92
12:44:27.734375,-57.28
12:44:27.750000,-25.24
12:44:27.765625,0.15
12:44:27.781250,18.17
12:44:27.796875,29.77
12:44:27.812500,37.26
12:44:27.828125,43.54
12:44:27.843750,51.26
12:44:27.859375,61.74
12:44:27.875000,74.42
12:44:27.890625,86.67
12:44:27.906250,94.55
12:44:27.921875,94.06
12:44:27.937500,82.54
12:44:27.953125,59.89
12:44:27.968750,28.91
12:44:27.984375,-4.97
12:44:28,-34.74
12:44:28.015625,-53.60
12:44:28.031250,-56.91
12:44:28.046875,-43.60
12:44:28.062500,-16.87
12:44:28.078125,16.33
12:44:28.093750,47.15
12:44:28.109375,67.37
12:44:28.125000,72.21
12:44:28.140625,62.12
12:44:28.156250,42.83
12:44:28.171875,23.44
12:44:28.187500,13.47
12:44:28.203125,20.02
12:44:28.218750,46.11
12:44:28.234375,90.53
12:44:28.250000,148.77
12:44:28.265625,214.46
12:44:28.281250,280.61
12:44:28.296875,340.55
12:44:28.312500,388.52
12:44:28.328125,420.04
12:44:28.343750,432.39
12:44:28.359375,425.10
12:44:28.375000,400.30
12:44:28.390625,362.66
12:44:28.406250,318.29
12:44:28.421875,273.20
12:44:28.437500,231.46
12:44:28.453125,194.19
12:44:28.468750,159.46
12:44:28.484375,123.52
12:44:28.500000,82.80
12:44:28.515625,35.43
12:44:28.531250,-17.97
12:44:28.546875,-74.70
12:44:28.562500,-130.97
12:44:28.578125,-183.02
12:44:28.593750,-228.02
12:44:28.609375,-264.67
12:44:28.625000,-293.66
12:44:28.640625,-317.54
12:44:28.656250,-340.00
12:44:28.671875,-364.24
12:44:28.687500,-391.10
12:44:28.703125,-417.93
12:44:28.718750,-439.09
12:44:28.734375,-448.15
12:44:28.750000,-440.69
12:44:28.765625,-416.26
12:44:28.781250,-378.32
12:44:28.796875,-332.41
12:44:28.812500,-283.68
12:44:28.828125,-234.98
12:44:28.843750,-186.61
12:44:28.859375,-137.27
12:44:28.875000,-85.67
12:44:28.890625,-31.68
12:44:28.906250,23.10
12:44:28.921875,75.75
12:44:28.937500,122.87
12:44:28.953125,161.53
12:44:28.968750,190.17
12:44:28.984375,208.88
12:44:29,219.25
12:44:29.015625,223.57
12:44:29.031250,223.97
12:44:29.046875,221.86
12:44:29.062500,217.92
12:44:29.078125,212.66
12:44:29.093750,206.93
12:44:29.109375,202.09
12:44:29.125000,199.44
12:44:29.140625,199.56
12:44:29.156250,201.69
12:44:29.171875,203.98
12:44:29.187500,204.15
12:44:29.203125,200.46
12:44:29.218750,192.11
12:44:29.234375,179.20
12:44:29.250000,162.30
12:44:29.265625,141.91
12:44:29.281250,118.37
12:44:29.296875,91.95
12:44:29.312500,63.27
12:44:29.328125,33.45
12:44:29.343750,4.00
12:44:29.359375,-23.38
12:44:29.375000,-47.31
12:44:29.390625,-66.88
12:44:29.406250,-81.83
12:44:29.421875,-92.32
12:44:29.437500,-98.80
12:44:29.453125,-101.81
12:44:29.468750,-101.92
12:44:29.484375,-99.68
12:44:29.500000,-95.65
12:44:29.515625,-90.34
12:44:29.531250,-84.17
12:44:29.546875,-77.43
12:44:29.562500,-70.21
12:44:29.578125,-62.51
12:44:29.593750,-54.45
12:44:29.609375,-46.59
12:44:29.625000,-40.03
12:44:29.640625,-36.25
12:44:29.656250,-36.61
12:44:29.671875,-41.83
12:44:29.687500,-51.53
12:44:29.703125,-64.29
12:44:29.718750,-78.13
12:44:29.734375,-91.25
12:44:29.750000,-102.57
12:44:29.765625,-111.92
12:44:29.781250,-119.70
12:44:29.796875,-126.46
12:44:29.812500,-132.44
12:44:29.828125,-137.45
12:44:29.843750,-141.02
12:44:29.859375,-142.61
12:44:29.875000,-141.72
12:44:29.890625,-137.97
12:44:29.906250,-131.09
12:44:29.921875,-120.99
12:44:29.937500,-107.93
12:44:29.953125,-92.59
12:44:29.968750,-75.99
12:44:29.984375,-59.29
12:44:30,-43.53
12:44:30.015625,-29.45
12:44:30.031250,-17.49
12:44:30.046875,-7.87
12:44:30.062500,-0.65
12:44:30.078125,4.25
12:44:30.093750,7.11
12:44:30.109375,8.47
12:44:30.125000,9.10
12:44:30.140625,9.80
12:44:30.156250,11.31
12:44:30.171875,14.09
12:44:30.187500,18.26
12:44:30.203125,23.64
12:44:30.218750,29.77
12:44:30.234375,36.11
12:44:30.250000,42.15
12:44:30.265625,47.60
12:44:30.281250,52.40
12:44:30.296875,56.77
12:44:30.312500,61.06
12:44:30.328125,65.57
12:44:30.343750,70.48
12:44:30.359375,75.71
12:44:30.375000,80.98
12:44:30.390625,85.85
12:44:30.406250,89.81
12:44:30.421875,92.35
12:44:30.437500,93.05
12:44:30.453125,91.66
12:44:30.468750,88.08
12:44:30.484375,82.41
12:44:30.500000,74.91
12:44:30.515625,65.95
12:44:30.531250,55.89
12:44:30.546875,45.08
12:44:30.562500,33.75
12:44:30.578125,22.07
12:44:30.593750,10.13
12:44:30.609375,-1.92
12:44:30.625000,-13.87
12:44:30.640625,-25.35
12:44:30.656250,-35.88
12:44:30.671875,-44.97
12:44:30.687500,-52.14
12:44:30.703125,-56.97
12:44:30.718750,-59.09
12:44:30.734375,-58.22
12:44:30.750000,-54.24
12:44:30.765625,-47.36
12:44:30.781250,-38.20
12:44:30.796875,-27.77
12:44:30.812500,-17.27
12:44:30.828125,-7.76
12:44:30.843750,0.06
12:44:30.859375,5.91
12:44:30.875000,9.93
12:44:30.890625,12.41
12:44:30.906250,13.78
12:44:30.921875,14.48
12:44:30.937500,14.93
12:44:30.953125,15.50
12:44:30.968750,16.35
12:44:30.984375,17.39
12:44:31,18.36
12:44:31.015625,19.01
12:44:31.031250,19.28
12:44:31.046875,19.39
12:44:31.062500,19.73
12:44:31.078125,20.55
12:44:31.093750,21.87
12:44:31.109375,23.39
12:44:31.125000,24.74
12:44:31.140625,25.61
12:44:31.156250,25.91
12:44:31.171875,25.74
12:44:31.187500,25.14
12:44:31.203125,24.02
12:44:31.218750,22.08
12:44:31.234375,18.94
12:44:31.250000,14.34
12:44:31.265625,8.28
12:44:31.281250,1.04
12:44:31.296875,-6.79
12:44:31.312500,-14.48
12:44:31.328125,-21.29
12:44:31.343750,-26.64
12:44:31.359375,-30.22
12:44:31.375000,-31.97
12:44:31.390625,-32.05
12:44:31.406250,-30.69
12:44:31.421875,-28.11
12:44:31.437500,-24.39
12:44:31.453125,-19.60
12:44:31.468750,-13.81
12:44:31.484375,-7.17
12:44:31.500000,-0.01
12:44:31.515625,7.26
12:44:31.531250,14.19
12:44:31.546875,20.35
12:44:31.562500,25.42
12:44:31.578125,29.17
12:44:31.593750,31.51
12:44:31.609375,32.45
12:44:31.625000,32.07
12:44:31.640625,30.50
12:44:31.656250,27.91
12:44:31.671875,24.56
12:44:31.687500,20.82
12:44:31.703125,17.21
12:44:31.718750,14.24
12:44:31.734375,12.30
12:44:31.750000,11.49
12:44:31.765625,11.59
12:44:31.781250,12.16
12:44:31.796875,12.74
12:44:31.812500,13.03
12:44:31.828125,12.98
12:44:31.843750,12.68
12:44:31.859375,12.23
12:44:31.875000,11.60
12:44:31.890625,10.64
12:44:31.906250,9.14
12:44:31.921875,6.94
12:44:31.937500,4.01
12:44:31.953125,0.46
12:44:31.968750,-3.51
12:44:31.984375,-7.62
12:44:32,-11.58
12:44:32.015625,-15.07
12:44:32.031250,-17.79
12:44:32.046875,-19.52
12:44:32.062500,-20.13
12:44:32.078125,-19.63
12:44:32.093750,-18.12
12:44:32.109375,-15.71
12:44:32.125000,-12.48
12:44:32.140625,-8.53
12:44:32.156250,-3.94
12:44:32.171875,1.06
12:44:32.187500,6.18
12:44:32.203125,11.08
12:44:32.218750,15.49
12:44:32.234375,19.35
12:44:32.250000,22.81
12:44:32.265625,26.07
12:44:32.281250,29.24
12:44:32.296875,32.24
12:44:32.312500,34.77
12:44:32.328125,36.55
12:44:32.343750,37.40
12:44:32.359375,37.33
12:44:32.375000,36.42
12:44:32.390625,34.73
12:44:32.406250,32.21
12:44:32.421875,28.72
12:44:32.437500,24.30
12:44:32.453125,19.13
12:44:32.468750,13.59
12:44:32.484375,8.05
12:44:32.500000,2.80
12:44:32.515625,-2.12
12:44:32.531250,-6.78
12:44:32.546875,-11.27
12:44:32.562500,-15.64
12:44:32.578125,-19.79
12:44:32.593750,-23.62
12:44:32.609375,-27.05
12:44:32.625000,-30.00
12:44:32.640625,-32.36
12:44:32.656250,-33.99
12:44:32.671875,-34.75
12:44:32.687500,-34.53
12:44:32.703125,-33.33
12:44:32.718750,-31.24
12:44:32.734375,-28.35
12:44:32.750000,-24.82
12:44:32.765625,-20.71
12:44:32.781250,-16.07
12:44:32.796875,-10.97
12:44:32.812500,-5.54
12:44:32.828125,0.05
12:44:32.843750,5.52
12:44:32.859375,10.59
12:44:32.875000,15.01
12:44:32.890625,18.62
12:44:32.906250,21.44
12:44:32.921875,23.60
12:44:32.937500,25.28
12:44:32.953125,26.67
12:44:32.968750,27.92
12:44:32.984375,29.12
12:44:33,30.35
12:44:33.015625,31.76
12:44:33.031250,33.48
12:44:33.046875,35.58
12:44:33.062500,37.99
12:44:33.078125,40.46
12:44:33.093750,42.61
12:44:33.109375,44.05
12:44:33.125000,44.46
12:44:33.140625,43.68
12:44:33.156250,41.67
12:44:33.171875,38.50
12:44:33.187500,34.32
12:44:33.203125,29.35
12:44:33.218750,23.83
12:44:33.234375,18.00
12:44:33.250000,12.10
12:44:33.265625,6.28
12:44:33.281250,0.65
12:44:33.296875,-4.71
12:44:33.312500,-9.68
12:44:33.328125,-14.02
12:44:33.343750,-17.36
12:44:33.359375,-19.30
12:44:33.375000,-19.49
12:44:33.390625,-17.77
12:44:33.406250,-14.21
12:44:33.421875,-9.05
12:44:33.437500,-2.62
12:44:33.453125,4.76
12:44:33.468750,12.84
12:44:33.484375,21.37
12:44:33.500000,30.02
12:44:33.515625,38.34
12:44:33.531250,45.79
12:44:33.546875,51.84
12:44:33.562500,56.14
12:44:33.578125,58.62
12:44:33.593750,59.39
12:44:33.609375,58.72
12:44:33.625000,56.82
12:44:33.640625,53.78
12:44:33.656250,49.63
12:44:33.671875,44.47
12:44:33.687500,38.57
12:44:33.703125,32.45
12:44:33.718750,26.75
12:44:33.734375,22.14
12:44:33.750000,19.06
12:44:33.765625,17.68
12:44:33.781250,17.79
12:44:33.796875,18.94
12:44:33.812500,20.55
12:44:33.828125,22.09
12:44:33.843750,23.09
12:44:33.859375,23.32
12:44:33.875000,22.66
12:44:33.890625,21.09
12:44:33.906250,18.67
12:44:33.921875,15.48
12:44:33.937500,11.61
12:44:33.953125,7.19
12:44:33.968750,2.37
12:44:33.984375,-2.75
12:44:34,-8.09
12:44:34.015625,-13.61
12:44:34.031250,-19.25
12:44:34.046875,-24.85
12:44:34.062500,-30.08
12:44:34.078125,-34.48
12:44:34.093750,-37.57
12:44:34.109375,-38.96
12:44:34.125000,-38.49
12:44:34.140625,-36.21
12:44:34.156250,-32.33
12:44:34.171875,-27.16
12:44:34.187500,-21.02
12:44:34.203125,-14.22
12:44:34.218750,-7.07
12:44:34.234375,0.06
12:44:34.250000,6.83
12:44:34.265625,12.94
12:44:34.281250,18.13
12:44:34.296875,22.25
12:44:34.312500,25.20
12:44:34.328125,26.92
12:44:34.343750,27.38
12:44:34.359375,26.65
12:44:34.375000,24.88
12:44:34.390625,22.33
12:44:34.406250,19.32
12:44:34.421875,16.20
12:44:34.437500,13.31
12:44:34.453125,10.83
12:44:34.468750,8.91
12:44:34.484375,7.54
12:44:34.500000,6.71
12:44:34.515625,6.34
12:44:34.531250,6.38
12:44:34.546875,6.73
12:44:34.562500,7.33
12:44:34.578125,8.14
12:44:34.593750,9.12
12:44:34.609375,10.26
12:44:34.625000,11.49
12:44:34.640625,12.67
12:44:34.656250,13.54
12:44:34.671875,13.79
12:44:34.687500,13.10
12:44:34.703125,11.27
12:44:34.718750,8.28
12:44:34.734375,4.22
12:44:34.750000,-0.68
12:44:34.765625,-6.16
12:44:34.781250,-11.88
12:44:34.796875,-17.36
12:44:34.812500,-22.02
12:44:34.828125,-25.22
12:44:34.843750,-26.47
12:44:34.859375,-25.59
12:44:34.875000,-22.77
12:44:34.890625,-18.51
12:44:34.906250,-13.43
12:44:34.921875,-8.03
12:44:34.937500,-2.63
12:44:34.953125,2.65
12:44:34.968750,7.74
12:44:34.984375,12.56
12:44:35,16.94
12:44:35.015625,20.65
12:44:35.031250,23.48
12:44:35.046875,25.26
12:44:35.062500,25.86
12:44:35.078125,25.22
12:44:35.093750,23.36
12:44:35.109375,20.38
12:44:35.125000,16.55
12:44:35.140625,12.16
12:44:35.156250,7.55
12:44:35.171875,3.01
12:44:35.187500,-1.20
12:44:35.203125,-4.86
12:44:35.218750,-7.74
12:44:35.234375,-9.70
12:44:35.250000,-10.68
12:44:35.265625,-10.82
12:44:35.281250,-10.35
12:44:35.296875,-9.61
12:44:35.312500,-8.77
12:44:35.328125,-7.88
12:44:35.343750,-6.80
12:44:35.359375,-5.47
12:44:35.375000,-4.00
12:44:35.390625,-2.82
12:44:35.406250,-2.52
12:44:35.421875,-3.63
12:44:35.437500,-6.42
12:44:35.453125,-10.75
12:44:35.468750,-16.19
12:44:35.484375,-22.15
12:44:35.500000,-28.09
12:44:35.515625,-33.58
12:44:35.531250,-38.30
12:44:35.546875,-41.97
12:44:35.562500,-44.32
12:44:35.578125,-45.15
12:44:35.593750,-44.38
12:44:35.609375,-42.11
12:44:35.625000,-38.55
12:44:35.640625,-33.98
12:44:35.656250,-28.70
12:44:35.671875,-22.93
12:44:35.687500,-16.88
12:44:35.703125,-10.73
12:44:35.718750,-4.69
12:44:35.734375,0.94
12:44:35.750000,5.79
12:44:35.765625,9.50
12:44:35.781250,11.78
12:44:35.796875,12.56
12:44:35.812500,12.01
12:44:35.828125,10.46
12:44:35.843750,8.31
12:44:35.859375,5.85
12:44:35.875000,3.15
12:44:35.890625,0.20
12:44:35.906250,-3.05
12:44:35.921875,-6.46
12:44:35.937500,-9.73
12:44:35.953125,-12.42
12:44:35.968750,-14.18
12:44:35.984375,-14.89
12:44:36,-14.64
12:44:36.015625,-13.67
12:44:36.031250,-12.22
12:44:36.046875,-10.44
12:44:36.062500,-8.42
12:44:36.078125,-6.25
12:44:36.093750,-4.12
12:44:36.109375,-2.32
12:44:36.125000,-1.20
12:44:36.140625,-1.05
12:44:36.156250,-2.02
12:44:36.171875,-4.07
12:44:36.187500,-7.05
12:44:36.203125,-10.69
12:44:36.218750,-14.71
12:44:36.234375,-18.79
12:44:36.250000,-22.65
12:44:36.265625,-26.00
12:44:36.281250,-28.61
12:44:36.296875,-30.30
12:44:36.312500,-30.95
12:44:36.328125,-30.50
12:44:36.343750,-28.96
12:44:36.359375,-26.40
12:44:36.375000,-22.98
12:44:36.390625,-18.96
12:44:36.406250,-14.64
12:44:36.421875,-10.29
12:44:36.437500,-6.13
12:44:36.453125,-2.23
12:44:36.468750,1.35
12:44:36.484375,4.56
12:44:36.500000,7.26
12:44:36.515625,9.28
12:44:36.531250,10.47
12:44:36.546875,10.86
12:44:36.562500,10.62
12:44:36.578125,10.02
12:44:36.593750,9.29
12:44:36.609375,8.46
12:44:36.625000,7.41
12:44:36.640625,5.93
12:44:36.656250,3.98
12:44:36.671875,1.73
12:44:36.687500,-0.43
12:44:36.703125,-2.00
12:44:36.718750,-2.58
12:44:36.734375,-1.96
12:44:36.750000,-0.21
12:44:36.765625,2.44
12:44:36.781250,5.61
12:44:36.796875,8.86
12:44:36.812500,11.73
12:44:36.828125,13.86
12:44:36.843750,15.01
12:44:36.859375,15.15
12:44:36.875000,14.44
12:44:36.890625,13.05
12:44:36.906250,11.11
12:44:36.921875,8.57
12:44:36.937500,5.36
12:44:36.953125,1.43
12:44:36.968750,-3.06
12:44:36.984375,-7.73
12:44:37,-12.04
12:44:37.015625,-15.46
12:44:37.031250,-17.51
12:44:37.046875,-17.90
12:44:37.062500,-16.51
12:44:37.078125,-13.38
12:44:37.093750,-8.72
12:44:37.109375,-2.92
12:44:37.125000,3.48
12:44:37.140625,9.89
12:44:37.156250,15.81
12:44:37.171875,20.96
12:44:37.187500,25.22
12:44:37.203125,28.60
12:44:37.218750,31.05
12:44:37.234375,32.48
12:44:37.250000,32.75
12:44:37.265625,31.78
12:44:37.281250,29.65
12:44:37.296875,26.56
12:44:37.312500,22.77
12:44:37.328125,18.48
12:44:37.343750,13.73
12:44:37.359375,8.52
12:44:37.375000,2.94
12:44:37.390625,-2.72
12:44:37.406250,-7.93
12:44:37.421875,-12.11
12:44:37.437500,-14.85
12:44:37.453125,-16.06
12:44:37.468750,-16.01
12:44:37.484375,-15.15
12:44:37.500000,-13.91
12:44:37.515625,-12.57
12:44:37.531250,-11.17
12:44:37.546875,-9.66
12:44:37.562500,-8.05
12:44:37.578125,-6.50
12:44:37.593750,-5.37
12:44:37.609375,-5.10
12:44:37.625000,-6.08
12:44:37.640625,-8.50
12:44:37.656250,-12.26
12:44:37.671875,-16.97
12:44:37.687500,-22.02
12:44:37.703125,-26.75
12:44:37.718750,-30.57
12:44:37.734375,-33.08
12:44:37.750000,-34.07
12:44:37.765625,-33.49
12:44:37.781250,-31.39
12:44:37.796875,-27.87
12:44:37.812500,-23.17
12:44:37.828125,-17.61
12:44:37.843750,-11.67
12:44:37.859375,-5.82
12:44:37.875000,-0.41
12:44:37.890625,4.39
12:44:37.906250,8.63
12:44:37.921875,12.42
12:44:37.937500,15.78
12:44:37.953125,18.55
12:44:37.968750,20.43
12:44:37.984375,21.13
12:44:38,20.48
12:44:38.015625,18.59
12:44:38.031250,15.77
12:44:38.046875,12.45
12:44:38.062500,9.00
12:44:38.078125,5.66
12:44:38.093750,2.59
12:44:38.109375,-0.16
12:44:38.125000,-2.49
12:44:38.140625,-4.27
12:44:38.156250,-5.39
12:44:38.171875,-5.77
12:44:38.187500,-5.47
12:44:38.203125,-4.62
12:44:38.218750,-3.42
12:44:38.234375,-2.09
12:44:38.250000,-0.83
12:44:38.265625,0.13
12:44:38.281250,0.49
12:44:38.296875,-0.11
12:44:38.312500,-1.98
12:44:38.328125,-5.27
12:44:38.343750,-9.80
12:44:38.359375,-15.13
12:44:38.375000,-20.56
12:44:38.390625,-25.41
12:44:38.406250,-29.10
12:44:38.421875,-31.32
12:44:38.437500,-31.99
12:44:38.453125,-31.16
12:44:38.468750,-28.99
12:44:38.484375,-25.70
12:44:38.500000,-21.55
12:44:38.515625,-16.84
12:44:38.531250,-11.86
12:44:38.546875,-6.81
12:44:38.562500,-1.78
12:44:38.578125,3.26
12:44:38.593750,8.24
12:44:38.609375,13.02
12:44:38.625000,17.27
12:44:38.640625,20.58
12:44:38.656250,22.56
12:44:38.671875,23.04
12:44:38.687500,22.09
12:44:38.703125,19.98
12:44:38.718750,16.98
12:44:38.734375,13.34
12:44:38.750000,9.18
12:44:38.765625,4.60
12:44:38.781250,-0.22
12:44:38.796875,-4.94
12:44:38.812500,-9.14
12:44:38.828125,-12.43
12:44:38.843750,-14.59
12:44:38.859375,-15.70
12:44:38.875000,-16.03
12:44:38.890625,-16.00
12:44:38.906250,-16.04
12:44:38.921875,-16.48
12:44:38.937500,-17.55
12:44:38.953125,-19.39
12:44:38.968750,-22.09
12:44:38.984375,-25.66
12:44:39,-30.02
12:44:39.015625,-34.98
12:44:39.031250,-40.25
12:44:39.046875,-45.44
12:44:39.062500,-50.19
12:44:39.078125,-54.14
12:44:39.093750,-57.03
12:44:39.109375,-58.73
12:44:39.125000,-59.19
12:44:39.140625,-58.45
12:44:39.156250,-56.62
12:44:39.171875,-53.78
12:44:39.187500,-50.09
12:44:39.203125,-45.73
12:44:39.218750,-41.00
12:44:39.234375,-36.27
12:44:39.250000,-31.95
12:44:39.265625,-28.36
12:44:39.281250,-25.70
12:44:39.296875,-23.97
12:44:39.312500,-23.06
12:44:39.328125,-22.73
12:44:39.343750,-22.73
12:44:39.359375,-22.81
12:44:39.375000,-22.63
12:44:39.390625,-21.84
12:44:39.406250,-19.98
12:44:39.421875,-16.59
12:44:39.437500,-11.39
12:44:39.453125,-4.34
12:44:39.468750,4.20
12:44:39.484375,13.48
12:44:39.500000,22.59
12:44:39.515625,30.65
12:44:39.531250,37.12
12:44:39.546875,41.86
12:44:39.562500,45.14
12:44:39.578125,47.41
12:44:39.593750,49.07
12:44:39.609375,50.35
12:44:39.625000,51.30
12:44:39.640625,51.84
12:44:39.656250,51.99
12:44:39.671875,51.84
12:44:39.687500,51.60
12:44:39.703125,51.48
12:44:39.718750,51.62
12:44:39.734375,51.96
12:44:39.750000,52.30
12:44:39.765625,52.31
12:44:39.781250,51.62
12:44:39.796875,49.98
12:44:39.812500,47.32
12:44:39.828125,43.91
12:44:39.843750,40.29
12:44:39.859375,37.17
12:44:39.875000,35.16
12:44:39.890625,34.58
12:44:39.906250,35.31
12:44:39.921875,36.84
12:44:39.937500,38.49
12:44:39.953125,39.69
12:44:39.968750,40.22
12:44:39.984375,40.15
12:44:40,39.80
12:44:40.015625,39.51
12:44:40.031250,39.47
12:44:40.046875,39.81
12:44:40.062500,40.50
12:44:40.078125,41.34
12:44:40.093750,41.75
12:44:40.109375,40.64
12:44:40.125000,36.57
12:44:40.140625,28.32
12:44:40.156250,15.52
12:44:40.171875,-0.89
12:44:40.187500,-18.75
12:44:40.203125,-35.31
12:44:40.218750,-48.17
12:44:40.234375,-56.00
12:44:40.250000,-58.67
12:44:40.265625,-56.91
12:44:40.281250,-51.71
12:44:40.296875,-43.87
12:44:40.312500,-33.85
12:44:40.328125,-22.04
12:44:40.343750,-8.96
12:44:40.359375,4.62
12:44:40.375000,17.83
12:44:40.390625,29.95
