12:24:05,-0.00
12:24:05.015625,-0.00
12:24:05.031250,-0.00
12:24:05.046875,-0.00
12:24:05.062500,-0.00
12:24:05.078125,-0.00
12:24:05.093750,-0.00
12:24:05.109375,-0.00
12:24:05.125000,-0.00
12:24:05.140625,-0.00
12:24:05.156250,0.00
12:24:05.171875,0.01
12:24:05.187500,0.01
12:24:05.203125,-0.00
12:24:05.218750,-0.03
12:24:05.234375,-0.05
12:24:05.250000,-0.05
12:24:05.265625,0.00
12:24:05.281250,0.13
12:24:05.296875,0.36
12:24:05.312500,0.66
12:24:05.328125,1.01
12:24:05.343750,1.37
12:24:05.359375,1.72
12:24:05.375000,2.06
12:24:05.390625,2.40
12:24:05.406250,2.79
12:24:05.421875,3.24
12:24:05.437500,3.80
12:24:05.453125,4.42
12:24:05.468750,5.06
12:24:05.484375,5.66
12:24:05.500000,6.20
12:24:05.515625,6.68
12:24:05.531250,7.15
12:24:05.546875,7.68
12:24:05.562500,8.31
12:24:05.578125,9.14
12:24:05.593750,10.09
12:24:05.609375,11.04
12:24:05.625000,11.88
12:24:05.640625,12.56
12:24:05.656250,13.14
12:24:05.671875,13.76
12:24:05.687500,14.65
12:24:05.703125,15.96
12:24:05.718750,17.91
12:24:05.734375,20.32
12:24:05.750000,22.90
12:24:05.765625,25.38
12:24:05.781250,27.58
12:24:05.796875,29.57
12:24:05.812500,31.68
12:24:05.828125,34.32
12:24:05.843750,37.81
12:24:05.859375,42.54
12:24:05.875000,48.15
12:24:05.890625,54.10
12:24:05.906250,59.83
12:24:05.921875,64.97
12:24:05.937500,69.58
12:24:05.953125,74.14
12:24:05.968750,79.34
12:24:05.984375,85.71
12:24:06,93.76
12:24:06.015625,103.00
12:24:06.031250,112.62
12:24:06.046875,121.73
12:24:06.062500,129.77
12:24:06.078125,136.75
12:24:06.093750,143.30
12:24:06.109375,150.75
12:24:06.125000,157.77
12:24:06.140625,166.64
12:24:06.156250,177.95
12:24:06.171875,191.79
12:24:06.187500,206.97
12:24:06.203125,220.57
12:24:06.218750,228.25
12:24:06.234375,225.36
12:24:06.250000,208.53
12:24:06.265625,176.87
12:24:06.281250,132.76
12:24:06.296875,80.05
12:24:06.312500,23.07
12:24:06.328125,-34.94
12:24:06.343750,-92.44
12:24:06.359375,-149.16
12:24:06.375000,-205.23
12:24:06.390625,-260.37
12:24:06.406250,-313.74
12:24:06.421875,-363.87
12:24:06.437500,-409.83
12:24:06.453125,-450.91
12:24:06.468750,-486.50
12:24:06.484375,-515.74
12:24:06.500000,-537.23
12:24:06.515625,-549.22
12:24:06.531250,-549.96
12:24:06.546875,-538.37
12:24:06.562500,-514.21
12:24:06.578125,-478.67
12:24:06.593750,-433.88
12:24:06.609375,-382.45
12:24:06.625000,-327.02
12:24:06.640625,-269.84
12:24:06.656250,-212.63
12:24:06.671875,-156.66
12:24:06.687500,-102.95
12:24:06.703125,-52.37
12:24:06.718750,-5.90
12:24:06.734375,35.58
12:24:06.750000,71.43
12:24:06.765625,101.35
12:24:06.781250,125.50
12:24:06.796875,144.38
12:24:06.812500,158.69
12:24:06.828125,169.15
12:24:06.843750,176.37
12:24:06.859375,180.75
12:24:06.875000,182.57
12:24:06.890625,182.07
12:24:06.906250,179.51
12:24:06.921875,175.23
12:24:06.937500,169.65
12:24:06.953125,163.18
12:24:06.968750,156.15
12:24:06.984375,148.81
12:24:07,141.30
12:24:07.015625,133.69
12:24:07.031250,126.02
12:24:07.046875,118.33
12:24:07.062500,110.69
12:24:07.078125,103.16
12:24:07.093750,95.80
12:24:07.109375,88.68
12:24:07.125000,81.83
12:24:07.140625,75.25
12:24:07.156250,68.95
12:24:07.171875,62.95
12:24:07.187500,57.25
12:24:07.203125,51.86
12:24:07.218750,46.78
12:24:07.234375,42.03
12:24:07.250000,37.59
12:24:07.265625,33.45
12:24:07.281250,29.61
12:24:07.296875,26.07
12:24:07.312500,22.81
12:24:07.328125,19.83
12:24:07.343750,17.11
12:24:07.359375,14.67
12:24:07.375000,12.48
12:24:07.390625,10.54
12:24:07.406250,8.83
12:24:07.421875,7.35
12:24:07.437500,6.07
12:24:07.453125,4.97
12:24:07.468750,4.05
12:24:07.484375,3.27
12:24:07.500000,2.62
12:24:07.515625,2.09
12:24:07.531250,1.65
12:24:07.546875,1.30
12:24:07.562500,1.01
12:24:07.578125,0.79
12:24:07.593750,0.61
12:24:07.609375,0.47
12:24:07.625000,0.37
12:24:07.640625,0.29
12:24:07.656250,0.23
12:24:07.671875,0.19
12:24:07.687500,0.17
12:24:07.703125,0.16
12:24:07.718750,0.16
12:24:07.734375,0.17
12:24:07.750000,0.18
12:24:07.765625,0.21
12:24:07.781250,0.24
12:24:07.796875,0.27
12:24:07.812500,0.31
12:24:07.828125,0.35
12:24:07.843750,0.40
12:24:07.859375,0.44
12:24:07.875000,0.49
12:24:07.890625,0.54
12:24:07.906250,0.59
12:24:07.921875,0.64
12:24:07.937500,0.70
12:24:07.953125,0.76
12:24:07.968750,0.82
12:24:07.984375,0.89
12:24:08,0.97
12:24:08.015625,1.05
12:24:08.031250,1.14
12:24:08.046875,1.25
12:24:08.062500,1.36
12:24:08.078125,1.49
12:24:08.093750,1.64
12:24:08.109375,1.80
12:24:08.125000,1.98
12:24:08.140625,2.18
12:24:08.156250,2.41
12:24:08.171875,2.66
12:24:08.187500,2.94
12:24:08.203125,3.24
12:24:08.218750,3.57
12:24:08.234375,3.94
12:24:08.250000,4.34
12:24:08.265625,4.77
12:24:08.281250,5.25
12:24:08.296875,5.75
12:24:08.312500,6.30
12:24:08.328125,6.89
12:24:08.343750,7.52
12:24:08.359375,8.20
12:24:08.375000,8.91
12:24:08.390625,9.68
12:24:08.406250,10.49
12:24:08.421875,11.34
12:24:08.437500,12.25
12:24:08.453125,13.19
12:24:08.468750,14.19
12:24:08.484375,15.26
12:24:08.500000,16.38
12:24:08.515625,17.57
12:24:08.531250,18.82
12:24:08.546875,20.10
12:24:08.562500,21.38
12:24:08.578125,22.61
12:24:08.593750,23.69
12:24:08.609375,24.53
12:24:08.625000,25.02
12:24:08.640625,25.04
12:24:08.656250,24.47
12:24:08.671875,23.25
12:24:08.687500,21.29
12:24:08.703125,18.59
12:24:08.718750,15.19
12:24:08.734375,11.15
12:24:08.750000,6.66
12:24:08.765625,1.92
12:24:08.781250,-2.83
12:24:08.796875,-7.35
12:24:08.812500,-11.45
12:24:08.828125,-14.98
12:24:08.843750,-17.86
12:24:08.859375,-20.05
12:24:08.875000,-21.57
12:24:08.890625,-22.45
12:24:08.906250,-22.73
12:24:08.921875,-22.49
12:24:08.937500,-21.80
12:24:08.953125,-20.76
12:24:08.968750,-19.50
12:24:08.984375,-18.14
12:24:09,-16.81
12:24:09.015625,-15.56
12:24:09.031250,-14.40
12:24:09.046875,-13.29
12:24:09.062500,-12.19
12:24:09.078125,-11.01
12:24:09.093750,-9.76
12:24:09.109375,-8.50
12:24:09.125000,-7.38
12:24:09.140625,-6.53
12:24:09.156250,-6.01
12:24:09.171875,-5.72
12:24:09.187500,-5.60
12:24:09.203125,-5.43
12:24:09.218750,-5.05
12:24:09.234375,-4.38
12:24:09.250000,-3.62
12:24:09.265625,-3.05
12:24:09.281250,-2.97
12:24:09.296875,-3.52
12:24:09.312500,-4.52
12:24:09.328125,-5.88
12:24:09.343750,-7.23
12:24:09.359375,-8.19
12:24:09.375000,-8.65
12:24:09.390625,-8.85
12:24:09.406250,-9.26
12:24:09.421875,-10.38
12:24:09.437500,-12.43
12:24:09.453125,-15.23
12:24:09.468750,-18.67
12:24:09.484375,-22.27
12:24:09.500000,-25.49
12:24:09.515625,-28.11
12:24:09.531250,-30.31
12:24:09.546875,-32.56
12:24:09.562500,-35.54
12:24:09.578125,-39.97
12:24:09.593750,-46.49
12:24:09.609375,-55.97
12:24:09.625000,-68.12
12:24:09.640625,-81.33
12:24:09.656250,-92.95
12:24:09.671875,-100.05
12:24:09.687500,-100.54
12:24:09.703125,-94.19
12:24:09.718750,-82.92
12:24:09.734375,-66.27
12:24:09.750000,-47.21
12:24:09.765625,-28.81
12:24:09.781250,-12.98
12:24:09.796875,-0.25
12:24:09.812500,9.82
12:24:09.828125,17.91
12:24:09.843750,24.40
12:24:09.859375,29.43
12:24:09.875000,33.19
12:24:09.890625,35.57
12:24:09.906250,37.06
12:24:09.921875,38.34
12:24:09.937500,39.78
12:24:09.953125,41.29
12:24:09.968750,42.42
12:24:09.984375,42.61
12:24:10,41.60
12:24:10.015625,39.58
12:24:10.031250,36.67
12:24:10.046875,33.41
12:24:10.062500,30.48
12:24:10.078125,28.30
12:24:10.093750,26.96
12:24:10.109375,26.19
12:24:10.125000,25.52
12:24:10.140625,24.57
12:24:10.156250,23.13
12:24:10.171875,21.03
12:24:10.187500,18.46
12:24:10.203125,15.81
12:24:10.218750,13.36
12:24:10.234375,11.26
12:24:10.250000,9.42
12:24:10.265625,7.67
12:24:10.281250,5.88
12:24:10.296875,4.05
12:24:10.312500,2.15
12:24:10.328125,0.29
12:24:10.343750,-1.44
12:24:10.359375,-3.05
12:24:10.375000,-4.68
12:24:10.390625,-6.55
12:24:10.406250,-8.86
12:24:10.421875,-11.66
12:24:10.437500,-14.80
12:24:10.453125,-17.99
12:24:10.468750,-20.74
12:24:10.484375,-22.52
12:24:10.500000,-22.90
12:24:10.515625,-21.70
12:24:10.531250,-18.98
12:24:10.546875,-15.13
12:24:10.562500,-10.66
12:24:10.578125,-6.05
12:24:10.593750,-1.65
12:24:10.609375,2.38
12:24:10.625000,5.97
12:24:10.640625,9.08
12:24:10.656250,11.60
12:24:10.671875,13.38
12:24:10.687500,14.39
12:24:10.703125,14.68
12:24:10.718750,14.48
12:24:10.734375,14.05
12:24:10.750000,13.56
12:24:10.765625,13.07
12:24:10.781250,12.51
12:24:10.796875,11.81
12:24:10.812500,10.95
12:24:10.828125,10.01
12:24:10.843750,9.11
12:24:10.859375,8.29
12:24:10.875000,7.52
12:24:10.890625,6.71
12:24:10.906250,5.76
12:24:10.921875,4.61
12:24:10.937500,3.24
12:24:10.953125,1.69
12:24:10.968750,-0.02
12:24:10.984375,-1.86
12:24:11,-3.84
12:24:11.015625,-5.95
12:24:11.031250,-8.20
12:24:11.046875,-10.63
12:24:11.062500,-13.26
12:24:11.078125,-16.07
12:24:11.093750,-19.02
12:24:11.109375,-21.96
12:24:11.125000,-24.84
12:24:11.140625,-27.67
12:24:11.156250,-30.58
12:24:11.171875,-33.80
12:24:11.187500,-37.47
12:24:11.203125,-41.52
12:24:11.218750,-45.60
12:24:11.234375,-49.17
12:24:11.250000,-51.62
12:24:11.265625,-52.53
12:24:11.281250,-51.83
12:24:11.296875,-49.78
12:24:11.312500,-46.91
12:24:11.328125,-43.85
12:24:11.343750,-41.14
12:24:11.359375,-39.06
12:24:11.375000,-37.64
12:24:11.390625,-36.69
12:24:11.406250,-35.83
12:24:11.421875,-34.63
12:24:11.437500,-32.70
12:24:11.453125,-29.73
12:24:11.468750,-25.47
12:24:11.484375,-19.81
12:24:11.500000,-12.76
12:24:11.515625,-4.46
12:24:11.531250,4.81
12:24:11.546875,14.67
12:24:11.562500,24.69
12:24:11.578125,34.47
12:24:11.593750,43.63
12:24:11.609375,51.85
12:24:11.625000,58.84
12:24:11.640625,64.30
12:24:11.656250,68.02
12:24:11.671875,69.85
12:24:11.687500,69.84
12:24:11.703125,68.21
12:24:11.718750,65.32
12:24:11.734375,61.58
12:24:11.750000,57.33
12:24:11.765625,52.84
12:24:11.781250,48.22
12:24:11.796875,43.53
12:24:11.812500,38.79
12:24:11.828125,34.05
12:24:11.843750,29.36
12:24:11.859375,24.80
12:24:11.875000,20.42
12:24:11.890625,16.20
12:24:11.906250,12.06
12:24:11.921875,7.88
12:24:11.937500,3.56
12:24:11.953125,-0.93
12:24:11.968750,-5.44
12:24:11.984375,-9.68
12:24:12,-13.27
12:24:12.015625,-15.82
12:24:12.031250,-17.04
12:24:12.046875,-16.79
12:24:12.062500,-15.06
12:24:12.078125,-12.01
12:24:12.093750,-7.95
12:24:12.109375,-3.32
12:24:12.125000,1.36
12:24:12.140625,5.61
12:24:12.156250,9.13
12:24:12.171875,11.83
12:24:12.187500,13.87
12:24:12.203125,15.46
12:24:12.218750,16.79
12:24:12.234375,17.89
12:24:12.250000,18.61
12:24:12.265625,18.78
12:24:12.281250,18.28
12:24:12.296875,17.19
12:24:12.312500,15.75
12:24:12.328125,14.30
12:24:12.343750,13.20
12:24:12.359375,12.66
12:24:12.375000,12.67
12:24:12.390625,13.00
12:24:12.406250,13.29
12:24:12.421875,13.20
12:24:12.437500,12.54
12:24:12.453125,11.34
12:24:12.468750,9.85
12:24:12.484375,8.40
12:24:12.500000,7.20
12:24:12.515625,6.34
12:24:12.531250,5.74
12:24:12.546875,5.21
12:24:12.562500,4.52
12:24:12.578125,3.47
12:24:12.593750,1.94
12:24:12.609375,-0.12
12:24:12.625000,-2.60
12:24:12.640625,-5.37
12:24:12.656250,-8.23
12:24:12.671875,-11.11
12:24:12.687500,-14.02
12:24:12.703125,-17.05
12:24:12.718750,-20.28
12:24:12.734375,-23.59
12:24:12.750000,-26.71
12:24:12.765625,-29.22
12:24:12.781250,-30.68
12:24:12.796875,-30.85
12:24:12.812500,-29.68
12:24:12.828125,-27.32
12:24:12.843750,-24.04
12:24:12.859375,-20.10
12:24:12.875000,-15.78
12:24:12.890625,-11.36
12:24:12.906250,-7.12
12:24:12.921875,-3.31
12:24:12.937500,-0.12
12:24:12.953125,2.41
12:24:12.968750,4.37
12:24:12.984375,5.93
12:24:13,7.23
12:24:13.015625,8.39
12:24:13.031250,9.39
12:24:13.046875,10.12
12:24:13.062500,10.45
12:24:13.078125,10.32
12:24:13.093750,9.76
12:24:13.109375,8.92
12:24:13.125000,8.00
12:24:13.140625,7.19
12:24:13.156250,6.57
12:24:13.171875,6.13
12:24:13.187500,5.80
12:24:13.203125,5.52
12:24:13.218750,5.29
12:24:13.234375,5.17
12:24:13.250000,5.22
12:24:13.265625,5.38
12:24:13.281250,5.51
12:24:13.296875,5.41
12:24:13.312500,4.95
12:24:13.328125,4.18
12:24:13.343750,3.29
12:24:13.359375,2.52
12:24:13.375000,1.99
12:24:13.390625,1.65
12:24:13.406250,1.25
12:24:13.421875,0.55
12:24:13.437500,-0.61
12:24:13.453125,-2.19
12:24:13.468750,-4.05
12:24:13.484375,-6.05
12:24:13.500000,-8.16
12:24:13.515625,-10.43
12:24:13.531250,-12.91
12:24:13.546875,-15.44
12:24:13.562500,-17.66
12:24:13.578125,-19.03
12:24:13.593750,-19.05
12:24:13.609375,-17.45
12:24:13.625000,-14.27
12:24:13.640625,-9.92
12:24:13.656250,-4.98
12:24:13.671875,-0.05
12:24:13.687500,4.41
12:24:13.703125,8.21
12:24:13.718750,11.35
12:24:13.734375,14.00
12:24:13.750000,16.28
12:24:13.765625,18.20
12:24:13.781250,19.74
12:24:13.796875,20.71
12:24:13.812500,21.04
12:24:13.828125,20.81
12:24:13.843750,20.22
12:24:13.859375,19.57
12:24:13.875000,19.11
12:24:13.890625,18.94
12:24:13.906250,19.01
12:24:13.921875,19.14
12:24:13.937500,19.15
12:24:13.953125,18.94
12:24:13.968750,18.54
12:24:13.984375,18.03
12:24:14,17.46
12:24:14.015625,16.82
12:24:14.031250,16.06
12:24:14.046875,15.13
12:24:14.062500,14.02
12:24:14.078125,12.75
12:24:14.093750,11.35
12:24:14.109375,9.81
12:24:14.125000,8.09
12:24:14.140625,6.15
12:24:14.156250,4.03
12:24:14.171875,1.84
12:24:14.187500,-0.24
12:24:14.203125,-2.06
12:24:14.218750,-3.57
12:24:14.234375,-4.84
12:24:14.250000,-6.00
12:24:14.265625,-7.22
12:24:14.281250,-8.63
12:24:14.296875,-10.31
12:24:14.312500,-12.30
12:24:14.328125,-14.54
12:24:14.343750,-16.83
12:24:14.359375,-18.85
12:24:14.375000,-20.14
12:24:14.390625,-20.32
12:24:14.406250,-19.15
12:24:14.421875,-16.69
12:24:14.437500,-13.20
12:24:14.453125,-9.12
12:24:14.468750,-4.81
12:24:14.484375,-0.55
12:24:14.500000,3.51
12:24:14.515625,7.30
12:24:14.531250,10.68
12:24:14.546875,13.51
12:24:14.562500,15.64
12:24:14.578125,17.02
12:24:14.593750,17.71
12:24:14.609375,17.90
12:24:14.625000,17.78
12:24:14.640625,17.49
12:24:14.656250,17.06
12:24:14.671875,16.45
12:24:14.687500,15.64
12:24:14.703125,14.75
12:24:14.718750,14.00
12:24:14.734375,13.65
12:24:14.750000,13.82
12:24:14.765625,14.47
12:24:14.781250,15.35
12:24:14.796875,16.09
12:24:14.812500,16.38
12:24:14.828125,16.09
12:24:14.843750,15.36
12:24:14.859375,14.43
12:24:14.875000,13.57
12:24:14.890625,12.92
12:24:14.906250,12.44
12:24:14.921875,11.98
12:24:14.937500,11.35
12:24:14.953125,10.44
12:24:14.968750,9.24
12:24:14.984375,7.82
12:24:15,6.23
12:24:15.015625,4.53
12:24:15.031250,2.67
12:24:15.046875,0.64
12:24:15.062500,-1.61
12:24:15.078125,-4.07
12:24:15.093750,-6.75
12:24:15.109375,-9.64
12:24:15.125000,-12.71
12:24:15.140625,-15.84
12:24:15.156250,-18.78
12:24:15.171875,-21.16
12:24:15.187500,-22.55
12:24:15.203125,-22.58
12:24:15.218750,-21.04
12:24:15.234375,-17.97
12:24:15.250000,-13.70
12:24:15.265625,-8.81
12:24:15.281250,-3.97
12:24:15.296875,0.11
12:24:15.312500,2.92
12:24:15.328125,4.17
12:24:15.343750,3.81
12:24:15.359375,2.00
12:24:15.375000,-0.96
12:24:15.390625,-4.69
12:24:15.406250,-8.70
12:24:15.421875,-12.47
12:24:15.437500,-15.48
12:24:15.453125,-17.35
12:24:15.468750,-17.83
12:24:15.484375,-16.93
12:24:15.500000,-14.82
12:24:15.515625,-11.80
12:24:15.531250,-8.25
12:24:15.546875,-4.53
12:24:15.562500,-1.00
12:24:15.578125,2.04
12:24:15.593750,4.38
12:24:15.609375,5.93
12:24:15.625000,6.73
12:24:15.640625,6.90
12:24:15.656250,6.52
12:24:15.671875,5.61
12:24:15.687500,4.13
12:24:15.703125,2.05
12:24:15.718750,-0.48
12:24:15.734375,-3.19
12:24:15.750000,-5.75
12:24:15.765625,-7.85
12:24:15.781250,-9.33
12:24:15.796875,-10.24
12:24:15.812500,-10.78
12:24:15.828125,-11.27
12:24:15.843750,-12.00
12:24:15.859375,-13.21
12:24:15.875000,-14.97
12:24:15.890625,-17.22
12:24:15.906250,-19.81
12:24:15.921875,-22.45
12:24:15.937500,-24.83
12:24:15.953125,-26.57
12:24:15.968750,-27.34
12:24:15.984375,-26.91
12:24:16,-25.21
12:24:16.015625,-22.44
12:24:16.031250,-19.01
12:24:16.046875,-15.51
12:24:16.062500,-12.49
12:24:16.078125,-10.36
12:24:16.093750,-9.19
12:24:16.109375,-8.90
12:24:16.125000,-9.21
12:24:16.140625,-9.94
12:24:16.156250,-10.92
12:24:16.171875,-12.13
12:24:16.187500,-13.59
12:24:16.203125,-15.31
12:24:16.218750,-17.31
12:24:16.234375,-19.51
12:24:16.250000,-21.86
12:24:16.265625,-24.25
12:24:16.281250,-26.53
12:24:16.296875,-28.56
12:24:16.312500,-30.22
12:24:16.328125,-31.33
12:24:16.343750,-31.72
12:24:16.359375,-31.19
12:24:16.375000,-29.55
12:24:16.390625,-26.65
12:24:16.406250,-22.45
12:24:16.421875,-17.06
12:24:16.437500,-10.70
12:24:16.453125,-3.60
12:24:16.468750,4.03
12:24:16.484375,12.01
12:24:16.500000,20.14
12:24:16.515625,28.09
12:24:16.531250,35.37
12:24:16.546875,41.42
12:24:16.562500,45.72
12:24:16.578125,48.01
12:24:16.593750,48.32
12:24:16.609375,46.95
12:24:16.625000,44.30
12:24:16.640625,40.75
12:24:16.656250,36.55
12:24:16.671875,31.95
12:24:16.687500,27.26
12:24:16.703125,22.88
12:24:16.718750,19.29
12:24:16.734375,16.88
12:24:16.750000,15.80
12:24:16.765625,15.88
12:24:16.781250,16.83
12:24:16.796875,18.25
12:24:16.812500,19.87
12:24:16.828125,21.50
12:24:16.843750,23.04
12:24:16.859375,24.40
12:24:16.875000,25.43
12:24:16.890625,26.02
12:24:16.906250,26.11
12:24:16.921875,25.72
12:24:16.937500,24.94
12:24:16.953125,23.89
12:24:16.968750,22.67
12:24:16.984375,21.40
12:24:17,20.17
12:24:17.015625,19.10
12:24:17.031250,18.26
12:24:17.046875,17.63
12:24:17.062500,17.09
12:24:17.078125,16.45
12:24:17.093750,15.49
12:24:17.109375,14.10
12:24:17.125000,12.28
12:24:17.140625,10.21
12:24:17.156250,8.16
12:24:17.171875,6.39
12:24:17.187500,5.09
12:24:17.203125,4.25
12:24:17.218750,3.70
12:24:17.234375,3.21
12:24:17.250000,2.51
12:24:17.265625,1.43
12:24:17.281250,-0.06
12:24:17.296875,-1.87
12:24:17.312500,-3.84
12:24:17.328125,-5.80
12:24:17.343750,-7.66
12:24:17.359375,-9.40
12:24:17.375000,-11.09
12:24:17.390625,-12.81
12:24:17.406250,-14.66
12:24:17.421875,-16.63
12:24:17.437500,-18.61
12:24:17.453125,-20.40
12:24:17.468750,-21.69
12:24:17.484375,-22.19
12:24:17.500000,-21.72
12:24:17.515625,-20.20
12:24:17.531250,-17.74
12:24:17.546875,-14.56
12:24:17.562500,-10.98
12:24:17.578125,-7.30
12:24:17.593750,-3.81
12:24:17.609375,-0.68
12:24:17.625000,2.05
12:24:17.640625,4.40
12:24:17.656250,6.42
12:24:17.671875,8.12
12:24:17.687500,9.44
12:24:17.703125,10.31
12:24:17.718750,10.69
12:24:17.734375,10.61
12:24:17.750000,10.24
12:24:17.765625,9.72
12:24:17.781250,9.19
12:24:17.796875,8.68
12:24:17.812500,8.18
12:24:17.828125,7.72
12:24:17.843750,7.34
12:24:17.859375,7.11
12:24:17.875000,7.09
12:24:17.890625,7.23
12:24:17.906250,7.40
12:24:17.921875,7.40
12:24:17.937500,7.06
12:24:17.953125,6.38
12:24:17.968750,5.43
12:24:17.984375,4.43
12:24:18,3.52
12:24:18.015625,2.78
12:24:18.031250,2.14
12:24:18.046875,1.52
12:24:18.062500,0.81
12:24:18.078125,0.03
12:24:18.093750,-0.76
12:24:18.109375,-1.50
12:24:18.125000,-2.17
12:24:18.140625,-2.92
12:24:18.156250,-3.94
12:24:18.171875,-5.42
12:24:18.187500,-7.41
12:24:18.203125,-9.80
12:24:18.218750,-12.31
12:24:18.234375,-14.57
12:24:18.250000,-16.26
12:24:18.265625,-17.09
12:24:18.281250,-16.94
12:24:18.296875,-15.75
12:24:18.312500,-13.61
12:24:18.328125,-10.66
12:24:18.343750,-7.11
12:24:18.359375,-3.21
12:24:18.375000,0.72
12:24:18.390625,4.37
12:24:18.406250,7.48
12:24:18.421875,9.91
12:24:18.437500,11.67
12:24:18.453125,12.92
12:24:18.468750,13.85
12:24:18.484375,14.57
12:24:18.500000,15.06
12:24:18.515625,15.18
12:24:18.531250,14.76
12:24:18.546875,13.77
12:24:18.562500,12.38
12:24:18.578125,10.94
12:24:18.593750,9.85
12:24:18.609375,9.36
12:24:18.625000,9.53
12:24:18.640625,10.16
12:24:18.656250,10.93
12:24:18.671875,11.50
12:24:18.687500,11.66
12:24:18.703125,11.36
12:24:18.718750,10.70
12:24:18.734375,9.83
12:24:18.750000,8.86
12:24:18.765625,7.81
12:24:18.781250,6.65
12:24:18.796875,5.29
12:24:18.812500,3.69
12:24:18.828125,1.87
12:24:18.843750,-0.04
12:24:18.859375,-1.90
12:24:18.875000,-3.56
12:24:18.890625,-5.01
12:24:18.906250,-6.32
12:24:18.921875,-7.67
12:24:18.937500,-9.20
12:24:18.953125,-10.96
12:24:18.968750,-12.89
12:24:18.984375,-14.85
12:24:19,-16.66
12:24:19.015625,-18.16
12:24:19.031250,-19.19
12:24:19.046875,-19.54
12:24:19.062500,-19.03
12:24:19.078125,-17.51
12:24:19.093750,-14.97
12:24:19.109375,-11.58
12:24:19.125000,-7.62
12:24:19.140625,-3.43
12:24:19.156250,0.64
12:24:19.171875,4.31
12:24:19.187500,7.38
12:24:19.203125,9.68
12:24:19.218750,11.12
12:24:19.234375,11.71
12:24:19.250000,11.60
12:24:19.265625,11.05
12:24:19.281250,10.33
12:24:19.296875,9.61
12:24:19.312500,8.94
12:24:19.328125,8.27
12:24:19.343750,7.55
12:24:19.359375,6.82
12:24:19.375000,6.21
12:24:19.390625,5.85
12:24:19.406250,5.76
12:24:19.421875,5.83
12:24:19.437500,5.85
12:24:19.453125,5.65
12:24:19.468750,5.19
12:24:19.484375,4.55
12:24:19.500000,3.91
12:24:19.515625,3.33
12:24:19.531250,2.78
12:24:19.546875,2.11
12:24:19.562500,1.19
12:24:19.578125,0.03
12:24:19.593750,-1.25
12:24:19.609375,-2.46
12:24:19.625000,-3.52
12:24:19.640625,-4.48
12:24:19.656250,-5.48
12:24:19.671875,-6.63
12:24:19.687500,-7.95
12:24:19.703125,-9.35
12:24:19.718750,-10.73
12:24:19.734375,-12.04
12:24:19.750000,-13.30
12:24:19.765625,-14.50
12:24:19.781250,-15.52
12:24:19.796875,-16.11
12:24:19.812500,-15.92
12:24:19.828125,-14.72
12:24:19.843750,-12.46
12:24:19.859375,-9.39
12:24:19.875000,-5.95
12:24:19.890625,-2.58
12:24:19.906250,0.39
12:24:19.921875,2.85
12:24:19.937500,4.85
12:24:19.953125,6.51
12:24:19.968750,7.89
12:24:19.984375,8.98
12:24:20,9.69
12:24:20.015625,9.94
12:24:20.031250,9.74
12:24:20.046875,9.18
12:24:20.062500,8.40
12:24:20.078125,7.56
12:24:20.093750,6.76
12:24:20.109375,6.09
12:24:20.125000,5.63
12:24:20.140625,5.43
12:24:20.156250,5.52
12:24:20.171875,5.83
12:24:20.187500,6.24
12:24:20.203125,6.60
12:24:20.218750,6.77
12:24:20.234375,6.67
12:24:20.250000,6.31
12:24:20.265625,5.70
12:24:20.281250,4.89
12:24:20.296875,3.89
12:24:20.312500,2.72
12:24:20.328125,1.42
12:24:20.343750,0.06
12:24:20.359375,-1.26
12:24:20.375000,-2.45
12:24:20.390625,-3.49
12:24:20.406250,-4.42
12:24:20.421875,-5.27
12:24:20.437500,-6.10
12:24:20.453125,-6.95
12:24:20.468750,-7.89
12:24:20.484375,-8.98
12:24:20.500000,-10.26
12:24:20.515625,-11.68
12:24:20.531250,-13.07
12:24:20.546875,-14.13
12:24:20.562500,-14.51
12:24:20.578125,-13.93
12:24:20.593750,-12.30
12:24:20.609375,-9.69
12:24:20.625000,-6.40
12:24:20.640625,-2.79
12:24:20.656250,0.81
12:24:20.671875,4.13
12:24:20.687500,7.01
12:24:20.703125,9.34
12:24:20.718750,11.11
12:24:20.734375,12.32
12:24:20.750000,13.02
12:24:20.765625,13.30
12:24:20.781250,13.20
12:24:20.796875,12.79
12:24:20.812500,12.11
12:24:20.828125,11.23
12:24:20.843750,10.27
12:24:20.859375,9.38
12:24:20.875000,8.68
12:24:20.890625,8.29
12:24:20.906250,8.24
12:24:20.921875,8.50
12:24:20.937500,9.01
12:24:20.953125,9.68
12:24:20.968750,10.32
12:24:20.984375,10.70
12:24:21,10.53
12:24:21.015625,9.55
12:24:21.031250,7.66
12:24:21.046875,5.02
12:24:21.062500,1.97
12:24:21.078125,-0.99
12:24:21.093750,-3.43
12:24:21.109375,-5.10
12:24:21.125000,-6.04
12:24:21.140625,-6.47
12:24:21.156250,-6.74
12:24:21.171875,-7.15
12:24:21.187500,-7.84
12:24:21.203125,-8.83
12:24:21.218750,-9.99
12:24:21.234375,-11.19
12:24:21.250000,-12.38
12:24:21.265625,-13.54
12:24:21.281250,-14.72
12:24:21.296875,-15.90
12:24:21.312500,-16.92
12:24:21.328125,-17.49
12:24:21.343750,-17.31
12:24:21.359375,-16.13
12:24:21.375000,-13.91
12:24:21.390625,-10.85
12:24:21.406250,-7.30
12:24:21.421875,-3.74
12:24:21.437500,-0.54
12:24:21.453125,2.04
12:24:21.468750,4.00
12:24:21.484375,5.47
12:24:21.500000,6.65
12:24:21.515625,7.69
12:24:21.531250,8.58
12:24:21.546875,9.21
12:24:21.562500,9.41
12:24:21.578125,9.07
12:24:21.593750,8.25
12:24:21.609375,7.13
12:24:21.625000,5.98
12:24:21.640625,4.99
12:24:21.656250,4.25
12:24:21.671875,3.68
12:24:21.687500,3.17
12:24:21.703125,2.63
12:24:21.718750,2.04
12:24:21.734375,1.50
12:24:21.750000,1.15
12:24:21.765625,1.06
12:24:21.781250,1.16
12:24:21.796875,1.23
12:24:21.812500,1.01
12:24:21.828125,0.30
12:24:21.843750,-0.91
12:24:21.859375,-2.50
12:24:21.875000,-4.18
12:24:21.890625,-5.70
12:24:21.906250,-6.94
12:24:21.921875,-7.89
12:24:21.937500,-8.67
12:24:21.953125,-9.39
12:24:21.968750,-10.14
12:24:21.984375,-10.96
12:24:22,-11.89
12:24:22.015625,-12.93
12:24:22.031250,-14.03
12:24:22.046875,-15.07
12:24:22.062500,-15.81
12:24:22.078125,-15.94
12:24:22.093750,-15.22
12:24:22.109375,-13.54
12:24:22.125000,-10.99
12:24:22.140625,-7.84
12:24:22.156250,-4.46
12:24:22.171875,-1.22
12:24:22.187500,1.63
12:24:22.203125,3.97
12:24:22.218750,5.79
12:24:22.234375,7.14
12:24:22.250000,8.08
12:24:22.265625,8.67
12:24:22.281250,8.99
12:24:22.296875,9.11
12:24:22.312500,9.11
12:24:22.328125,9.07
12:24:22.343750,9.04
12:24:22.359375,9.03
12:24:22.375000,8.99
12:24:22.390625,8.87
12:24:22.406250,8.66
12:24:22.421875,8.37
12:24:22.437500,8.08
12:24:22.453125,7.87
12:24:22.468750,7.74
12:24:22.484375,7.64
12:24:22.500000,7.41
12:24:22.515625,6.91
12:24:22.531250,6.10
12:24:22.546875,5.04
12:24:22.562500,3.87
12:24:22.578125,2.73
12:24:22.593750,1.67
12:24:22.609375,0.67
12:24:22.625000,-0.33
12:24:22.640625,-1.34
12:24:22.656250,-2.35
12:24:22.671875,-3.26
12:24:22.687500,-4.08
12:24:22.703125,-4.89
12:24:22.718750,-5.88
12:24:22.734375,-7.22
12:24:22.750000,-8.94
12:24:22.765625,-10.88
12:24:22.781250,-12.73
12:24:22.796875,-14.17
12:24:22.812500,-14.93
12:24:22.828125,-14.93
12:24:22.843750,-14.19
12:24:22.859375,-12.82
12:24:22.875000,-10.87
12:24:22.890625,-8.40
12:24:22.906250,-5.46
12:24:22.921875,-2.19
12:24:22.937500,1.17
12:24:22.953125,4.37
12:24:22.968750,7.18
12:24:22.984375,9.56
12:24:23,11.59
12:24:23.015625,13.45
12:24:23.031250,15.28
12:24:23.046875,17.05
12:24:23.062500,18.57
12:24:23.078125,19.60
12:24:23.093750,19.95
12:24:23.109375,19.65
12:24:23.125000,18.89
12:24:23.140625,18.02
12:24:23.156250,17.32
12:24:23.171875,16.93
12:24:23.187500,16.79
12:24:23.203125,16.75
12:24:23.218750,16.60
12:24:23.234375,16.20
12:24:23.250000,15.53
12:24:23.265625,14.58
12:24:23.281250,13.37
12:24:23.296875,11.89
12:24:23.312500,10.06
12:24:23.328125,7.87
12:24:23.343750,5.30
12:24:23.359375,2.48
12:24:23.375000,-0.46
12:24:23.390625,-3.28
12:24:23.406250,-5.81
12:24:23.421875,-7.91
12:24:23.437500,-9.54
12:24:23.453125,-10.80
12:24:23.468750,-11.83
12:24:23.484375,-12.85
12:24:23.500000,-14.04
12:24:23.515625,-15.55
12:24:23.531250,-17.47
12:24:23.546875,-19.87
12:24:23.562500,-22.71
12:24:23.578125,-25.87
12:24:23.593750,-29.06
12:24:23.609375,-31.88
12:24:23.625000,-33.88
12:24:23.640625,-34.69
12:24:23.656250,-34.19
12:24:23.671875,-32.45
12:24:23.687500,-29.77
12:24:23.703125,-26.51
12:24:23.718750,-23.00
12:24:23.734375,-19.58
12:24:23.750000,-16.44
12:24:23.765625,-13.78
12:24:23.781250,-11.62
12:24:23.796875,-9.93
12:24:23.812500,-8.53
12:24:23.828125,-7.20
12:24:23.843750,-5.80
12:24:23.859375,-4.30
12:24:23.875000,-2.83
12:24:23.890625,-1.58
12:24:23.906250,-0.64
12:24:23.921875,0.06
12:24:23.937500,0.76
12:24:23.953125,1.73
12:24:23.968750,3.19
12:24:23.984375,5.10
12:24:24,7.29
12:24:24.015625,9.42
12:24:24.031250,11.24
12:24:24.046875,12.60
12:24:24.062500,13.50
12:24:24.078125,13.98
12:24:24.093750,14.08
12:24:24.109375,13.79
12:24:24.125000,13.08
12:24:24.140625,11.95
12:24:24.156250,10.46
12:24:24.171875,8.75
12:24:24.187500,6.98
12:24:24.203125,5.30
12:24:24.218750,3.80
12:24:24.234375,2.55
12:24:24.250000,1.51
12:24:24.265625,0.59
12:24:24.281250,-0.31
12:24:24.296875,-1.25
12:24:24.312500,-2.21
12:24:24.328125,-3.10
12:24:24.343750,-3.79
12:24:24.359375,-4.19
12:24:24.375000,-4.36
12:24:24.390625,-4.42
12:24:24.406250,-4.50
12:24:24.421875,-4.58
12:24:24.437500,-4.47
12:24:24.453125,-3.89
12:24:24.468750,-2.56
12:24:24.484375,-0.40
12:24:24.500000,2.51
12:24:24.515625,5.94
12:24:24.531250,9.59
12:24:24.546875,13.20
12:24:24.562500,16.57
12:24:24.578125,19.52
12:24:24.593750,21.89
12:24:24.609375,23.56
12:24:24.625000,24.50
12:24:24.640625,24.82
12:24:24.656250,24.69
12:24:24.671875,24.35
12:24:24.687500,23.97
12:24:24.703125,23.61
12:24:24.718750,23.24
12:24:24.734375,22.81
12:24:24.750000,22.31
12:24:24.765625,21.81
12:24:24.781250,21.46
12:24:24.796875,21.37
12:24:24.812500,21.53
12:24:24.828125,21.86
12:24:24.843750,22.18
12:24:24.859375,22.34
12:24:24.875000,22.23
12:24:24.890625,21.84
12:24:24.906250,21.20
12:24:24.921875,20.31
12:24:24.937500,19.16
12:24:24.953125,17.70
12:24:24.968750,15.95
12:24:24.984375,14.02
12:24:25,12.09
12:24:25.015625,10.37
12:24:25.031250,8.93
12:24:25.046875,7.66
12:24:25.062500,6.39
12:24:25.078125,4.90
12:24:25.093750,3.08
12:24:25.109375,1.02
12:24:25.125000,-0.96
12:24:25.140625,-2.58
12:24:25.156250,-3.70
12:24:25.171875,-4.50
12:24:25.187500,-5.39
12:24:25.203125,-6.77
12:24:25.218750,-8.86
12:24:25.234375,-11.58
12:24:25.250000,-14.56
12:24:25.265625,-17.17
12:24:25.281250,-18.96
12:24:25.296875,-19.78
12:24:25.312500,-19.90
12:24:25.328125,-19.77
12:24:25.343750,-19.81
12:24:25.359375,-20.24
12:24:25.375000,-21.15
12:24:25.390625,-22.58
12:24:25.406250,-24.06
12:24:25.421875,-25.20
12:24:25.437500,-25.64
12:24:25.453125,-24.98
12:24:25.468750,-22.67
12:24:25.484375,-18.26
12:24:25.500000,-12.08
12:24:25.515625,-5.71
12:24:25.531250,-1.76
12:24:25.546875,-1.99
12:24:25.562500,-7.06
12:24:25.578125,-16.04
12:24:25.593750,-26.69
12:24:25.609375,-36.24
12:24:25.625000,-42.57
12:24:25.640625,-45.11
12:24:25.656250,-44.93
12:24:25.671875,-43.84
12:24:25.687500,-41.61
12:24:25.703125,-36.87
12:24:25.718750,-27.96
12:24:25.734375,-14.17
12:24:25.750000,3.71
12:24:25.765625,23.63
12:24:25.781250,43.13
12:24:25.796875,60.24
12:24:25.812500,74.20
12:24:25.828125,87.28
12:24:25.843750,101.74
12:24:25.859375,118.26
12:24:25.875000,135.41
12:24:25.890625,150.96
12:24:25.906250,164.00
12:24:25.921875,175.72
12:24:25.937500,188.94
12:24:25.953125,194.15
12:24:25.968750,184.43
12:24:25.984375,157.35
12:24:26,116.70
12:24:26.015625,69.61
12:24:26.031250,23.01
12:24:26.046875,-17.69
12:24:26.062500,-48.99
12:24:26.078125,-69.93
12:24:26.093750,-82.13
12:24:26.109375,-87.00
12:24:26.125000,-86.32
12:24:26.140625,-82.05
12:24:26.156250,-75.82
12:24:26.171875,-68.80
12:24:26.187500,-61.71
12:24:26.203125,-55.24
12:24:26.218750,-50.28
12:24:26.234375,-47.59
12:24:26.250000,-45.98
12:24:26.265625,-43.79
12:24:26.281250,-40.24
12:24:26.296875,-35.29
12:24:26.312500,-29.38
12:24:26.328125,-23.03
12:24:26.343750,-16.81
12:24:26.359375,-11.31
12:24:26.375000,-6.97
12:24:26.390625,-3.13
12:24:26.406250,1.61
12:24:26.421875,6.97
12:24:26.437500,12.43
12:24:26.453125,17.73
12:24:26.468750,23.01
12:24:26.484375,28.45
12:24:26.500000,33.95
12:24:26.515625,39.26
12:24:26.531250,44.77
12:24:26.546875,51.16
12:24:26.562500,56.36
12:24:26.578125,58.87
12:24:26.593750,58.53
12:24:26.609375,56.53
12:24:26.625000,54.24
12:24:26.640625,52.52
12:24:26.656250,51.74
12:24:26.671875,52.39
12:24:26.687500,55.10
12:24:26.703125,56.39
12:24:26.718750,53.84
12:24:26.734375,47.28
12:24:26.750000,38.52
12:24:26.765625,29.36
12:24:26.781250,20.26
12:24:26.796875,10.12
12:24:26.812500,-3.76
12:24:26.828125,-18.41
12:24:26.843750,-38.07
12:24:26.859375,-66.12
12:24:26.875000,-103.10
12:24:26.890625,-146.77
12:24:26.906250,-194.41
12:24:26.921875,-244.44
12:24:26.937500,-296.28
12:24:26.953125,-349.67
12:24:26.968750,-378.25
12:24:26.984375,-368.07
12:24:27,-323.17
12:24:27.015625,-261.90
12:24:27.031250,-201.63
12:24:27.046875,-150.91
12:24:27.062500,-111.09
12:24:27.078125,-80.18
12:24:27.093750,-55.20
12:24:27.109375,-33.27
12:24:27.125000,-16.93
12:24:27.140625,-7.79
12:24:27.156250,-5.36
12:24:27.171875,-6.84
12:24:27.187500,-9.42
12:24:27.203125,-11.56
12:24:27.218750,-12.67
12:24:27.234375,-12.37
12:24:27.250000,-10.07
12:24:27.265625,-8.68
12:24:27.281250,-10.00
12:24:27.296875,-14.33
12:24:27.312500,-20.23
12:24:27.328125,-26.21
12:24:27.343750,-31.54
12:24:27.359375,-35.79
12:24:27.375000,-38.30
12:24:27.390625,-37.94
12:24:27.406250,-38.13
12:24:27.421875,-38.33
12:24:27.437500,-38.15
12:24:27.453125,-37.08
12:24:27.468750,-34.93
12:24:27.484375,-32.26
12:24:27.500000,-30.03
12:24:27.515625,-29.37
12:24:27.531250,-31.29
12:24:27.546875,-36.79
12:24:27.562500,-44.57
12:24:27.578125,-50.78
12:24:27.593750,-50.33
12:24:27.609375,-39.71
12:24:27.625000,-19.03
12:24:27.640625,7.56
12:24:27.656250,33.80
12:24:27.671875,54.22
12:24:27.687500,66.16
12:24:27.703125,71.01
12:24:27.718750,73.08
12:24:27.734375,76.98
12:24:27.750000,85.32
12:24:27.765625,98.21
12:24:27.781250,113.85
12:24:27.796875,129.91
12:24:27.812500,144.45
12:24:27.828125,156.42
12:24:27.843750,160.17
12:24:27.859375,152.08
12:24:27.875000,130.10
12:24:27.890625,94.58
12:24:27.906250,48.35
12:24:27.921875,-3.66
12:24:27.937500,-55.44
12:24:27.953125,-101.07
12:24:27.968750,-135.81
12:24:27.984375,-157.11
12:24:28,-164.51
12:24:28.015625,-160.56
12:24:28.031250,-150.10
12:24:28.046875,-138.70
12:24:28.062500,-130.95
12:24:28.078125,-128.95
12:24:28.093750,-132.03
12:24:28.109375,-137.60
12:24:28.125000,-142.62
12:24:28.140625,-144.60
12:24:28.156250,-142.84
12:24:28.171875,-138.17
12:24:28.187500,-132.02
12:24:28.203125,-125.41
12:24:28.218750,-118.50
12:24:28.234375,-110.73
12:24:28.250000,-101.42
12:24:28.265625,-90.34
12:24:28.281250,-77.49
12:24:28.296875,-63.45
12:24:28.312500,-49.02
12:24:28.328125,-34.90
12:24:28.343750,-21.52
12:24:28.359375,-9.04
12:24:28.375000,2.69
12:24:28.390625,13.89
12:24:28.406250,24.79
12:24:28.421875,35.70
12:24:28.437500,46.68
12:24:28.453125,57.56
12:24:28.468750,68.13
12:24:28.484375,78.18
12:24:28.500000,87.72
12:24:28.515625,97.05
12:24:28.531250,106.62
12:24:28.546875,117.03
12:24:28.562500,129.14
12:24:28.578125,143.97
12:24:28.593750,162.56
12:24:28.609375,185.42
12:24:28.625000,211.77
12:24:28.640625,239.05
12:24:28.656250,263.06
12:24:28.671875,279.06
12:24:28.687500,283.46
12:24:28.703125,275.14
12:24:28.718750,255.84
12:24:28.734375,229.42
12:24:28.750000,200.21
12:24:28.765625,171.59
12:24:28.781250,145.31
12:24:28.796875,121.74
12:24:28.812500,100.66
12:24:28.828125,82.01
12:24:28.843750,66.08
12:24:28.859375,53.22
12:24:28.875000,43.53
12:24:28.890625,36.56
12:24:28.906250,31.60
12:24:28.921875,27.90
12:24:28.937500,24.97
12:24:28.953125,22.59
12:24:28.968750,20.86
12:24:28.984375,19.95
12:24:29,19.83
12:24:29.015625,20.31
12:24:29.031250,20.81
12:24:29.046875,20.65
12:24:29.062500,19.24
12:24:29.078125,16.39
12:24:29.093750,12.50
12:24:29.109375,8.38
12:24:29.125000,4.92
12:24:29.140625,2.64
12:24:29.156250,1.44
12:24:29.171875,0.71
12:24:29.187500,-0.30
12:24:29.203125,-2.12
12:24:29.218750,-4.74
12:24:29.234375,-7.71
12:24:29.250000,-10.43
12:24:29.265625,-12.53
12:24:29.281250,-13.98
12:24:29.296875,-15.03
12:24:29.312500,-16.09
12:24:29.328125,-17.40
12:24:29.343750,-19.00
12:24:29.359375,-20.78
12:24:29.375000,-22.49
12:24:29.390625,-23.98
12:24:29.406250,-25.13
12:24:29.421875,-25.96
12:24:29.437500,-26.57
12:24:29.453125,-27.11
12:24:29.468750,-27.81
12:24:29.484375,-28.88
12:24:29.500000,-30.51
12:24:29.515625,-32.78
12:24:29.531250,-35.66
12:24:29.546875,-38.99
12:24:29.562500,-42.48
12:24:29.578125,-45.75
12:24:29.593750,-48.36
12:24:29.609375,-49.87
12:24:29.625000,-49.94
12:24:29.640625,-48.35
12:24:29.656250,-45.03
12:24:29.671875,-40.12
12:24:29.687500,-33.88
12:24:29.703125,-26.70
12:24:29.718750,-19.06
12:24:29.734375,-11.46
12:24:29.750000,-4.39
12:24:29.765625,1.67
12:24:29.781250,6.42
12:24:29.796875,9.70
12:24:29.812500,11.57
12:24:29.828125,12.26
12:24:29.843750,12.16
12:24:29.859375,11.66
12:24:29.875000,11.10
12:24:29.890625,10.63
12:24:29.906250,10.26
12:24:29.921875,9.88
12:24:29.937500,9.38
12:24:29.953125,8.74
12:24:29.968750,8.08
12:24:29.984375,7.64
12:24:30,7.70
12:24:30.015625,8.37
12:24:30.031250,9.64
12:24:30.046875,11.28
12:24:30.062500,12.95
12:24:30.078125,14.28
12:24:30.093750,14.93
12:24:30.109375,14.66
12:24:30.125000,13.32
12:24:30.140625,10.87
12:24:30.156250,7.41
12:24:30.171875,3.13
12:24:30.187500,-1.66
12:24:30.203125,-6.61
12:24:30.218750,-11.40
12:24:30.234375,-15.86
12:24:30.250000,-19.94
12:24:30.265625,-23.75
12:24:30.281250,-27.43
12:24:30.296875,-31.04
12:24:30.312500,-34.45
12:24:30.328125,-37.36
12:24:30.343750,-39.33
12:24:30.359375,-39.91
12:24:30.375000,-38.83
12:24:30.390625,-36.11
12:24:30.406250,-32.06
12:24:30.421875,-27.21
12:24:30.437500,-22.15
12:24:30.453125,-17.31
12:24:30.468750,-12.91
12:24:30.484375,-8.89
12:24:30.500000,-5.06
12:24:30.515625,-1.27
12:24:30.531250,2.47
12:24:30.546875,6.01
12:24:30.562500,9.10
12:24:30.578125,11.56
12:24:30.593750,13.40
12:24:30.609375,14.76
12:24:30.625000,15.84
12:24:30.640625,16.79
12:24:30.656250,17.60
12:24:30.671875,18.17
12:24:30.687500,18.38
12:24:30.703125,18.22
12:24:30.718750,17.82
12:24:30.734375,17.38
12:24:30.750000,17.05
12:24:30.765625,16.86
12:24:30.781250,16.70
12:24:30.796875,16.33
12:24:30.812500,15.56
12:24:30.828125,14.31
12:24:30.843750,12.60
12:24:30.859375,10.54
12:24:30.875000,8.26
12:24:30.890625,5.81
12:24:30.906250,3.25
12:24:30.921875,0.62
12:24:30.937500,-1.99
12:24:30.953125,-4.51
12:24:30.968750,-6.84
12:24:30.984375,-8.96
12:24:31,-10.95
12:24:31.015625,-12.95
12:24:31.031250,-15.15
12:24:31.046875,-17.66
12:24:31.062500,-20.45
12:24:31.078125,-23.27
12:24:31.093750,-25.70
12:24:31.109375,-27.23
12:24:31.125000,-27.44
12:24:31.140625,-26.10
12:24:31.156250,-23.26
12:24:31.171875,-19.23
12:24:31.187500,-14.46
12:24:31.203125,-9.41
12:24:31.218750,-4.41
12:24:31.234375,0.34
12:24:31.250000,4.75
12:24:31.265625,8.73
12:24:31.281250,12.18
12:24:31.296875,14.95
12:24:31.312500,16.88
12:24:31.328125,17.94
12:24:31.343750,18.16
12:24:31.359375,17.70
12:24:31.375000,16.78
12:24:31.390625,15.61
12:24:31.406250,14.34
12:24:31.421875,13.09
12:24:31.437500,11.94
12:24:31.453125,10.98
12:24:31.468750,10.30
12:24:31.484375,9.99
12:24:31.500000,10.03
12:24:31.515625,10.39
12:24:31.531250,10.89
12:24:31.546875,11.31
12:24:31.562500,11.40
12:24:31.578125,10.95
12:24:31.593750,9.88
12:24:31.609375,8.20
12:24:31.625000,6.06
12:24:31.640625,3.67
12:24:31.656250,1.21
12:24:31.671875,-1.22
12:24:31.687500,-3.62
12:24:31.703125,-6.05
12:24:31.718750,-8.57
12:24:31.734375,-11.21
12:24:31.750000,-13.99
12:24:31.765625,-16.86
12:24:31.781250,-19.71
12:24:31.796875,-22.31
12:24:31.812500,-24.32
12:24:31.828125,-25.26
12:24:31.843750,-24.70
12:24:31.859375,-22.39
12:24:31.875000,-18.33
12:24:31.890625,-12.93
12:24:31.906250,-6.84
12:24:31.921875,-0.87
12:24:31.937500,4.31
12:24:31.953125,8.23
12:24:31.968750,10.79
12:24:31.984375,12.17
12:24:32,12.74
12:24:32.015625,12.86
12:24:32.031250,12.81
12:24:32.046875,12.63
12:24:32.062500,12.29
12:24:32.078125,11.74
12:24:32.093750,11.01
12:24:32.109375,10.21
12:24:32.125000,9.39
12:24:32.140625,8.57
12:24:32.156250,7.61
12:24:32.171875,6.40
12:24:32.187500,4.92
12:24:32.203125,3.35
12:24:32.218750,2.00
12:24:32.234375,1.10
12:24:32.250000,0.69
12:24:32.265625,0.59
12:24:32.281250,0.47
12:24:32.296875,0.11
12:24:32.312500,-0.53
12:24:32.328125,-1.32
12:24:32.343750,-2.05
12:24:32.359375,-2.63
12:24:32.375000,-3.10
12:24:32.390625,-3.60
12:24:32.406250,-4.29
12:24:32.421875,-5.29
12:24:32.437500,-6.61
12:24:32.453125,-8.29
12:24:32.468750,-10.37
12:24:32.484375,-12.88
12:24:32.500000,-15.77
12:24:32.515625,-18.83
12:24:32.531250,-21.71
12:24:32.546875,-23.93
12:24:32.562500,-25.04
12:24:32.578125,-24.74
12:24:32.593750,-22.89
12:24:32.609375,-19.59
12:24:32.625000,-15.07
12:24:32.640625,-9.66
12:24:32.656250,-3.73
12:24:32.671875,2.28
12:24:32.687500,7.98
12:24:32.703125,12.98
12:24:32.718750,16.99
12:24:32.734375,19.81
12:24:32.750000,21.36
12:24:32.765625,21.70
12:24:32.781250,20.95
12:24:32.796875,19.33
12:24:32.812500,17.13
12:24:32.828125,14.69
12:24:32.843750,12.39
12:24:32.859375,10.53
12:24:32.875000,9.37
12:24:32.890625,9.00
12:24:32.906250,9.45
12:24:32.921875,10.63
12:24:32.937500,12.36
12:24:32.953125,14.33
12:24:32.968750,16.16
12:24:32.984375,17.44
12:24:33,17.83
12:24:33.015625,17.16
12:24:33.031250,15.46
12:24:33.046875,12.89
12:24:33.062500,9.73
12:24:33.078125,6.33
12:24:33.093750,3.02
12:24:33.109375,0.07
12:24:33.125000,-2.35
12:24:33.140625,-4.28
12:24:33.156250,-5.92
12:24:33.171875,-7.60
12:24:33.187500,-9.62
12:24:33.203125,-12.15
12:24:33.218750,-15.14
12:24:33.234375,-18.33
12:24:33.250000,-21.33
12:24:33.265625,-23.75
12:24:33.281250,-25.28
12:24:33.296875,-25.66
12:24:33.312500,-24.78
12:24:33.328125,-22.60
12:24:33.343750,-19.21
12:24:33.359375,-14.87
12:24:33.375000,-9.95
12:24:33.390625,-4.89
12:24:33.406250,-0.05
12:24:33.421875,4.30
12:24:33.437500,8.06
12:24:33.453125,11.21
12:24:33.468750,13.74
12:24:33.484375,15.64
12:24:33.500000,16.84
12:24:33.515625,17.35
12:24:33.531250,17.23
12:24:33.546875,16.70
12:24:33.562500,15.97
12:24:33.578125,15.24
12:24:33.593750,14.63
12:24:33.609375,14.11
12:24:33.625000,13.68
12:24:33.640625,13.28
12:24:33.656250,12.89
12:24:33.671875,12.50
12:24:33.687500,12.05
12:24:33.703125,11.46
12:24:33.718750,10.70
12:24:33.734375,9.72
12:24:33.750000,8.56
12:24:33.765625,7.26
12:24:33.781250,5.86
12:24:33.796875,4.43
12:24:33.812500,3.01
12:24:33.828125,1.66
12:24:33.843750,0.40
12:24:33.859375,-0.81
12:24:33.875000,-2.08
12:24:33.890625,-3.55
12:24:33.906250,-5.35
12:24:33.921875,-7.55
12:24:33.937500,-10.09
12:24:33.953125,-12.84
12:24:33.968750,-15.58
12:24:33.984375,-18.06
12:24:34,-20.04
12:24:34.015625,-21.33
12:24:34.031250,-21.75
12:24:34.046875,-21.16
12:24:34.062500,-19.49
12:24:34.078125,-16.73
12:24:34.093750,-13.00
12:24:34.109375,-8.54
12:24:34.125000,-3.68
12:24:34.140625,1.13
12:24:34.156250,5.45
12:24:34.171875,8.95
12:24:34.187500,11.47
12:24:34.203125,13.09
12:24:34.218750,14.01
12:24:34.234375,14.48
12:24:34.250000,14.63
12:24:34.265625,14.47
12:24:34.281250,13.98
12:24:34.296875,13.17
12:24:34.312500,12.17
12:24:34.328125,11.21
12:24:34.343750,10.50
12:24:34.359375,10.12
12:24:34.375000,9.99
12:24:34.390625,9.95
12:24:34.406250,9.84
12:24:34.421875,9.57
12:24:34.437500,9.20
12:24:34.453125,8.81
12:24:34.468750,8.47
12:24:34.484375,8.13
12:24:34.500000,7.64
12:24:34.515625,6.85
12:24:34.531250,5.66
12:24:34.546875,4.09
12:24:34.562500,2.25
12:24:34.578125,0.30
12:24:34.593750,-1.65
12:24:34.609375,-3.57
12:24:34.625000,-5.52
12:24:34.640625,-7.59
12:24:34.656250,-9.86
12:24:34.671875,-12.30
12:24:34.687500,-14.76
12:24:34.703125,-17.05
12:24:34.718750,-19.00
12:24:34.734375,-20.51
12:24:34.750000,-21.56
12:24:34.765625,-22.08
12:24:34.781250,-21.96
12:24:34.796875,-21.04
12:24:34.812500,-19.16
12:24:34.828125,-16.29
12:24:34.843750,-12.58
12:24:34.859375,-8.28
12:24:34.875000,-3.77
12:24:34.890625,0.57
12:24:34.906250,4.40
12:24:34.921875,7.49
12:24:34.937500,9.68
12:24:34.953125,10.97
12:24:34.968750,11.48
12:24:34.984375,11.39
12:24:35,10.93
12:24:35.015625,10.24
12:24:35.031250,9.38
12:24:35.046875,8.38
12:24:35.062500,7.25
12:24:35.078125,6.08
12:24:35.093750,5.04
12:24:35.109375,4.29
12:24:35.125000,3.89
12:24:35.140625,3.80
12:24:35.156250,3.87
12:24:35.171875,3.93
12:24:35.187500,3.84
12:24:35.203125,3.56
12:24:35.218750,3.07
12:24:35.234375,2.39
12:24:35.250000,1.54
12:24:35.265625,0.52
12:24:35.281250,-0.65
12:24:35.296875,-1.95
12:24:35.312500,-3.35
12:24:35.328125,-4.84
12:24:35.343750,-6.39
12:24:35.359375,-8.02
12:24:35.375000,-9.75
12:24:35.390625,-11.65
12:24:35.406250,-13.80
12:24:35.421875,-16.25
12:24:35.437500,-18.84
12:24:35.453125,-21.31
12:24:35.468750,-23.25
12:24:35.484375,-24.23
12:24:35.500000,-23.93
12:24:35.515625,-22.27
12:24:35.531250,-19.36
12:24:35.546875,-15.51
12:24:35.562500,-11.09
12:24:35.578125,-6.48
12:24:35.593750,-2.05
12:24:35.609375,1.91
12:24:35.625000,5.18
12:24:35.640625,7.68
12:24:35.656250,9.45
12:24:35.671875,10.64
12:24:35.687500,11.43
12:24:35.703125,11.96
12:24:35.718750,12.31
12:24:35.734375,12.51
12:24:35.750000,12.59
12:24:35.765625,12.56
12:24:35.781250,12.45
12:24:35.796875,12.27
12:24:35.812500,11.98
12:24:35.828125,11.56
12:24:35.843750,11.00
12:24:35.859375,10.37
12:24:35.875000,9.70
12:24:35.890625,9.11
12:24:35.906250,8.60
12:24:35.921875,8.13
12:24:35.937500,7.59
12:24:35.953125,6.82
12:24:35.968750,5.73
12:24:35.984375,4.31
12:24:36,2.63
12:24:36.015625,0.85
12:24:36.031250,-0.91
12:24:36.046875,-2.58
12:24:36.062500,-4.20
12:24:36.078125,-5.89
12:24:36.093750,-7.79
12:24:36.109375,-10.00
12:24:36.125000,-12.54
12:24:36.140625,-15.31
12:24:36.156250,-18.12
12:24:36.171875,-20.72
12:24:36.187500,-22.83
12:24:36.203125,-24.15
12:24:36.218750,-24.45
12:24:36.234375,-23.63
12:24:36.250000,-21.72
12:24:36.265625,-18.88
12:24:36.281250,-15.34
12:24:36.296875,-11.37
12:24:36.312500,-7.23
12:24:36.328125,-3.12
12:24:36.343750,0.77
12:24:36.359375,4.31
12:24:36.375000,7.40
12:24:36.390625,10.02
12:24:36.406250,12.15
12:24:36.421875,13.78
12:24:36.437500,14.89
12:24:36.453125,15.44
12:24:36.468750,15.38
12:24:36.484375,14.74
12:24:36.500000,13.65
12:24:36.515625,12.34
12:24:36.531250,11.08
12:24:36.546875,10.10
12:24:36.562500,9.54
12:24:36.578125,9.35
12:24:36.593750,9.37
12:24:36.609375,9.41
12:24:36.625000,9.28
12:24:36.640625,8.87
12:24:36.656250,8.18
12:24:36.671875,7.28
12:24:36.687500,6.26
12:24:36.703125,5.20
12:24:36.718750,4.14
12:24:36.734375,3.04
12:24:36.750000,1.80
12:24:36.765625,0.36
12:24:36.781250,-1.35
12:24:36.796875,-3.33
12:24:36.812500,-5.52
12:24:36.828125,-7.86
12:24:36.843750,-10.24
12:24:36.859375,-12.61
12:24:36.875000,-14.94
12:24:36.890625,-17.23
12:24:36.906250,-19.48
12:24:36.921875,-21.66
12:24:36.937500,-23.64
12:24:36.953125,-25.20
12:24:36.968750,-26.05
12:24:36.984375,-25.89
12:24:37,-24.51
12:24:37.015625,-21.87
12:24:37.031250,-18.12
12:24:37.046875,-13.58
12:24:37.062500,-8.65
12:24:37.078125,-3.70
12:24:37.093750,0.95
12:24:37.109375,5.08
12:24:37.125000,8.57
12:24:37.140625,11.34
12:24:37.156250,13.34
12:24:37.171875,14.61
12:24:37.187500,15.25
12:24:37.203125,15.39
12:24:37.218750,15.22
12:24:37.234375,14.90
12:24:37.250000,14.52
12:24:37.265625,14.12
12:24:37.281250,13.71
12:24:37.296875,13.30
12:24:37.312500,12.92
12:24:37.328125,12.64
12:24:37.343750,12.52
12:24:37.359375,12.56
12:24:37.375000,12.68
12:24:37.390625,12.74
12:24:37.406250,12.63
12:24:37.421875,12.29
12:24:37.437500,11.70
12:24:37.453125,10.87
12:24:37.468750,9.85
12:24:37.484375,8.64
12:24:37.500000,7.24
12:24:37.515625,5.72
12:24:37.531250,4.18
12:24:37.546875,2.73
12:24:37.562500,1.47
12:24:37.578125,0.40
12:24:37.593750,-0.66
12:24:37.609375,-1.91
12:24:37.625000,-3.57
12:24:37.640625,-5.74
12:24:37.656250,-8.36
12:24:37.671875,-11.23
12:24:37.687500,-14.09
12:24:37.703125,-16.72
12:24:37.718750,-18.88
12:24:37.734375,-20.43
12:24:37.750000,-21.19
12:24:37.765625,-21.02
12:24:37.781250,-19.84
12:24:37.796875,-17.58
12:24:37.812500,-14.31
12:24:37.828125,-10.20
12:24:37.843750,-5.54
12:24:37.859375,-0.66
12:24:37.875000,4.06
12:24:37.890625,8.30
12:24:37.906250,11.78
12:24:37.921875,14.36
12:24:37.937500,15.99
12:24:37.953125,16.78
12:24:37.968750,16.88
12:24:37.984375,16.54
12:24:38,15.97
12:24:38.015625,15.38
12:24:38.031250,14.88
12:24:38.046875,14.53
12:24:38.062500,14.31
12:24:38.078125,14.18
12:24:38.093750,14.09
12:24:38.109375,13.97
12:24:38.125000,13.74
12:24:38.140625,13.27
12:24:38.156250,12.47
12:24:38.171875,11.29
12:24:38.187500,9.79
12:24:38.203125,8.09
12:24:38.218750,6.30
12:24:38.234375,4.41
12:24:38.250000,2.35
12:24:38.265625,-0.06
12:24:38.281250,-2.93
12:24:38.296875,-6.24
12:24:38.312500,-9.79
12:24:38.328125,-13.24
12:24:38.343750,-16.30
12:24:38.359375,-18.79
12:24:38.375000,-20.73
12:24:38.390625,-22.28
12:24:38.406250,-23.67
12:24:38.421875,-25.05
12:24:38.437500,-26.53
12:24:38.453125,-28.06
12:24:38.468750,-29.49
12:24:38.484375,-30.61
12:24:38.500000,-31.16
12:24:38.515625,-30.93
12:24:38.531250,-29.73
12:24:38.546875,-27.43
12:24:38.562500,-24.03
12:24:38.578125,-19.65
12:24:38.593750,-14.51
12:24:38.609375,-8.91
12:24:38.625000,-3.15
12:24:38.640625,2.53
12:24:38.656250,7.97
12:24:38.671875,12.95
12:24:38.687500,17.19
12:24:38.703125,20.38
12:24:38.718750,22.19
12:24:38.734375,22.55
12:24:38.750000,21.69
12:24:38.765625,20.11
12:24:38.781250,18.42
12:24:38.796875,17.12
12:24:38.812500,16.40
12:24:38.828125,16.16
12:24:38.843750,16.13
12:24:38.859375,15.99
12:24:38.875000,15.58
12:24:38.890625,14.86
12:24:38.906250,13.91
12:24:38.921875,12.84
12:24:38.937500,11.78
12:24:38.953125,10.76
12:24:38.968750,9.80
12:24:38.984375,8.82
12:24:39,7.72
12:24:39.015625,6.37
12:24:39.031250,4.73
12:24:39.046875,2.87
12:24:39.062500,0.94
12:24:39.078125,-0.89
12:24:39.093750,-2.50
12:24:39.109375,-3.89
12:24:39.125000,-5.15
12:24:39.140625,-6.41
12:24:39.156250,-7.76
12:24:39.171875,-9.30
12:24:39.187500,-11.06
12:24:39.203125,-13.05
12:24:39.218750,-15.27
12:24:39.234375,-17.64
12:24:39.250000,-20.02
12:24:39.265625,-22.14
12:24:39.281250,-23.65
12:24:39.296875,-24.21
12:24:39.312500,-23.56
12:24:39.328125,-21.63
12:24:39.343750,-18.52
12:24:39.359375,-14.50
12:24:39.375000,-9.93
12:24:39.390625,-5.18
12:24:39.406250,-0.64
12:24:39.421875,3.39
12:24:39.437500,6.74
12:24:39.453125,9.36
12:24:39.468750,11.33
12:24:39.484375,12.76
12:24:39.500000,13.73
12:24:39.515625,14.22
12:24:39.531250,14.22
12:24:39.546875,13.75
12:24:39.562500,12.97
12:24:39.578125,12.11
12:24:39.593750,11.38
12:24:39.609375,10.88
12:24:39.625000,10.54
12:24:39.640625,10.21
12:24:39.656250,9.72
12:24:39.671875,9.03
12:24:39.687500,8.22
12:24:39.703125,7.40
12:24:39.718750,6.63
12:24:39.734375,5.81
12:24:39.750000,4.80
12:24:39.765625,3.46
12:24:39.781250,1.79
12:24:39.796875,-0.08
12:24:39.812500,-1.93
12:24:39.828125,-3.55
12:24:39.843750,-4.85
12:24:39.859375,-5.88
12:24:39.875000,-6.80
12:24:39.890625,-7.79
12:24:39.906250,-8.99
12:24:39.921875,-10.44
12:24:39.937500,-12.11
12:24:39.953125,-13.93
12:24:39.968750,-15.81
12:24:39.984375,-17.64
12:24:40,-19.26
12:24:40.015625,-20.45
12:24:40.031250,-20.95
12:24:40.046875,-20.50
12:24:40.062500,-18.90
12:24:40.078125,-16.15
12:24:40.093750,-12.44
12:24:40.109375,-8.17
12:24:40.125000,-3.76
12:24:40.140625,0.38
12:24:40.156250,3.98
12:24:40.171875,6.95
12:24:40.187500,9.29
12:24:40.203125,11.03
12:24:40.218750,12.19
12:24:40.234375,12.74
12:24:40.250000,12.70
12:24:40.265625,12.15
12:24:40.281250,11.24
12:24:40.296875,10.17
12:24:40.312500,9.11
12:24:40.328125,8.16
12:24:40.343750,7.38
12:24:40.359375,6.77
12:24:40.375000,6.37
12:24:40.390625,6.19
12:24:40.406250,6.24
12:24:40.421875,6.48
12:24:40.437500,6.79
12:24:40.453125,7.00
12:24:40.468750,6.92
12:24:40.484375,6.40
12:24:40.500000,5.38
12:24:40.515625,3.91
12:24:40.531250,2.10
12:24:40.546875,0.14
12:24:40.562500,-1.80
12:24:40.578125,-3.58
12:24:40.593750,-5.16
12:24:40.609375,-6.55
12:24:40.625000,-7.87
12:24:40.640625,-9.34
12:24:40.656250,-11.21
12:24:40.671875,-13.67
12:24:40.687500,-16.70
12:24:40.703125,-20.01
12:24:40.718750,-23.06
12:24:40.734375,-25.24
12:24:40.750000,-26.03
12:24:40.765625,-25.18
12:24:40.781250,-22.76
12:24:40.796875,-19.06
12:24:40.812500,-14.50
12:24:40.828125,-9.54
12:24:40.843750,-4.56
12:24:40.859375,0.11
12:24:40.875000,4.24
12:24:40.890625,7.72
12:24:40.906250,10.50
12:24:40.921875,12.60
12:24:40.937500,14.05
12:24:40.953125,14.89
12:24:40.968750,15.17
12:24:40.984375,14.96
12:24:41,14.44
12:24:41.015625,13.80
12:24:41.031250,13.22
12:24:41.046875,12.77
12:24:41.062500,12.45
12:24:41.078125,12.18
12:24:41.093750,11.94
12:24:41.109375,11.72
12:24:41.125000,11.58
12:24:41.140625,11.56
12:24:41.156250,11.59
12:24:41.171875,11.61
12:24:41.187500,11.46
12:24:41.203125,11.00
12:24:41.218750,10.11
12:24:41.234375,8.76
12:24:41.250000,6.97
12:24:41.265625,4.91
12:24:41.281250,2.80
12:24:41.296875,0.88
12:24:41.312500,-0.72
12:24:41.328125,-2.01
12:24:41.343750,-3.20
12:24:41.359375,-4.54
12:24:41.375000,-6.24
12:24:41.390625,-8.42
12:24:41.406250,-11.05
12:24:41.421875,-14.02
12:24:41.437500,-17.15
12:24:41.453125,-20.16
12:24:41.468750,-22.66
12:24:41.484375,-24.15
12:24:41.500000,-24.11
12:24:41.515625,-22.21
12:24:41.531250,-18.40
12:24:41.546875,-13.15
12:24:41.562500,-7.25
12:24:41.578125,-1.60
12:24:41.593750,3.05
12:24:41.609375,6.38
12:24:41.625000,8.50
12:24:41.640625,9.80
12:24:41.656250,10.72
12:24:41.671875,11.55
12:24:41.687500,12.35
12:24:41.703125,13.00
12:24:41.718750,13.39
12:24:41.734375,13.47
12:24:41.750000,13.40
12:24:41.765625,13.32
12:24:41.781250,13.39
12:24:41.796875,13.60
12:24:41.812500,13.82
12:24:41.828125,13.89
12:24:41.843750,13.70
12:24:41.859375,13.29
12:24:41.875000,12.80
12:24:41.890625,12.36
12:24:41.906250,12.03
12:24:41.921875,11.73
12:24:41.937500,11.29
12:24:41.953125,10.54
12:24:41.968750,9.48
12:24:41.984375,8.22
12:24:42,6.97
12:24:42.015625,5.84
12:24:42.031250,4.79
12:24:42.046875,3.65
12:24:42.062500,2.21
12:24:42.078125,0.37
12:24:42.093750,-1.79
12:24:42.109375,-4.02
12:24:42.125000,-6.02
12:24:42.140625,-7.63
12:24:42.156250,-8.90
12:24:42.171875,-10.07
12:24:42.187500,-11.45
12:24:42.203125,-13.30
12:24:42.218750,-15.63
12:24:42.234375,-18.25
12:24:42.250000,-20.75
12:24:42.265625,-22.69
12:24:42.281250,-23.63
12:24:42.296875,-23.31
12:24:42.312500,-21.61
12:24:42.328125,-18.57
12:24:42.343750,-14.43
12:24:42.359375,-9.49
12:24:42.375000,-4.20
12:24:42.390625,1.01
12:24:42.406250,5.74
12:24:42.421875,9.69
12:24:42.437500,12.72
12:24:42.453125,14.78
12:24:42.468750,15.95
12:24:42.484375,16.36
12:24:42.500000,16.25
12:24:42.515625,15.84
12:24:42.531250,15.33
12:24:42.546875,14.88
12:24:42.562500,14.52
12:24:42.578125,14.20
12:24:42.593750,13.89
12:24:42.609375,13.54
12:24:42.625000,13.20
12:24:42.640625,12.92
12:24:42.656250,12.74
12:24:42.671875,12.63
12:24:42.687500,12.52
12:24:42.703125,12.35
12:24:42.718750,12.02
12:24:42.734375,11.50
12:24:42.750000,10.76
12:24:42.765625,9.84
12:24:42.781250,8.77
12:24:42.796875,7.63
12:24:42.812500,6.51
12:24:42.828125,5.44
12:24:42.843750,4.36
12:24:42.859375,3.16
12:24:42.875000,1.71
12:24:42.890625,-0.04
12:24:42.906250,-2.01
12:24:42.921875,-4.01
12:24:42.937500,-5.83
12:24:42.953125,-7.34
12:24:42.968750,-8.60
12:24:42.984375,-9.75
12:24:43,-11.00
12:24:43.015625,-12.47
12:24:43.031250,-14.19
12:24:43.046875,-16.06
12:24:43.062500,-17.91
12:24:43.078125,-19.50
12:24:43.093750,-20.53
12:24:43.109375,-20.68
12:24:43.125000,-19.63
12:24:43.140625,-17.20
12:24:43.156250,-13.46
12:24:43.171875,-8.78
12:24:43.187500,-3.68
12:24:43.203125,1.22
12:24:43.218750,5.53
12:24:43.234375,9.04
12:24:43.250000,11.81
12:24:43.265625,13.99
12:24:43.281250,15.69
12:24:43.296875,16.92
12:24:43.312500,17.63
12:24:43.328125,17.79
12:24:43.343750,17.47
12:24:43.359375,16.85
12:24:43.375000,16.12
12:24:43.390625,15.45
12:24:43.406250,14.89
12:24:43.421875,14.40
12:24:43.437500,13.94
12:24:43.453125,13.46
12:24:43.468750,12.99
12:24:43.484375,12.58
12:24:43.500000,12.27
12:24:43.515625,12.07
12:24:43.531250,11.92
12:24:43.546875,11.76
12:24:43.562500,11.48
12:24:43.578125,11.02
12:24:43.593750,10.35
12:24:43.609375,9.48
12:24:43.625000,8.47
12:24:43.640625,7.42
12:24:43.656250,6.41
12:24:43.671875,5.47
12:24:43.687500,4.56
12:24:43.703125,3.62
12:24:43.718750,2.56
12:24:43.734375,1.36
12:24:43.750000,0.01
12:24:43.765625,-1.42
12:24:43.781250,-2.92
12:24:43.796875,-4.47
12:24:43.812500,-6.12
12:24:43.828125,-7.95
12:24:43.843750,-10.00
12:24:43.859375,-12.25
12:24:43.875000,-14.52
12:24:43.890625,-16.58
12:24:43.906250,-18.10
12:24:43.921875,-18.75
12:24:43.937500,-18.30
12:24:43.953125,-16.66
12:24:43.968750,-13.93
12:24:43.984375,-10.37
12:24:44,-6.40
12:24:44.015625,-2.39
12:24:44.031250,1.29
12:24:44.046875,4.47
12:24:44.062500,7.07
12:24:44.078125,9.14
12:24:44.093750,10.70
12:24:44.109375,11.81
12:24:44.125000,12.47
12:24:44.140625,12.68
12:24:44.156250,12.51
12:24:44.171875,12.07
12:24:44.187500,11.47
12:24:44.203125,10.78
12:24:44.218750,10.05
12:24:44.234375,9.26
12:24:44.250000,8.45
12:24:44.265625,7.67
12:24:44.281250,7.04
12:24:44.296875,6.65
12:24:44.312500,6.53
12:24:44.328125,6.61
12:24:44.343750,6.75
12:24:44.359375,6.78
12:24:44.375000,6.64
12:24:44.390625,6.31
12:24:44.406250,5.86
12:24:44.421875,5.36
12:24:44.437500,4.85
12:24:44.453125,4.31
12:24:44.468750,3.69
12:24:44.484375,2.93
12:24:44.500000,2.02
12:24:44.515625,0.97
12:24:44.531250,-0.17
12:24:44.546875,-1.34
12:24:44.562500,-2.50
12:24:44.578125,-3.63
12:24:44.593750,-4.76
12:24:44.609375,-5.87
12:24:44.625000,-6.96
12:24:44.640625,-8.06
12:24:44.656250,-9.18
12:24:44.671875,-10.37
12:24:44.687500,-11.62
12:24:44.703125,-12.81
12:24:44.718750,-13.73
12:24:44.734375,-14.11
12:24:44.750000,-13.66
12:24:44.765625,-12.21
12:24:44.781250,-9.80
12:24:44.796875,-6.65
12:24:44.812500,-3.15
12:24:44.828125,0.27
12:24:44.843750,3.25
12:24:44.859375,5.58
12:24:44.875000,7.20
12:24:44.890625,8.20
12:24:44.906250,8.72
12:24:44.921875,8.90
12:24:44.937500,8.84
12:24:44.953125,8.57
12:24:44.968750,8.04
12:24:44.984375,7.28
12:24:45,6.33
12:24:45.015625,5.30
12:24:45.031250,4.32
12:24:45.046875,3.50
12:24:45.062500,2.93
12:24:45.078125,2.64
12:24:45.093750,2.67
12:24:45.109375,2.98
12:24:45.125000,3.47
12:24:45.140625,3.95
12:24:45.156250,4.19
12:24:45.171875,3.99
12:24:45.187500,3.31
12:24:45.203125,2.27
12:24:45.218750,1.06
12:24:45.234375,-0.07
12:24:45.250000,-1.01
12:24:45.265625,-1.80
12:24:45.281250,-2.56
12:24:45.296875,-3.43
12:24:45.312500,-4.47
12:24:45.328125,-5.62
12:24:45.343750,-6.77
12:24:45.359375,-7.82
12:24:45.375000,-8.74
12:24:45.390625,-9.60
12:24:45.406250,-10.49
12:24:45.421875,-11.52
12:24:45.437500,-12.71
12:24:45.453125,-14.03
12:24:45.468750,-15.31
12:24:45.484375,-16.37
12:24:45.500000,-16.95
12:24:45.515625,-16.84
12:24:45.531250,-15.87
12:24:45.546875,-13.96
12:24:45.562500,-11.19
12:24:45.578125,-7.76
12:24:45.593750,-4.03
12:24:45.609375,-0.39
12:24:45.625000,2.82
12:24:45.640625,5.38
12:24:45.656250,7.24
12:24:45.671875,8.45
12:24:45.687500,9.18
12:24:45.703125,9.55
12:24:45.718750,9.64
12:24:45.734375,9.52
12:24:45.750000,9.22
12:24:45.765625,8.81
12:24:45.781250,8.33
12:24:45.796875,7.86
12:24:45.812500,7.46
12:24:45.828125,7.16
12:24:45.843750,6.97
12:24:45.859375,6.86
12:24:45.875000,6.73
12:24:45.890625,6.50
12:24:45.906250,6.10
12:24:45.921875,5.56
12:24:45.937500,4.96
12:24:45.953125,4.40
12:24:45.968750,3.97
12:24:45.984375,3.66
12:24:46,3.41
12:24:46.015625,3.14
12:24:46.031250,2.75
12:24:46.046875,2.22
12:24:46.062500,1.50
12:24:46.078125,0.58
12:24:46.093750,-0.57
12:24:46.109375,-1.90
12:24:46.125000,-3.34
12:24:46.140625,-4.75
12:24:46.156250,-6.06
12:24:46.171875,-7.26
12:24:46.187500,-8.40
12:24:46.203125,-9.57
12:24:46.218750,-10.83
12:24:46.234375,-12.16
12:24:46.250000,-13.48
12:24:46.265625,-14.68
12:24:46.281250,-15.63
12:24:46.296875,-16.23
12:24:46.312500,-16.30
12:24:46.328125,-15.67
12:24:46.343750,-14.21
12:24:46.359375,-11.86
12:24:46.375000,-8.74
12:24:46.390625,-5.17
12:24:46.406250,-1.57
12:24:46.421875,1.69
12:24:46.437500,4.33
12:24:46.453125,6.27
12:24:46.468750,7.62
12:24:46.484375,8.54
12:24:46.500000,9.19
12:24:46.515625,9.61
12:24:46.531250,9.76
12:24:46.546875,9.57
12:24:46.562500,9.06
12:24:46.578125,8.36
12:24:46.593750,7.70
12:24:46.609375,7.32
12:24:46.625000,7.28
12:24:46.640625,7.53
12:24:46.656250,7.85
12:24:46.671875,8.00
12:24:46.687500,7.87
12:24:46.703125,7.43
12:24:46.718750,6.82
12:24:46.734375,6.18
12:24:46.750000,5.57
12:24:46.765625,4.98
12:24:46.781250,4.31
12:24:46.796875,3.50
12:24:46.812500,2.56
12:24:46.828125,1.59
12:24:46.843750,0.76
12:24:46.859375,0.13
12:24:46.875000,-0.31
12:24:46.890625,-0.74
12:24:46.906250,-1.35
12:24:46.921875,-2.31
12:24:46.937500,-3.61
12:24:46.953125,-5.06
12:24:46.968750,-6.41
12:24:46.984375,-7.48
12:24:47,-8.29
12:24:47.015625,-8.98
12:24:47.031250,-9.79
12:24:47.046875,-10.88
12:24:47.062500,-12.25
12:24:47.078125,-13.77
12:24:47.093750,-15.21
12:24:47.109375,-16.32
12:24:47.125000,-16.91
12:24:47.140625,-16.83
12:24:47.156250,-16.00
12:24:47.171875,-14.41
12:24:47.187500,-12.13
12:24:47.203125,-9.34
12:24:47.218750,-6.26
12:24:47.234375,-3.15
12:24:47.250000,-0.22
12:24:47.265625,2.39
12:24:47.281250,4.59
12:24:47.296875,6.31
12:24:47.312500,7.54
12:24:47.328125,8.30
12:24:47.343750,8.64
12:24:47.359375,8.67
12:24:47.375000,8.48
12:24:47.390625,8.19
12:24:47.406250,7.88
12:24:47.421875,7.63
12:24:47.437500,7.47
12:24:47.453125,7.42
12:24:47.468750,7.45
12:24:47.484375,7.48
12:24:47.500000,7.40
12:24:47.515625,7.12
12:24:47.531250,6.66
12:24:47.546875,6.07
12:24:47.562500,5.44
12:24:47.578125,4.84
12:24:47.593750,4.28
12:24:47.609375,3.76
12:24:47.625000,3.24
12:24:47.640625,2.72
12:24:47.656250,2.23
12:24:47.671875,1.79
12:24:47.687500,1.40
12:24:47.703125,1.06
12:24:47.718750,0.68
12:24:47.734375,0.17
12:24:47.750000,-0.55
12:24:47.765625,-1.55
12:24:47.781250,-2.79
12:24:47.796875,-4.17
12:24:47.812500,-5.49
12:24:47.828125,-6.62
12:24:47.843750,-7.47
12:24:47.859375,-8.13
12:24:47.875000,-8.77
12:24:47.890625,-9.60
12:24:47.906250,-10.77
12:24:47.921875,-12.26
12:24:47.937500,-13.91
12:24:47.953125,-15.44
12:24:47.968750,-16.53
12:24:47.984375,-16.88
12:24:48,-16.32
12:24:48.015625,-14.80
12:24:48.031250,-12.40
12:24:48.046875,-9.36
12:24:48.062500,-5.98
12:24:48.078125,-2.58
12:24:48.093750,0.58
12:24:48.109375,3.32
12:24:48.125000,5.50
12:24:48.140625,7.01
12:24:48.156250,7.79
12:24:48.171875,7.84
12:24:48.187500,7.29
12:24:48.203125,6.41
12:24:48.218750,5.53
12:24:48.234375,4.95
12:24:48.250000,4.84
12:24:48.265625,5.15
12:24:48.281250,5.64
12:24:48.296875,6.06
12:24:48.312500,6.23
12:24:48.328125,6.11
12:24:48.343750,5.79
12:24:48.359375,5.49
12:24:48.375000,5.36
12:24:48.390625,5.47
12:24:48.406250,5.77
12:24:48.421875,6.13
12:24:48.437500,6.40
12:24:48.453125,6.44
12:24:48.468750,6.20
12:24:48.484375,5.67
12:24:48.500000,4.93
12:24:48.515625,4.08
12:24:48.531250,3.21
12:24:48.546875,2.36
12:24:48.562500,1.55
12:24:48.578125,0.72
12:24:48.593750,-0.20
12:24:48.609375,-1.26
12:24:48.625000,-2.44
12:24:48.640625,-3.66
12:24:48.656250,-4.79
12:24:48.671875,-5.73
12:24:48.687500,-6.45
12:24:48.703125,-6.99
12:24:48.718750,-7.46
12:24:48.734375,-7.96
12:24:48.750000,-8.60
12:24:48.765625,-9.46
12:24:48.781250,-10.58
12:24:48.796875,-11.94
12:24:48.812500,-13.42
12:24:48.828125,-14.74
12:24:48.843750,-15.56
12:24:48.859375,-15.55
12:24:48.875000,-14.50
12:24:48.890625,-12.44
12:24:48.906250,-9.64
12:24:48.921875,-6.51
12:24:48.937500,-3.47
12:24:48.953125,-0.84
12:24:48.968750,1.24
12:24:48.984375,2.79
12:24:49,3.93
12:24:49.015625,4.80
12:24:49.031250,5.50
12:24:49.046875,6.06
12:24:49.062500,6.45
12:24:49.078125,6.61
12:24:49.093750,6.50
12:24:49.109375,6.17
12:24:49.125000,5.76
12:24:49.140625,5.44
12:24:49.156250,5.40
12:24:49.171875,5.69
12:24:49.187500,6.23
12:24:49.203125,6.84
12:24:49.218750,7.33
12:24:49.234375,7.56
12:24:49.250000,7.53
12:24:49.265625,7.31
12:24:49.281250,6.98
12:24:49.296875,6.59
12:24:49.312500,6.12
12:24:49.328125,5.52
12:24:49.343750,4.77
12:24:49.359375,3.93
12:24:49.375000,3.07
12:24:49.390625,2.30
12:24:49.406250,1.66
12:24:49.421875,1.13
12:24:49.437500,0.61
12:24:49.453125,0.04
12:24:49.468750,-0.65
12:24:49.484375,-1.48
12:24:49.500000,-2.38
12:24:49.515625,-3.31
12:24:49.531250,-4.21
12:24:49.546875,-5.06
12:24:49.562500,-5.92
12:24:49.578125,-6.82
12:24:49.593750,-7.82
12:24:49.609375,-8.89
12:24:49.625000,-9.96
12:24:49.640625,-10.94
12:24:49.656250,-11.74
12:24:49.671875,-12.28
12:24:49.687500,-12.49
12:24:49.703125,-12.26
12:24:49.718750,-11.46
12:24:49.734375,-9.98
12:24:49.750000,-7.80
12:24:49.765625,-5.09
12:24:49.781250,-2.17
12:24:49.796875,0.55
12:24:49.812500,2.74
12:24:49.828125,4.25
12:24:49.843750,5.16
12:24:49.859375,5.66
12:24:49.875000,5.98
12:24:49.890625,6.27
12:24:49.906250,6.56
12:24:49.921875,6.77
12:24:49.937500,6.87
12:24:49.953125,6.78
12:24:49.968750,6.53
12:24:49.984375,6.19
12:24:50,5.85
12:24:50.015625,5.58
12:24:50.031250,5.44
12:24:50.046875,5.44
12:24:50.062500,5.51
12:24:50.078125,5.54
12:24:50.093750,5.39
12:24:50.109375,4.97
12:24:50.125000,4.27
12:24:50.140625,3.36
12:24:50.156250,2.32
12:24:50.171875,1.25
12:24:50.187500,0.17
12:24:50.203125,-0.91
12:24:50.218750,-1.97
12:24:50.234375,-2.97
12:24:50.250000,-3.86
12:24:50.265625,-4.61
12:24:50.281250,-5.22
12:24:50.296875,-5.77
12:24:50.312500,-6.31
12:24:50.328125,-6.88
12:24:50.343750,-7.47
12:24:50.359375,-8.05
12:24:50.375000,-8.64
12:24:50.390625,-9.27
12:24:50.406250,-10.03
12:24:50.421875,-11.00
12:24:50.437500,-12.20
12:24:50.453125,-13.52
12:24:50.468750,-14.75
12:24:50.484375,-15.59
12:24:50.500000,-15.78
12:24:50.515625,-15.09
12:24:50.531250,-13.46
12:24:50.546875,-11.01
12:24:50.562500,-7.97
12:24:50.578125,-4.70
12:24:50.593750,-1.52
12:24:50.609375,1.33
12:24:50.625000,3.73
12:24:50.640625,5.68
12:24:50.656250,7.21
12:24:50.671875,8.33
12:24:50.687500,9.07
12:24:50.703125,9.48
12:24:50.718750,9.64
12:24:50.734375,9.70
12:24:50.750000,9.76
12:24:50.765625,9.85
12:24:50.781250,9.93
12:24:50.796875,9.86
12:24:50.812500,9.56
12:24:50.828125,9.02
12:24:50.843750,8.31
12:24:50.859375,7.52
12:24:50.875000,6.65
12:24:50.890625,5.61
12:24:50.906250,4.30
12:24:50.921875,2.61
12:24:50.937500,0.55
12:24:50.953125,-1.75
12:24:50.968750,-4.12
12:24:50.984375,-6.42
12:24:51,-8.55
12:24:51.015625,-10.47
12:24:51.031250,-12.17
12:24:51.046875,-13.62
12:24:51.062500,-14.83
12:24:51.078125,-15.81
12:24:51.093750,-16.64
12:24:51.109375,-17.42
12:24:51.125000,-18.20
12:24:51.140625,-18.97
12:24:51.156250,-19.70
12:24:51.171875,-20.37
12:24:51.187500,-20.98
12:24:51.203125,-21.50
12:24:51.218750,-21.83
12:24:51.234375,-21.83
12:24:51.250000,-21.25
12:24:51.265625,-19.90
12:24:51.281250,-17.72
12:24:51.296875,-14.83
12:24:51.312500,-11.52
12:24:51.328125,-8.11
12:24:51.343750,-4.93
12:24:51.359375,-2.14
12:24:51.375000,0.18
12:24:51.390625,2.01
12:24:51.406250,3.41
12:24:51.421875,4.45
12:24:51.437500,5.23
12:24:51.453125,5.91
12:24:51.468750,6.65
12:24:51.484375,7.51
12:24:51.500000,8.46
12:24:51.515625,9.35
12:24:51.531250,9.99
12:24:51.546875,10.27
12:24:51.562500,10.16
12:24:51.578125,9.77
12:24:51.593750,9.31
12:24:51.609375,8.92
12:24:51.625000,8.69
12:24:51.640625,8.59
12:24:51.656250,8.53
12:24:51.671875,8.40
12:24:51.687500,8.17
12:24:51.703125,7.79
12:24:51.718750,7.29
12:24:51.734375,6.62
12:24:51.750000,5.73
12:24:51.765625,4.58
12:24:51.781250,3.21
12:24:51.796875,1.72
12:24:51.812500,0.27
12:24:51.828125,-1.03
12:24:51.843750,-2.16
12:24:51.859375,-3.15
12:24:51.875000,-4.08
12:24:51.890625,-4.97
12:24:51.906250,-5.83
12:24:51.921875,-6.72
12:24:51.937500,-7.72
12:24:51.953125,-8.98
12:24:51.968750,-10.56
12:24:51.984375,-12.37
12:24:52,-14.14
12:24:52.015625,-15.46
12:24:52.031250,-15.96
12:24:52.046875,-15.45
12:24:52.062500,-14.00
12:24:52.078125,-11.80
12:24:52.093750,-9.15
12:24:52.109375,-6.29
12:24:52.125000,-3.42
12:24:52.140625,-0.69
12:24:52.156250,1.82
12:24:52.171875,4.02
12:24:52.187500,5.92
12:24:52.203125,7.53
12:24:52.218750,8.91
12:24:52.234375,10.07
12:24:52.250000,10.97
12:24:52.265625,11.52
12:24:52.281250,11.66
12:24:52.296875,11.39
12:24:52.312500,10.87
12:24:52.328125,10.35
12:24:52.343750,10.08
12:24:52.359375,10.24
12:24:52.375000,10.83
12:24:52.390625,11.69
12:24:52.406250,12.60
12:24:52.421875,13.33
12:24:52.437500,13.77
12:24:52.453125,13.88
12:24:52.468750,13.72
12:24:52.484375,13.37
12:24:52.500000,12.88
12:24:52.515625,12.35
12:24:52.531250,11.78
12:24:52.546875,11.13
12:24:52.562500,10.24
12:24:52.578125,8.86
12:24:52.593750,6.74
12:24:52.609375,3.75
12:24:52.625000,-0.05
12:24:52.640625,-4.40
12:24:52.656250,-8.94
12:24:52.671875,-13.30
12:24:52.687500,-17.18
12:24:52.703125,-20.35
12:24:52.718750,-22.68
12:24:52.734375,-24.07
12:24:52.750000,-24.49
12:24:52.765625,-23.97
12:24:52.781250,-22.68
12:24:52.796875,-20.83
12:24:52.812500,-18.66
12:24:52.828125,-16.36
12:24:52.843750,-14.09
12:24:52.859375,-11.94
12:24:52.875000,-9.91
12:24:52.890625,-8.02
12:24:52.906250,-6.21
12:24:52.921875,-4.49
12:24:52.937500,-2.89
12:24:52.953125,-1.46
12:24:52.968750,-0.25
12:24:52.984375,0.78
12:24:53,1.71
12:24:53.015625,2.55
12:24:53.031250,3.22
12:24:53.046875,3.53
12:24:53.062500,3.27
12:24:53.078125,2.41
12:24:53.093750,1.18
12:24:53.109375,0.04
12:24:53.125000,-0.57
12:24:53.140625,-0.37
12:24:53.156250,0.63
12:24:53.171875,2.15
12:24:53.187500,3.88
12:24:53.203125,5.59
12:24:53.218750,7.17
12:24:53.234375,8.60
12:24:53.250000,9.78
12:24:53.265625,10.58
12:24:53.281250,10.76
12:24:53.296875,10.20
12:24:53.312500,8.92
12:24:53.328125,7.15
12:24:53.343750,5.18
12:24:53.359375,3.33
12:24:53.375000,1.80
12:24:53.390625,0.67
12:24:53.406250,-0.07
12:24:53.421875,-0.54
12:24:53.437500,-0.87
12:24:53.453125,-1.18
12:24:53.468750,-1.58
12:24:53.484375,-2.17
12:24:53.500000,-2.98
12:24:53.515625,-4.00
12:24:53.531250,-5.15
12:24:53.546875,-6.37
12:24:53.562500,-7.59
12:24:53.578125,-8.77
12:24:53.593750,-9.89
12:24:53.609375,-10.93
12:24:53.625000,-11.79
12:24:53.640625,-12.29
12:24:53.656250,-12.15
12:24:53.671875,-11.13
12:24:53.687500,-9.14
12:24:53.703125,-6.31
12:24:53.718750,-3.00
12:24:53.734375,0.31
12:24:53.750000,3.15
12:24:53.765625,5.26
12:24:53.781250,6.60
12:24:53.796875,7.34
12:24:53.812500,7.73
12:24:53.828125,7.97
12:24:53.843750,8.18
12:24:53.859375,8.37
12:24:53.875000,8.52
12:24:53.890625,8.64
12:24:53.906250,8.79
12:24:53.921875,9.04
12:24:53.937500,9.44
12:24:53.953125,9.95
12:24:53.968750,10.45
12:24:53.984375,10.77
12:24:54,10.82
12:24:54.015625,10.60
12:24:54.031250,10.23
12:24:54.046875,9.91
12:24:54.062500,9.73
12:24:54.078125,9.68
12:24:54.093750,9.59
12:24:54.109375,9.26
12:24:54.125000,8.56
12:24:54.140625,7.52
12:24:54.156250,6.30
12:24:54.171875,5.14
12:24:54.187500,4.16
12:24:54.203125,3.35
12:24:54.218750,2.61
12:24:54.234375,1.82
12:24:54.250000,0.95
12:24:54.265625,0.03
12:24:54.281250,-0.87
12:24:54.296875,-1.66
12:24:54.312500,-2.34
12:24:54.328125,-2.93
12:24:54.343750,-3.52
12:24:54.359375,-4.16
12:24:54.375000,-4.95
12:24:54.390625,-5.89
12:24:54.406250,-6.96
12:24:54.421875,-8.04
12:24:54.437500,-8.95
12:24:54.453125,-9.44
12:24:54.468750,-9.28
12:24:54.484375,-8.36
12:24:54.500000,-6.74
12:24:54.515625,-4.59
12:24:54.531250,-2.18
12:24:54.546875,0.27
12:24:54.562500,2.63
12:24:54.578125,4.82
12:24:54.593750,6.82
12:24:54.609375,8.56
12:24:54.625000,9.98
12:24:54.640625,11.01
12:24:54.656250,11.66
12:24:54.671875,11.97
12:24:54.687500,12.03
12:24:54.703125,11.92
12:24:54.718750,11.66
12:24:54.734375,11.28
12:24:54.750000,10.78
12:24:54.765625,10.18
12:24:54.781250,9.50
12:24:54.796875,8.75
12:24:54.812500,7.87
12:24:54.828125,6.75
12:24:54.843750,5.28
12:24:54.859375,3.38
12:24:54.875000,1.03
12:24:54.890625,-1.69
12:24:54.906250,-4.60
12:24:54.921875,-7.42
12:24:54.937500,-9.85
12:24:54.953125,-11.61
12:24:54.968750,-12.50
12:24:54.984375,-12.48
12:24:55,-11.65
12:24:55.015625,-10.23
12:24:55.031250,-8.46
12:24:55.046875,-6.59
12:24:55.062500,-4.88
12:24:55.078125,-3.57
12:24:55.093750,-2.94
12:24:55.109375,-3.20
12:24:55.125000,-4.46
12:24:55.140625,-6.60
12:24:55.156250,-9.29
12:24:55.171875,-12.04
12:24:55.187500,-14.43
12:24:55.203125,-16.22
12:24:55.218750,-17.45
12:24:55.234375,-18.30
12:24:55.250000,-18.95
12:24:55.265625,-19.42
12:24:55.281250,-19.52
12:24:55.296875,-18.99
12:24:55.312500,-17.65
12:24:55.328125,-15.49
12:24:55.343750,-12.66
12:24:55.359375,-9.39
12:24:55.375000,-5.91
12:24:55.390625,-2.39
12:24:55.406250,1.02
12:24:55.421875,4.13
12:24:55.437500,6.76
12:24:55.453125,8.71
12:24:55.468750,9.92
12:24:55.484375,10.48
12:24:55.500000,10.56
12:24:55.515625,10.42
12:24:55.531250,10.26
12:24:55.546875,10.18
12:24:55.562500,10.20
12:24:55.578125,10.30
12:24:55.593750,10.47
12:24:55.609375,10.68
12:24:55.625000,10.95
12:24:55.640625,11.28
12:24:55.656250,11.62
12:24:55.671875,11.86
12:24:55.687500,11.88
12:24:55.703125,11.54
12:24:55.718750,10.79
12:24:55.734375,9.71
12:24:55.750000,8.49
12:24:55.765625,7.36
12:24:55.781250,6.47
12:24:55.796875,5.85
12:24:55.812500,5.40
12:24:55.828125,4.93
12:24:55.843750,4.28
12:24:55.859375,3.43
12:24:55.875000,2.43
12:24:55.890625,1.43
12:24:55.906250,0.52
12:24:55.921875,-0.31
12:24:55.937500,-1.14
12:24:55.953125,-2.14
12:24:55.968750,-3.39
12:24:55.984375,-4.94
12:24:56,-6.71
12:24:56.015625,-8.64
12:24:56.031250,-10.57
12:24:56.046875,-12.36
12:24:56.062500,-13.86
12:24:56.078125,-14.95
12:24:56.093750,-15.48
12:24:56.109375,-15.37
12:24:56.125000,-14.62
12:24:56.140625,-13.27
12:24:56.156250,-11.47
12:24:56.171875,-9.38
12:24:56.187500,-7.18
12:24:56.203125,-4.99
12:24:56.218750,-2.88
12:24:56.234375,-0.84
12:24:56.250000,1.15
12:24:56.265625,3.04
12:24:56.281250,4.72
12:24:56.296875,6.06
12:24:56.312500,6.90
12:24:56.328125,7.22
12:24:56.343750,7.09
12:24:56.359375,6.68
12:24:56.375000,6.16
12:24:56.390625,5.66
12:24:56.406250,5.24
12:24:56.421875,4.90
12:24:56.437500,4.68
12:24:56.453125,4.61
12:24:56.468750,4.74
12:24:56.484375,5.05
12:24:56.500000,5.44
12:24:56.515625,5.77
12:24:56.531250,5.92
12:24:56.546875,5.86
12:24:56.562500,5.58
12:24:56.578125,5.12
12:24:56.593750,4.52
12:24:56.609375,3.79
12:24:56.625000,2.96
12:24:56.640625,2.09
12:24:56.656250,1.26
12:24:56.671875,0.55
12:24:56.687500,-0.04
12:24:56.703125,-0.58
12:24:56.718750,-1.19
12:24:56.734375,-1.98
12:24:56.750000,-2.97
12:24:56.765625,-4.10
12:24:56.781250,-5.21
12:24:56.796875,-6.18
12:24:56.812500,-7.01
12:24:56.828125,-7.77
12:24:56.843750,-8.61
12:24:56.859375,-9.64
12:24:56.875000,-10.84
12:24:56.890625,-12.05
12:24:56.906250,-12.98
12:24:56.921875,-13.34
12:24:56.937500,-12.89
12:24:56.953125,-11.60
12:24:56.968750,-9.58
12:24:56.984375,-7.07
12:24:57,-4.40
12:24:57.015625,-1.86
12:24:57.031250,0.34
12:24:57.046875,2.14
12:24:57.062500,3.53
12:24:57.078125,4.57
12:24:57.093750,5.35
12:24:57.109375,5.87
12:24:57.125000,6.15
12:24:57.140625,6.17
12:24:57.156250,5.97
12:24:57.171875,5.66
12:24:57.187500,5.40
12:24:57.203125,5.34
12:24:57.218750,5.56
12:24:57.234375,6.01
12:24:57.250000,6.53
12:24:57.265625,6.96
12:24:57.281250,7.18
12:24:57.296875,7.20
12:24:57.312500,7.09
12:24:57.328125,6.96
12:24:57.343750,6.86
12:24:57.359375,6.74
12:24:57.375000,6.52
12:24:57.390625,6.12
12:24:57.406250,5.53
12:24:57.421875,4.81
12:24:57.437500,4.03
12:24:57.453125,3.22
12:24:57.468750,2.39
12:24:57.484375,1.49
12:24:57.500000,0.49
12:24:57.515625,-0.57
12:24:57.531250,-1.62
12:24:57.546875,-2.54
12:24:57.562500,-3.25
12:24:57.578125,-3.76
12:24:57.593750,-4.17
12:24:57.609375,-4.65
12:24:57.625000,-5.36
12:24:57.640625,-6.38
12:24:57.656250,-7.68
12:24:57.671875,-9.17
12:24:57.687500,-10.69
12:24:57.703125,-12.13
12:24:57.718750,-13.33
12:24:57.734375,-14.19
12:24:57.750000,-14.55
12:24:57.765625,-14.29
12:24:57.781250,-13.33
12:24:57.796875,-11.71
12:24:57.812500,-9.62
12:24:57.828125,-7.32
12:24:57.843750,-5.06
12:24:57.859375,-3.02
12:24:57.875000,-1.26
12:24:57.890625,0.30
12:24:57.906250,1.77
12:24:57.921875,3.23
12:24:57.937500,4.68
12:24:57.953125,6.01
12:24:57.968750,7.04
12:24:57.984375,7.61
12:24:58,7.68
12:24:58.015625,7.33
12:24:58.031250,6.78
12:24:58.046875,6.24
12:24:58.062500,5.87
12:24:58.078125,5.71
12:24:58.093750,5.72
12:24:58.109375,5.77
12:24:58.125000,5.78
12:24:58.140625,5.72
12:24:58.156250,5.57
12:24:58.171875,5.35
12:24:58.187500,5.08
12:24:58.203125,4.76
12:24:58.218750,4.42
12:24:58.234375,4.04
12:24:58.250000,3.64
12:24:58.265625,3.20
12:24:58.281250,2.70
12:24:58.296875,2.13
12:24:58.312500,1.52
12:24:58.328125,0.87
12:24:58.343750,0.20
12:24:58.359375,-0.47
12:24:58.375000,-1.17
12:24:58.390625,-1.87
12:24:58.406250,-2.58
12:24:58.421875,-3.30
12:24:58.437500,-4.09
12:24:58.453125,-5.00
12:24:58.468750,-6.07
12:24:58.484375,-7.24
12:24:58.500000,-8.37
12:24:58.515625,-9.31
12:24:58.531250,-9.91
12:24:58.546875,-10.13
12:24:58.562500,-9.98
12:24:58.578125,-9.47
12:24:58.593750,-8.58
12:24:58.609375,-7.27
12:24:58.625000,-5.56
12:24:58.640625,-3.52
12:24:58.656250,-1.32
12:24:58.671875,0.86
12:24:58.687500,2.91
12:24:58.703125,4.79
12:24:58.718750,6.51
12:24:58.734375,8.06
12:24:58.750000,9.35
12:24:58.765625,10.27
12:24:58.781250,10.70
12:24:58.796875,10.70
12:24:58.812500,10.41
12:24:58.828125,10.09
12:24:58.843750,9.97
12:24:58.859375,10.13
12:24:58.875000,10.52
12:24:58.890625,10.93
12:24:58.906250,11.12
12:24:58.921875,10.95
12:24:58.937500,10.39
12:24:58.953125,9.60
12:24:58.968750,8.79
12:24:58.984375,8.13
12:24:59,7.65
12:24:59.015625,7.23
12:24:59.031250,6.69
12:24:59.046875,5.88
12:24:59.062500,4.78
12:24:59.078125,3.53
12:24:59.093750,2.28
12:24:59.109375,1.19
12:24:59.125000,0.27
12:24:59.140625,-0.55
12:24:59.156250,-1.34
12:24:59.171875,-2.17
12:24:59.187500,-3.06
12:24:59.203125,-4.00
12:24:59.218750,-5.00
12:24:59.234375,-6.08
12:24:59.250000,-7.20
12:24:59.265625,-8.32
12:24:59.281250,-9.35
12:24:59.296875,-10.22
12:24:59.312500,-10.90
12:24:59.328125,-11.40
12:24:59.343750,-11.76
12:24:59.359375,-11.96
12:24:59.375000,-11.96
12:24:59.390625,-11.63
12:24:59.406250,-10.91
12:24:59.421875,-9.77
12:24:59.437500,-8.22
12:24:59.453125,-6.34
12:24:59.468750,-4.24
12:24:59.484375,-2.01
12:24:59.500000,0.17
12:24:59.515625,2.12
12:24:59.531250,3.63
12:24:59.546875,4.57
12:24:59.562500,4.92
12:24:59.578125,4.76
12:24:59.593750,4.29
12:24:59.609375,3.68
12:24:59.625000,3.07
12:24:59.640625,2.48
12:24:59.656250,1.90
12:24:59.671875,1.28
12:24:59.687500,0.63
12:24:59.703125,0.00
12:24:59.718750,-0.55
12:24:59.734375,-0.96
12:24:59.750000,-1.26
12:24:59.765625,-1.48
12:24:59.781250,-1.72
12:24:59.796875,-2.00
12:24:59.812500,-2.34
12:24:59.828125,-2.71
12:24:59.843750,-3.10
12:24:59.859375,-3.50
12:24:59.875000,-3.89
12:24:59.890625,-4.25
12:24:59.906250,-4.50
12:24:59.921875,-4.61
12:24:59.937500,-4.58
12:24:59.953125,-4.53
12:24:59.968750,-4.65
12:24:59.984375,-5.07
12:25:00,-5.83
12:25:00.015625,-6.83
12:25:00.031250,-7.87
12:25:00.046875,-8.80
12:25:00.062500,-9.62
12:25:00.078125,-10.41
12:25:00.093750,-11.29
12:25:00.109375,-12.26
12:25:00.125000,-13.12
12:25:00.140625,-13.58
12:25:00.156250,-13.36
12:25:00.171875,-12.35
12:25:00.187500,-10.60
12:25:00.203125,-8.32
12:25:00.218750,-5.74
12:25:00.234375,-3.04
12:25:00.250000,-0.31
12:25:00.265625,2.30
12:25:00.281250,4.63
12:25:00.296875,6.47
12:25:00.312500,7.65
12:25:00.328125,8.13
12:25:00.343750,8.05
12:25:00.359375,7.67
12:25:00.375000,7.29
12:25:00.390625,7.09
12:25:00.406250,7.10
12:25:00.421875,7.20
12:25:00.437500,7.26
12:25:00.453125,7.20
12:25:00.468750,7.01
12:25:00.484375,6.78
12:25:00.500000,6.63
12:25:00.515625,6.61
12:25:00.531250,6.67
12:25:00.546875,6.70
12:25:00.562500,6.60
12:25:00.578125,6.30
12:25:00.593750,5.85
12:25:00.609375,5.39
12:25:00.625000,5.05
12:25:00.640625,4.87
12:25:00.656250,4.74
12:25:00.671875,4.45
12:25:00.687500,3.80
12:25:00.703125,2.73
12:25:00.718750,1.38
12:25:00.734375,-0.01
12:25:00.750000,-1.18
12:25:00.765625,-2.08
12:25:00.781250,-2.85
12:25:00.796875,-3.73
12:25:00.812500,-4.93
12:25:00.828125,-6.47
12:25:00.843750,-8.19
12:25:00.859375,-9.84
12:25:00.875000,-11.25
12:25:00.890625,-12.38
12:25:00.906250,-13.33
12:25:00.921875,-14.15
12:25:00.937500,-14.79
12:25:00.953125,-15.00
12:25:00.968750,-14.53
12:25:00.984375,-13.19
12:25:01,-11.04
12:25:01.015625,-8.37
12:25:01.031250,-5.56
12:25:01.046875,-2.96
12:25:01.062500,-0.75
12:25:01.078125,1.05
12:25:01.093750,2.48
12:25:01.109375,3.62
12:25:01.125000,4.48
12:25:01.140625,5.08
12:25:01.156250,5.43
12:25:01.171875,5.61
12:25:01.187500,5.66
12:25:01.203125,5.64
12:25:01.218750,5.58
12:25:01.234375,5.47
12:25:01.250000,5.33
12:25:01.265625,5.23
12:25:01.281250,5.22
12:25:01.296875,5.37
12:25:01.312500,5.66
12:25:01.328125,6.04
12:25:01.343750,6.43
12:25:01.359375,6.71
12:25:01.375000,6.80
12:25:01.390625,6.62
12:25:01.406250,6.14
12:25:01.421875,5.39
12:25:01.437500,4.43
12:25:01.453125,3.41
12:25:01.468750,2.43
12:25:01.484375,1.57
12:25:01.500000,0.83
12:25:01.515625,0.19
12:25:01.531250,-0.46
12:25:01.546875,-1.19
12:25:01.562500,-2.08
12:25:01.578125,-3.16
12:25:01.593750,-4.42
12:25:01.609375,-5.82
12:25:01.625000,-7.29
12:25:01.640625,-8.76
12:25:01.656250,-10.18
12:25:01.671875,-11.50
12:25:01.687500,-12.71
12:25:01.703125,-13.80
12:25:01.718750,-14.69
12:25:01.734375,-15.22
12:25:01.750000,-15.18
12:25:01.765625,-14.37
12:25:01.781250,-12.69
12:25:01.796875,-10.23
12:25:01.812500,-7.31
12:25:01.828125,-4.29
12:25:01.843750,-1.54
12:25:01.859375,0.69
12:25:01.875000,2.37
12:25:01.890625,3.55
12:25:01.906250,4.36
12:25:01.921875,4.88
12:25:01.937500,5.14
12:25:01.953125,5.20
12:25:01.968750,5.15
12:25:01.984375,5.14
12:25:02,5.29
12:25:02.015625,5.66
12:25:02.031250,6.18
12:25:02.046875,6.72
12:25:02.062500,7.10
12:25:02.078125,7.27
12:25:02.093750,7.22
12:25:02.109375,7.03
12:25:02.125000,6.79
12:25:02.140625,6.51
12:25:02.156250,6.17
12:25:02.171875,5.72
12:25:02.187500,5.12
12:25:02.203125,4.38
12:25:02.218750,3.58
12:25:02.234375,2.82
12:25:02.250000,2.16
12:25:02.265625,1.62
12:25:02.281250,1.15
12:25:02.296875,0.67
12:25:02.312500,0.10
12:25:02.328125,-0.62
12:25:02.343750,-1.48
12:25:02.359375,-2.48
12:25:02.375000,-3.55
12:25:02.390625,-4.67
12:25:02.406250,-5.79
12:25:02.421875,-6.88
12:25:02.437500,-7.92
12:25:02.453125,-8.94
12:25:02.468750,-9.97
12:25:02.484375,-11.03
12:25:02.500000,-12.03
12:25:02.515625,-12.81
12:25:02.531250,-13.12
12:25:02.546875,-12.73
12:25:02.562500,-11.56
12:25:02.578125,-9.67
12:25:02.593750,-7.28
12:25:02.609375,-4.66
12:25:02.625000,-2.05
12:25:02.640625,0.37
12:25:02.656250,2.48
12:25:02.671875,4.19
12:25:02.687500,5.47
12:25:02.703125,6.34
12:25:02.718750,6.95
12:25:02.734375,7.48
12:25:02.750000,8.13
12:25:02.765625,8.97
12:25:02.781250,9.94
12:25:02.796875,10.90
12:25:02.812500,11.66
12:25:02.828125,12.16
12:25:02.843750,12.44
12:25:02.859375,12.61
12:25:02.875000,12.76
12:25:02.890625,12.91
12:25:02.906250,13.03
12:25:02.921875,13.04
12:25:02.937500,12.92
12:25:02.953125,12.68
12:25:02.968750,12.34
12:25:02.984375,11.91
12:25:03,11.36
12:25:03.015625,10.66
12:25:03.031250,9.79
12:25:03.046875,8.80
12:25:03.062500,7.72
12:25:03.078125,6.57
12:25:03.093750,5.35
12:25:03.109375,4.06
12:25:03.125000,2.75
12:25:03.140625,1.52
12:25:03.156250,0.47
12:25:03.171875,-0.39
12:25:03.187500,-1.09
12:25:03.203125,-1.79
12:25:03.218750,-2.62
12:25:03.234375,-3.69
12:25:03.250000,-4.99
12:25:03.265625,-6.48
12:25:03.281250,-8.06
12:25:03.296875,-9.60
12:25:03.312500,-10.88
12:25:03.328125,-11.67
12:25:03.343750,-11.71
12:25:03.359375,-10.85
12:25:03.375000,-9.14
12:25:03.390625,-6.84
12:25:03.406250,-4.36
12:25:03.421875,-2.10
12:25:03.437500,-0.32
12:25:03.453125,0.93
12:25:03.468750,1.81
12:25:03.484375,2.58
12:25:03.500000,3.46
12:25:03.515625,4.54
12:25:03.531250,5.79
12:25:03.546875,7.04
12:25:03.562500,8.11
12:25:03.578125,8.81
12:25:03.593750,9.07
12:25:03.609375,8.87
12:25:03.625000,8.30
12:25:03.640625,7.49
12:25:03.656250,6.63
12:25:03.671875,5.91
12:25:03.687500,5.52
12:25:03.703125,5.53
12:25:03.718750,5.87
12:25:03.734375,6.33
12:25:03.750000,6.64
12:25:03.765625,6.55
12:25:03.781250,5.95
12:25:03.796875,4.88
12:25:03.812500,3.52
12:25:03.828125,2.06
12:25:03.843750,0.66
12:25:03.859375,-0.59
12:25:03.875000,-1.65
12:25:03.890625,-2.52
12:25:03.906250,-3.25
12:25:03.921875,-3.92
12:25:03.937500,-4.67
12:25:03.953125,-5.66
12:25:03.968750,-6.97
12:25:03.984375,-8.54
12:25:04,-10.20
12:25:04.015625,-11.72
12:25:04.031250,-12.89
12:25:04.046875,-13.66
12:25:04.062500,-14.05
12:25:04.078125,-14.15
12:25:04.093750,-14.05
12:25:04.109375,-13.77
12:25:04.125000,-13.28
12:25:04.140625,-12.50
12:25:04.156250,-11.30
12:25:04.171875,-9.59
12:25:04.187500,-7.37
12:25:04.203125,-4.75
12:25:04.218750,-1.97
12:25:04.234375,0.63
12:25:04.250000,2.75
12:25:04.265625,4.20
12:25:04.281250,4.97
12:25:04.296875,5.14
12:25:04.312500,4.89
12:25:04.328125,4.34
12:25:04.343750,3.57
12:25:04.359375,2.68
12:25:04.375000,1.74
12:25:04.390625,0.92
12:25:04.406250,0.36
12:25:04.421875,0.11
12:25:04.437500,0.14
12:25:04.453125,0.26
12:25:04.468750,0.32
12:25:04.484375,0.24
12:25:04.500000,0.02
12:25:04.515625,-0.24
12:25:04.531250,-0.46
12:25:04.546875,-0.66
12:25:04.562500,-0.90
12:25:04.578125,-1.26
12:25:04.593750,-1.80
12:25:04.609375,-2.45
12:25:04.625000,-3.16
12:25:04.640625,-3.82
12:25:04.656250,-4.43
12:25:04.671875,-5.00
12:25:04.687500,-5.54
12:25:04.703125,-6.11
12:25:04.718750,-6.74
12:25:04.734375,-7.51
12:25:04.750000,-8.48
12:25:04.765625,-9.65
12:25:04.781250,-10.96
12:25:04.796875,-12.24
12:25:04.812500,-13.23
12:25:04.828125,-13.72
12:25:04.843750,-13.58
12:25:04.859375,-12.74
12:25:04.875000,-11.22
12:25:04.890625,-9.12
12:25:04.906250,-6.56
12:25:04.921875,-3.76
12:25:04.937500,-0.96
12:25:04.953125,1.56
12:25:04.968750,3.62
12:25:04.984375,5.14
12:25:05,6.17
12:25:05.015625,6.81
12:25:05.031250,7.17
12:25:05.046875,7.29
12:25:05.062500,7.20
12:25:05.078125,6.95
12:25:05.093750,6.65
12:25:05.109375,6.40
12:25:05.125000,6.30
12:25:05.140625,6.35
12:25:05.156250,6.49
12:25:05.171875,6.61
12:25:05.187500,6.63
12:25:05.203125,6.54
12:25:05.218750,6.41
12:25:05.234375,6.32
12:25:05.250000,6.26
12:25:05.265625,6.21
12:25:05.281250,6.08
12:25:05.296875,5.79
12:25:05.312500,5.32
12:25:05.328125,4.69
12:25:05.343750,3.93
12:25:05.359375,3.03
12:25:05.375000,2.02
12:25:05.390625,0.92
12:25:05.406250,-0.22
12:25:05.421875,-1.35
12:25:05.437500,-2.42
12:25:05.453125,-3.45
12:25:05.468750,-4.49
12:25:05.484375,-5.68
12:25:05.500000,-7.06
12:25:05.515625,-8.66
12:25:05.531250,-10.35
12:25:05.546875,-11.95
12:25:05.562500,-13.22
12:25:05.578125,-13.97
12:25:05.593750,-14.05
12:25:05.609375,-13.42
12:25:05.625000,-12.08
12:25:05.640625,-10.13
12:25:05.656250,-7.70
12:25:05.671875,-4.98
12:25:05.687500,-2.18
12:25:05.703125,0.47
12:25:05.718750,2.78
12:25:05.734375,4.63
12:25:05.750000,6.03
12:25:05.765625,7.04
12:25:05.781250,7.79
12:25:05.796875,8.39
12:25:05.812500,8.89
12:25:05.828125,9.33
12:25:05.843750,9.70
12:25:05.859375,9.96
12:25:05.875000,10.12
12:25:05.890625,10.21
12:25:05.906250,10.21
12:25:05.921875,10.15
12:25:05.937500,9.99
12:25:05.953125,9.71
12:25:05.968750,9.31
12:25:05.984375,8.82
12:25:06,8.29
12:25:06.015625,7.76
12:25:06.031250,7.25
12:25:06.046875,6.73
12:25:06.062500,6.16
12:25:06.078125,5.51
12:25:06.093750,4.76
12:25:06.109375,3.94
12:25:06.125000,3.02
12:25:06.140625,1.97
12:25:06.156250,0.73
12:25:06.171875,-0.68
12:25:06.187500,-2.16
12:25:06.203125,-3.55
12:25:06.218750,-4.69
12:25:06.234375,-5.55
12:25:06.250000,-6.25
12:25:06.265625,-7.04
12:25:06.281250,-8.13
12:25:06.296875,-9.61
12:25:06.312500,-11.39
12:25:06.328125,-13.25
12:25:06.343750,-14.91
12:25:06.359375,-16.17
12:25:06.375000,-16.92
12:25:06.390625,-17.04
12:25:06.406250,-16.45
12:25:06.421875,-15.01
12:25:06.437500,-12.67
12:25:06.453125,-9.47
12:25:06.468750,-5.63
12:25:06.484375,-1.55
12:25:06.500000,2.28
12:25:06.515625,5.42
12:25:06.531250,7.58
12:25:06.546875,8.69
12:25:06.562500,8.92
12:25:06.578125,8.61
12:25:06.593750,8.17
12:25:06.609375,7.91
12:25:06.625000,8.02
12:25:06.640625,8.50
12:25:06.656250,9.20
12:25:06.671875,9.92
12:25:06.687500,10.48
12:25:06.703125,10.79
12:25:06.718750,10.83
12:25:06.734375,10.69
12:25:06.750000,10.45
12:25:06.765625,10.19
12:25:06.781250,9.95
12:25:06.796875,9.75
12:25:06.812500,9.58
12:25:06.828125,9.39
12:25:06.843750,9.10
12:25:06.859375,8.66
12:25:06.875000,8.02
12:25:06.890625,7.20
12:25:06.906250,6.28
12:25:06.921875,5.33
12:25:06.937500,4.43
12:25:06.953125,3.60
12:25:06.968750,2.78
12:25:06.984375,1.91
12:25:07,0.94
12:25:07.015625,-0.13
12:25:07.031250,-1.29
12:25:07.046875,-2.52
12:25:07.062500,-3.86
12:25:07.078125,-5.39
12:25:07.093750,-7.21
12:25:07.109375,-9.28
12:25:07.125000,-11.43
12:25:07.140625,-13.35
12:25:07.156250,-14.65
12:25:07.171875,-14.99
12:25:07.187500,-14.25
12:25:07.203125,-12.54
12:25:07.218750,-10.11
12:25:07.234375,-7.32
12:25:07.250000,-4.46
12:25:07.265625,-1.72
12:25:07.281250,0.81
12:25:07.296875,3.10
12:25:07.312500,5.09
12:25:07.328125,6.73
12:25:07.343750,7.96
12:25:07.359375,8.79
12:25:07.375000,9.30
12:25:07.390625,9.59
12:25:07.406250,9.77
12:25:07.421875,9.83
12:25:07.437500,9.78
12:25:07.453125,9.57
12:25:07.468750,9.23
12:25:07.484375,8.89
12:25:07.500000,8.62
12:25:07.515625,8.51
12:25:07.531250,8.52
12:25:07.546875,8.53
12:25:07.562500,8.40
12:25:07.578125,8.08
12:25:07.593750,7.57
12:25:07.609375,6.96
12:25:07.625000,6.28
12:25:07.640625,5.52
12:25:07.656250,4.65
12:25:07.671875,3.62
12:25:07.687500,2.48
12:25:07.703125,1.30
12:25:07.718750,0.22
12:25:07.734375,-0.70
12:25:07.750000,-1.46
12:25:07.765625,-2.11
12:25:07.781250,-2.77
12:25:07.796875,-3.46
12:25:07.812500,-4.16
12:25:07.828125,-4.79
12:25:07.843750,-5.28
12:25:07.859375,-5.63
12:25:07.875000,-5.94
12:25:07.890625,-6.43
12:25:07.906250,-7.30
12:25:07.921875,-8.62
12:25:07.937500,-10.29
12:25:07.953125,-11.98
12:25:07.968750,-13.27
12:25:07.984375,-13.73
12:25:08,-13.14
12:25:08.015625,-11.51
12:25:08.031250,-9.06
12:25:08.046875,-6.15
12:25:08.062500,-3.17
12:25:08.078125,-0.43
12:25:08.093750,1.91
12:25:08.109375,3.82
12:25:08.125000,5.36
12:25:08.140625,6.64
12:25:08.156250,7.76
12:25:08.171875,8.71
12:25:08.187500,9.43
12:25:08.203125,9.82
12:25:08.218750,9.82
12:25:08.234375,9.50
12:25:08.250000,9.02
12:25:08.265625,8.59
12:25:08.281250,8.35
12:25:08.296875,8.29
12:25:08.312500,8.33
12:25:08.328125,8.31
12:25:08.343750,8.13
12:25:08.359375,7.80
12:25:08.375000,7.39
12:25:08.390625,7.00
12:25:08.406250,6.65
12:25:08.421875,6.30
12:25:08.437500,5.90
12:25:08.453125,5.40
12:25:08.468750,4.86
12:25:08.484375,4.33
12:25:08.500000,3.83
12:25:08.515625,3.30
12:25:08.531250,2.61
12:25:08.546875,1.64
12:25:08.562500,0.38
12:25:08.578125,-1.13
12:25:08.593750,-2.72
12:25:08.609375,-4.20
12:25:08.625000,-5.43
12:25:08.640625,-6.36
12:25:08.656250,-7.03
12:25:08.671875,-7.54
12:25:08.687500,-8.03
12:25:08.703125,-8.58
12:25:08.718750,-9.29
12:25:08.734375,-10.20
12:25:08.750000,-11.24
12:25:08.765625,-12.27
12:25:08.781250,-13.08
12:25:08.796875,-13.38
12:25:08.812500,-12.95
12:25:08.828125,-11.71
12:25:08.843750,-9.73
12:25:08.859375,-7.28
12:25:08.875000,-4.74
12:25:08.890625,-2.48
12:25:08.906250,-0.76
12:25:08.921875,0.42
12:25:08.937500,1.16
12:25:08.953125,1.65
12:25:08.968750,2.02
12:25:08.984375,2.34
12:25:09,2.55
12:25:09.015625,2.61
12:25:09.031250,2.48
12:25:09.046875,2.21
12:25:09.062500,1.89
12:25:09.078125,1.61
12:25:09.093750,1.38
12:25:09.109375,1.16
12:25:09.125000,0.88
12:25:09.140625,0.49
12:25:09.156250,0.05
12:25:09.171875,-0.34
12:25:09.187500,-0.54
12:25:09.203125,-0.50
12:25:09.218750,-0.26
12:25:09.234375,0.04
12:25:09.250000,0.23
12:25:09.265625,0.19
12:25:09.281250,-0.14
12:25:09.296875,-0.69
12:25:09.312500,-1.38
12:25:09.328125,-2.09
12:25:09.343750,-2.78
12:25:09.359375,-3.41
12:25:09.375000,-3.97
12:25:09.390625,-4.46
12:25:09.406250,-4.93
12:25:09.421875,-5.45
12:25:09.437500,-6.12
12:25:09.453125,-7.03
12:25:09.468750,-8.15
12:25:09.484375,-9.38
12:25:09.500000,-10.50
12:25:09.515625,-11.32
12:25:09.531250,-11.65
12:25:09.546875,-11.45
12:25:09.562500,-10.73
12:25:09.578125,-9.57
12:25:09.593750,-8.05
12:25:09.609375,-6.21
12:25:09.625000,-4.11
12:25:09.640625,-1.82
12:25:09.656250,0.54
12:25:09.671875,2.81
12:25:09.687500,4.87
12:25:09.703125,6.64
12:25:09.718750,8.09
12:25:09.734375,9.23
12:25:09.750000,10.08
12:25:09.765625,10.66
12:25:09.781250,11.00
12:25:09.796875,11.10
12:25:09.812500,11.00
12:25:09.828125,10.70
12:25:09.843750,10.23
12:25:09.859375,9.62
12:25:09.875000,8.93
12:25:09.890625,8.23
12:25:09.906250,7.59
12:25:09.921875,7.11
12:25:09.937500,6.79
12:25:09.953125,6.58
12:25:09.968750,6.37
12:25:09.984375,6.03
12:25:10,5.46
12:25:10.015625,4.60
12:25:10.031250,3.44
12:25:10.046875,2.02
12:25:10.062500,0.43
12:25:10.078125,-1.24
12:25:10.093750,-2.80
12:25:10.109375,-4.09
12:25:10.125000,-4.98
12:25:10.140625,-5.48
12:25:10.156250,-5.74
12:25:10.171875,-6.00
12:25:10.187500,-6.52
12:25:10.203125,-7.45
12:25:10.218750,-8.78
12:25:10.234375,-10.33
12:25:10.250000,-11.85
12:25:10.265625,-13.13
12:25:10.281250,-14.08
12:25:10.296875,-14.68
12:25:10.312500,-15.02
12:25:10.328125,-15.09
12:25:10.343750,-14.84
12:25:10.359375,-14.13
12:25:10.375000,-12.84
12:25:10.390625,-10.95
12:25:10.406250,-8.56
12:25:10.421875,-5.94
12:25:10.437500,-3.36
12:25:10.453125,-1.09
12:25:10.468750,0.77
12:25:10.484375,2.17
12:25:10.500000,3.17
12:25:10.515625,3.86
12:25:10.531250,4.32
12:25:10.546875,4.60
12:25:10.562500,4.74
12:25:10.578125,4.75
12:25:10.593750,4.65
12:25:10.609375,4.45
12:25:10.625000,4.17
12:25:10.640625,3.88
12:25:10.656250,3.63
12:25:10.671875,3.52
12:25:10.687500,3.61
12:25:10.703125,3.87
12:25:10.718750,4.24
12:25:10.734375,4.64
12:25:10.750000,4.99
12:25:10.765625,5.25
12:25:10.781250,5.41
12:25:10.796875,5.42
12:25:10.812500,5.22
12:25:10.828125,4.72
12:25:10.843750,3.87
12:25:10.859375,2.71
12:25:10.875000,1.37
12:25:10.890625,0.05
12:25:10.906250,-1.08
12:25:10.921875,-1.98
12:25:10.937500,-2.73
12:25:10.953125,-3.47
12:25:10.968750,-4.33
12:25:10.984375,-5.32
12:25:11,-6.34
12:25:11.015625,-7.29
12:25:11.031250,-8.10
12:25:11.046875,-8.78
12:25:11.062500,-9.35
12:25:11.078125,-9.76
12:25:11.093750,-9.89
12:25:11.109375,-9.54
12:25:11.125000,-8.57
12:25:11.140625,-6.99
12:25:11.156250,-5.01
12:25:11.171875,-2.99
12:25:11.187500,-1.26
12:25:11.203125,-0.09
12:25:11.218750,0.43
12:25:11.234375,0.36
12:25:11.250000,-0.10
12:25:11.265625,-0.68
12:25:11.281250,-1.14
12:25:11.296875,-1.28
12:25:11.312500,-1.04
12:25:11.328125,-0.45
12:25:11.343750,0.41
12:25:11.359375,1.40
12:25:11.375000,2.44
12:25:11.390625,3.42
12:25:11.406250,4.27
12:25:11.421875,4.84
12:25:11.437500,5.00
12:25:11.453125,4.68
12:25:11.468750,3.89
12:25:11.484375,2.82
12:25:11.500000,1.75
12:25:11.515625,0.93
12:25:11.531250,0.50
12:25:11.546875,0.39
12:25:11.562500,0.43
12:25:11.578125,0.34
12:25:11.593750,-0.05
12:25:11.609375,-0.81
12:25:11.625000,-1.86
12:25:11.640625,-3.09
12:25:11.656250,-4.41
12:25:11.671875,-5.74
12:25:11.687500,-7.05
12:25:11.703125,-8.28
12:25:11.718750,-9.30
12:25:11.734375,-9.95
12:25:11.750000,-10.16
12:25:11.765625,-9.98
12:25:11.781250,-9.63
12:25:11.796875,-9.39
12:25:11.812500,-9.44
12:25:11.828125,-9.78
12:25:11.843750,-10.19
12:25:11.859375,-10.38
12:25:11.875000,-10.08
12:25:11.890625,-9.21
12:25:11.906250,-7.86
12:25:11.921875,-6.24
12:25:11.937500,-4.49
12:25:11.953125,-2.65
12:25:11.968750,-0.63
12:25:11.984375,1.68
12:25:12,4.31
12:25:12.015625,7.11
12:25:12.031250,9.80
12:25:12.046875,12.05
12:25:12.062500,13.67
12:25:12.078125,14.67
12:25:12.093750,15.23
12:25:12.109375,15.57
12:25:12.125000,15.84
12:25:12.140625,16.04
12:25:12.156250,16.07
12:25:12.171875,15.83
12:25:12.187500,15.37
12:25:12.203125,14.83
12:25:12.218750,14.43
12:25:12.234375,14.26
12:25:12.250000,14.26
12:25:12.265625,14.24
12:25:12.281250,13.99
12:25:12.296875,13.36
12:25:12.312500,12.37
12:25:12.328125,11.12
12:25:12.343750,9.78
12:25:12.359375,8.47
12:25:12.375000,7.26
12:25:12.390625,6.15
12:25:12.406250,5.11
12:25:12.421875,4.12
12:25:12.437500,3.15
12:25:12.453125,2.21
12:25:12.468750,1.33
12:25:12.484375,0.52
12:25:12.500000,-0.25
12:25:12.515625,-1.09
12:25:12.531250,-2.10
12:25:12.546875,-3.41
12:25:12.562500,-5.04
12:25:12.578125,-6.91
12:25:12.593750,-8.86
12:25:12.609375,-10.70
12:25:12.625000,-12.27
12:25:12.640625,-13.50
12:25:12.656250,-14.31
12:25:12.671875,-14.66
12:25:12.687500,-14.47
12:25:12.703125,-13.71
12:25:12.718750,-12.39
12:25:12.734375,-10.61
12:25:12.750000,-8.46
12:25:12.765625,-6.11
12:25:12.781250,-3.72
12:25:12.796875,-1.43
12:25:12.812500,0.61
12:25:12.828125,2.32
12:25:12.843750,3.64
12:25:12.859375,4.62
12:25:12.875000,5.31
12:25:12.890625,5.74
12:25:12.906250,5.92
12:25:12.921875,5.85
12:25:12.937500,5.54
12:25:12.953125,5.08
12:25:12.968750,4.64
12:25:12.984375,4.32
12:25:13,4.20
12:25:13.015625,4.21
12:25:13.031250,4.29
12:25:13.046875,4.36
12:25:13.062500,4.44
12:25:13.078125,4.60
12:25:13.093750,4.91
12:25:13.109375,5.37
12:25:13.125000,5.92
12:25:13.140625,6.40
12:25:13.156250,6.68
12:25:13.171875,6.60
12:25:13.187500,6.08
12:25:13.203125,5.04
12:25:13.218750,3.47
12:25:13.234375,1.44
12:25:13.250000,-0.94
12:25:13.265625,-3.52
12:25:13.281250,-6.15
12:25:13.296875,-8.71
12:25:13.312500,-11.10
12:25:13.328125,-13.25
12:25:13.343750,-15.11
12:25:13.359375,-16.61
12:25:13.375000,-17.71
12:25:13.390625,-18.44
12:25:13.406250,-18.87
12:25:13.421875,-19.14
12:25:13.437500,-19.33
12:25:13.453125,-19.43
12:25:13.468750,-19.26
12:25:13.484375,-18.57
12:25:13.500000,-17.14
12:25:13.515625,-14.88
12:25:13.531250,-11.89
12:25:13.546875,-8.45
12:25:13.562500,-4.87
12:25:13.578125,-1.42
12:25:13.593750,1.74
12:25:13.609375,4.53
12:25:13.625000,6.90
12:25:13.640625,8.78
12:25:13.656250,10.11
12:25:13.671875,10.89
12:25:13.687500,11.17
12:25:13.703125,11.12
12:25:13.718750,10.87
12:25:13.734375,10.55
12:25:13.750000,10.16
12:25:13.765625,9.70
12:25:13.781250,9.16
12:25:13.796875,8.57
12:25:13.812500,8.04
12:25:13.828125,7.72
12:25:13.843750,7.71
12:25:13.859375,8.03
12:25:13.875000,8.57
12:25:13.890625,9.14
12:25:13.906250,9.50
12:25:13.921875,9.48
12:25:13.937500,9.02
12:25:13.953125,8.18
12:25:13.968750,7.10
12:25:13.984375,5.93
12:25:14,4.75
12:25:14.015625,3.60
12:25:14.031250,2.47
12:25:14.046875,1.32
12:25:14.062500,0.18
12:25:14.078125,-0.92
12:25:14.093750,-1.92
12:25:14.109375,-2.80
12:25:14.125000,-3.56
12:25:14.140625,-4.29
12:25:14.156250,-5.11
12:25:14.171875,-6.20
12:25:14.187500,-7.69
12:25:14.203125,-9.64
12:25:14.218750,-11.94
12:25:14.234375,-14.34
12:25:14.250000,-16.45
12:25:14.265625,-17.90
12:25:14.281250,-18.43
12:25:14.296875,-17.90
12:25:14.312500,-16.36
12:25:14.328125,-13.93
12:25:14.343750,-10.81
12:25:14.359375,-7.20
12:25:14.375000,-3.36
12:25:14.390625,0.38
12:25:14.406250,3.66
12:25:14.421875,6.14
12:25:14.437500,7.66
12:25:14.453125,8.22
12:25:14.468750,8.09
12:25:14.484375,7.68
12:25:14.500000,7.40
12:25:14.515625,7.51
12:25:14.531250,8.07
12:25:14.546875,8.95
12:25:14.562500,9.88
12:25:14.578125,10.61
12:25:14.593750,10.98
12:25:14.609375,10.95
12:25:14.625000,10.60
12:25:14.640625,10.06
12:25:14.656250,9.42
12:25:14.671875,8.74
12:25:14.687500,8.05
12:25:14.703125,7.37
12:25:14.718750,6.75
12:25:14.734375,6.24
12:25:14.750000,5.87
12:25:14.765625,5.59
12:25:14.781250,5.27
12:25:14.796875,4.75
12:25:14.812500,3.92
12:25:14.828125,2.76
12:25:14.843750,1.40
12:25:14.859375,0.04
12:25:14.875000,-1.09
12:25:14.890625,-1.89
12:25:14.906250,-2.43
12:25:14.921875,-2.87
12:25:14.937500,-3.45
12:25:14.953125,-4.34
12:25:14.968750,-5.59
12:25:14.984375,-7.10
12:25:15,-8.67
12:25:15.015625,-10.16
12:25:15.031250,-11.50
12:25:15.046875,-12.74
12:25:15.062500,-13.97
12:25:15.078125,-15.17
12:25:15.093750,-16.16
12:25:15.109375,-16.64
12:25:15.125000,-16.30
12:25:15.140625,-14.95
12:25:15.156250,-12.67
12:25:15.171875,-9.71
12:25:15.187500,-6.43
12:25:15.203125,-3.18
12:25:15.218750,-0.15
12:25:15.234375,2.56
12:25:15.250000,4.90
12:25:15.265625,6.84
12:25:15.281250,8.30
12:25:15.296875,9.24
12:25:15.312500,9.67
12:25:15.328125,9.71
12:25:15.343750,9.51
12:25:15.359375,9.25
12:25:15.375000,9.07
12:25:15.390625,9.03
12:25:15.406250,9.13
12:25:15.421875,9.33
12:25:15.437500,9.56
12:25:15.453125,9.74
12:25:15.468750,9.82
12:25:15.484375,9.73
12:25:15.500000,9.45
12:25:15.515625,8.98
12:25:15.531250,8.37
12:25:15.546875,7.71
12:25:15.562500,7.09
12:25:15.578125,6.63
12:25:15.593750,6.33
12:25:15.609375,6.16
12:25:15.625000,5.96
12:25:15.640625,5.57
12:25:15.656250,4.85
12:25:15.671875,3.72
12:25:15.687500,2.21
12:25:15.703125,0.43
12:25:15.718750,-1.51
12:25:15.734375,-3.47
12:25:15.750000,-5.37
12:25:15.765625,-7.12
12:25:15.781250,-8.63
12:25:15.796875,-9.84
12:25:15.812500,-10.72
12:25:15.828125,-11.30
12:25:15.843750,-11.69
12:25:15.859375,-12.03
12:25:15.875000,-12.47
12:25:15.890625,-13.03
12:25:15.906250,-13.66
12:25:15.921875,-14.15
12:25:15.937500,-14.24
12:25:15.953125,-13.73
12:25:15.968750,-12.54
12:25:15.984375,-10.76
12:25:16,-8.59
12:25:16.015625,-6.30
12:25:16.031250,-4.09
12:25:16.046875,-2.06
12:25:16.062500,-0.23
12:25:16.078125,1.43
12:25:16.093750,2.96
12:25:16.109375,4.40
12:25:16.125000,5.73
12:25:16.140625,6.94
12:25:16.156250,7.97
12:25:16.171875,8.74
12:25:16.187500,9.13
12:25:16.203125,9.07
12:25:16.218750,8.59
12:25:16.234375,7.84
12:25:16.250000,7.09
12:25:16.265625,6.55
12:25:16.281250,6.35
12:25:16.296875,6.47
12:25:16.312500,6.79
12:25:16.328125,7.16
12:25:16.343750,7.47
12:25:16.359375,7.69
12:25:16.375000,7.80
12:25:16.390625,7.76
12:25:16.406250,7.55
12:25:16.421875,7.11
12:25:16.437500,6.48
12:25:16.453125,5.76
12:25:16.468750,5.05
12:25:16.484375,4.43
12:25:16.500000,3.90
12:25:16.515625,3.42
12:25:16.531250,2.90
12:25:16.546875,2.30
12:25:16.562500,1.63
12:25:16.578125,0.87
12:25:16.593750,-0.02
12:25:16.609375,-1.14
12:25:16.625000,-2.58
12:25:16.640625,-4.36
12:25:16.656250,-6.32
12:25:16.671875,-8.24
12:25:16.687500,-9.88
12:25:16.703125,-11.05
12:25:16.718750,-11.73
12:25:16.734375,-11.97
12:25:16.750000,-11.77
12:25:16.765625,-11.10
12:25:16.781250,-9.86
12:25:16.796875,-8.01
12:25:16.812500,-5.64
12:25:16.828125,-2.97
12:25:16.843750,-0.28
12:25:16.859375,2.23
12:25:16.875000,4.48
12:25:16.890625,6.49
12:25:16.906250,8.31
12:25:16.921875,9.89
12:25:16.937500,11.11
12:25:16.953125,11.84
12:25:16.968750,12.01
12:25:16.984375,11.70
12:25:17,11.07
12:25:17.015625,10.32
12:25:17.031250,9.62
12:25:17.046875,9.05
12:25:17.062500,8.65
12:25:17.078125,8.42
12:25:17.093750,8.36
12:25:17.109375,8.44
12:25:17.125000,8.60
12:25:17.140625,8.72
12:25:17.156250,8.71
12:25:17.171875,8.48
12:25:17.187500,8.02
12:25:17.203125,7.35
12:25:17.218750,6.50
12:25:17.234375,5.48
12:25:17.250000,4.30
12:25:17.265625,2.93
12:25:17.281250,1.36
12:25:17.296875,-0.38
12:25:17.312500,-2.24
12:25:17.328125,-4.09
12:25:17.343750,-5.78
12:25:17.359375,-7.15
12:25:17.375000,-8.10
12:25:17.390625,-8.59
12:25:17.406250,-8.67
12:25:17.421875,-8.50
12:25:17.437500,-8.26
12:25:17.453125,-8.18
12:25:17.468750,-8.45
12:25:17.484375,-9.17
12:25:17.500000,-10.31
12:25:17.515625,-11.72
12:25:17.531250,-13.13
12:25:17.546875,-14.26
12:25:17.562500,-14.83
12:25:17.578125,-14.70
12:25:17.593750,-13.81
12:25:17.609375,-12.23
12:25:17.625000,-10.12
12:25:17.640625,-7.66
12:25:17.656250,-5.03
12:25:17.671875,-2.40
12:25:17.687500,0.04
12:25:17.703125,2.19
12:25:17.718750,3.93
12:25:17.734375,5.22
12:25:17.750000,6.02
12:25:17.765625,6.37
12:25:17.781250,6.32
12:25:17.796875,5.97
12:25:17.812500,5.43
12:25:17.828125,4.82
12:25:17.843750,4.24
12:25:17.859375,3.76
12:25:17.875000,3.42
12:25:17.890625,3.23
12:25:17.906250,3.15
12:25:17.921875,3.14
12:25:17.937500,3.14
12:25:17.953125,3.12
12:25:17.968750,3.07
12:25:17.984375,3.02
12:25:18,3.00
12:25:18.015625,3.00
12:25:18.031250,2.99
12:25:18.046875,2.86
12:25:18.062500,2.52
12:25:18.078125,1.93
12:25:18.093750,1.10
12:25:18.109375,0.17
12:25:18.125000,-0.73
12:25:18.140625,-1.48
12:25:18.156250,-2.02
12:25:18.171875,-2.38
12:25:18.187500,-2.62
12:25:18.203125,-2.80
12:25:18.218750,-3.01
12:25:18.234375,-3.31
12:25:18.250000,-3.78
12:25:18.265625,-4.51
12:25:18.281250,-5.46
12:25:18.296875,-6.54
12:25:18.312500,-7.49
12:25:18.328125,-8.02
12:25:18.343750,-7.90
12:25:18.359375,-7.04
12:25:18.375000,-5.51
12:25:18.390625,-3.52
12:25:18.406250,-1.29
12:25:18.421875,0.98
12:25:18.437500,3.15
12:25:18.453125,5.09
12:25:18.468750,6.75
12:25:18.484375,8.11
12:25:18.500000,9.18
12:25:18.515625,9.99
12:25:18.531250,10.59
12:25:18.546875,11.01
12:25:18.562500,11.28
12:25:18.578125,11.43
12:25:18.593750,11.50
12:25:18.609375,11.56
12:25:18.625000,11.64
12:25:18.640625,11.78
12:25:18.656250,11.96
12:25:18.671875,12.18
12:25:18.687500,12.45
12:25:18.703125,12.76
12:25:18.718750,13.11
12:25:18.734375,13.46
12:25:18.750000,13.69
12:25:18.765625,13.66
12:25:18.781250,13.19
12:25:18.796875,12.16
12:25:18.812500,10.54
12:25:18.828125,8.42
12:25:18.843750,5.98
12:25:18.859375,3.45
12:25:18.875000,1.00
12:25:18.890625,-1.23
12:25:18.906250,-3.26
12:25:18.921875,-5.12
12:25:18.937500,-6.85
12:25:18.953125,-8.49
12:25:18.968750,-10.00
12:25:18.984375,-11.33
12:25:19,-12.43
12:25:19.015625,-13.30
12:25:19.031250,-13.97
12:25:19.046875,-14.46
12:25:19.062500,-14.79
12:25:19.078125,-14.86
12:25:19.093750,-14.58
12:25:19.109375,-13.80
12:25:19.125000,-12.43
12:25:19.140625,-10.46
12:25:19.156250,-7.95
12:25:19.171875,-5.04
12:25:19.187500,-1.98
12:25:19.203125,1.02
12:25:19.218750,3.66
12:25:19.234375,5.78
12:25:19.250000,7.23
12:25:19.265625,8.03
12:25:19.281250,8.32
12:25:19.296875,8.29
12:25:19.312500,8.10
12:25:19.328125,7.84
12:25:19.343750,7.51
12:25:19.359375,7.02
12:25:19.375000,6.35
12:25:19.390625,5.49
12:25:19.406250,4.50
12:25:19.421875,3.46
12:25:19.437500,2.42
12:25:19.453125,1.41
12:25:19.468750,0.50
12:25:19.484375,-0.18
12:25:19.500000,-0.50
12:25:19.515625,-0.44
12:25:19.531250,-0.16
12:25:19.546875,0.02
12:25:19.562500,-0.24
12:25:19.578125,-1.17
12:25:19.593750,-2.71
12:25:19.609375,-4.55
12:25:19.625000,-6.28
12:25:19.640625,-7.63
12:25:19.656250,-8.56
12:25:19.671875,-9.21
12:25:19.687500,-9.81
12:25:19.703125,-10.45
12:25:19.718750,-11.05
12:25:19.734375,-11.41
12:25:19.750000,-11.34
12:25:19.765625,-10.75
12:25:19.781250,-9.69
12:25:19.796875,-8.28
12:25:19.812500,-6.56
12:25:19.828125,-4.57
12:25:19.843750,-2.33
12:25:19.859375,0.08
12:25:19.875000,2.48
12:25:19.890625,4.59
12:25:19.906250,6.16
12:25:19.921875,7.07
12:25:19.937500,7.30
12:25:19.953125,7.00
12:25:19.968750,6.34
12:25:19.984375,5.48
12:25:20,4.52
12:25:20.015625,3.52
12:25:20.031250,2.51
12:25:20.046875,1.57
12:25:20.062500,0.78
12:25:20.078125,0.18
12:25:20.093750,-0.24
12:25:20.109375,-0.59
12:25:20.125000,-1.01
12:25:20.140625,-1.61
12:25:20.156250,-2.42
12:25:20.171875,-3.37
12:25:20.187500,-4.31
12:25:20.203125,-5.13
12:25:20.218750,-5.85
12:25:20.234375,-6.61
12:25:20.250000,-7.59
12:25:20.265625,-8.91
12:25:20.281250,-10.53
12:25:20.296875,-12.25
12:25:20.312500,-13.76
12:25:20.328125,-14.77
12:25:20.343750,-15.16
12:25:20.359375,-14.94
12:25:20.375000,-14.33
12:25:20.390625,-13.61
12:25:20.406250,-12.99
12:25:20.421875,-12.62
12:25:20.437500,-12.52
12:25:20.453125,-12.62
12:25:20.468750,-12.82
12:25:20.484375,-13.02
12:25:20.500000,-13.12
12:25:20.515625,-13.05
12:25:20.531250,-12.71
12:25:20.546875,-12.09
12:25:20.562500,-11.20
12:25:20.578125,-10.07
12:25:20.593750,-8.78
12:25:20.609375,-7.43
12:25:20.625000,-6.14
12:25:20.640625,-5.04
12:25:20.656250,-4.29
12:25:20.671875,-3.97
12:25:20.687500,-4.01
12:25:20.703125,-4.25
12:25:20.718750,-4.42
12:25:20.734375,-4.32
12:25:20.750000,-3.85
12:25:20.765625,-3.12
12:25:20.781250,-2.35
12:25:20.796875,-1.73
12:25:20.812500,-1.30
12:25:20.828125,-1.00
12:25:20.843750,-0.69
12:25:20.859375,-0.30
12:25:20.875000,0.10
12:25:20.890625,0.36
12:25:20.906250,0.32
12:25:20.921875,-0.09
12:25:20.937500,-0.84
12:25:20.953125,-1.84
12:25:20.968750,-3.04
12:25:20.984375,-4.43
12:25:21,-6.05
12:25:21.015625,-7.86
12:25:21.031250,-9.72
12:25:21.046875,-11.46
12:25:21.062500,-12.99
12:25:21.078125,-14.41
12:25:21.093750,-16.04
12:25:21.109375,-18.18
12:25:21.125000,-20.95
12:25:21.140625,-24.05
12:25:21.156250,-26.87
12:25:21.171875,-28.60
12:25:21.187500,-28.64
12:25:21.203125,-26.80
12:25:21.218750,-23.31
12:25:21.234375,-18.74
12:25:21.250000,-13.65
12:25:21.265625,-8.48
12:25:21.281250,-3.47
12:25:21.296875,1.19
12:25:21.312500,5.32
12:25:21.328125,8.69
12:25:21.343750,11.15
12:25:21.359375,12.73
12:25:21.375000,13.72
12:25:21.390625,14.55
12:25:21.406250,15.63
12:25:21.421875,17.16
12:25:21.437500,19.07
12:25:21.453125,21.03
12:25:21.468750,22.63
12:25:21.484375,23.51
12:25:21.500000,23.46
12:25:21.515625,22.48
12:25:21.531250,20.68
12:25:21.546875,18.27
12:25:21.562500,15.46
12:25:21.578125,12.45
12:25:21.593750,9.38
12:25:21.609375,6.36
12:25:21.625000,3.44
12:25:21.640625,0.71
12:25:21.656250,-1.73
12:25:21.671875,-3.71
12:25:21.687500,-5.10
12:25:21.703125,-5.83
12:25:21.718750,-5.93
12:25:21.734375,-5.54
12:25:21.750000,-4.88
12:25:21.765625,-4.17
12:25:21.781250,-3.61
12:25:21.796875,-3.30
12:25:21.812500,-3.28
12:25:21.828125,-3.50
12:25:21.843750,-3.87
12:25:21.859375,-4.26
12:25:21.875000,-4.47
12:25:21.890625,-4.29
12:25:21.906250,-3.54
12:25:21.921875,-2.16
12:25:21.937500,-0.23
12:25:21.953125,2.06
12:25:21.968750,4.43
12:25:21.984375,6.61
12:25:22,8.42
12:25:22.015625,9.77
12:25:22.031250,10.66
12:25:22.046875,11.19
12:25:22.062500,11.45
12:25:22.078125,11.59
12:25:22.093750,11.72
12:25:22.109375,11.90
12:25:22.125000,12.13
12:25:22.140625,12.34
12:25:22.156250,12.47
12:25:22.171875,12.45
12:25:22.187500,12.30
12:25:22.203125,12.02
12:25:22.218750,11.61
12:25:22.234375,11.00
12:25:22.250000,10.11
12:25:22.265625,8.91
12:25:22.281250,7.47
12:25:22.296875,5.95
12:25:22.312500,4.53
12:25:22.328125,3.34
12:25:22.343750,2.42
12:25:22.359375,1.68
12:25:22.375000,1.00
12:25:22.390625,0.25
12:25:22.406250,-0.60
12:25:22.421875,-1.61
12:25:22.437500,-2.81
12:25:22.453125,-4.29
12:25:22.468750,-6.09
12:25:22.484375,-8.19
12:25:22.500000,-10.46
12:25:22.515625,-12.69
12:25:22.531250,-14.60
12:25:22.546875,-15.96
12:25:22.562500,-16.54
12:25:22.578125,-16.27
12:25:22.593750,-15.11
12:25:22.609375,-13.14
12:25:22.625000,-10.54
12:25:22.640625,-7.54
12:25:22.656250,-4.46
12:25:22.671875,-1.66
12:25:22.687500,0.55
12:25:22.703125,1.94
12:25:22.718750,2.45
12:25:22.734375,2.27
12:25:22.750000,1.73
12:25:22.765625,1.24
12:25:22.781250,1.19
12:25:22.796875,1.76
12:25:22.812500,2.90
12:25:22.828125,4.36
12:25:22.843750,5.81
12:25:22.859375,6.96
12:25:22.875000,7.71
12:25:22.890625,8.08
12:25:22.906250,8.20
12:25:22.921875,8.25
12:25:22.937500,8.33
12:25:22.953125,8.56
12:25:22.968750,8.98
12:25:22.984375,9.61
12:25:23,10.40
12:25:23.015625,11.22
12:25:23.031250,11.89
12:25:23.046875,12.15
12:25:23.062500,11.81
12:25:23.078125,10.79
12:25:23.093750,9.12
12:25:23.109375,7.04
12:25:23.125000,4.86
12:25:23.140625,2.92
12:25:23.156250,1.48
12:25:23.171875,0.64
12:25:23.187500,0.31
12:25:23.203125,0.20
12:25:23.218750,-0.07
12:25:23.234375,-0.85
12:25:23.250000,-2.31
12:25:23.265625,-4.28
12:25:23.281250,-6.34
12:25:23.296875,-7.90
12:25:23.312500,-8.43
12:25:23.328125,-7.59
12:25:23.343750,-5.35
12:25:23.359375,-1.99
12:25:23.375000,1.99
12:25:23.390625,6.06
12:25:23.406250,9.78
12:25:23.421875,12.81
12:25:23.437500,15.02
12:25:23.453125,16.40
12:25:23.468750,17.09
12:25:23.484375,17.24
12:25:23.500000,17.01
12:25:23.515625,16.52
12:25:23.531250,15.84
12:25:23.546875,15.04
12:25:23.562500,14.23
12:25:23.578125,13.57
12:25:23.593750,13.15
12:25:23.609375,12.99
12:25:23.625000,12.98
12:25:23.640625,12.97
12:25:23.656250,12.82
12:25:23.671875,12.52
12:25:23.687500,12.13
12:25:23.703125,11.75
12:25:23.718750,11.41
12:25:23.734375,11.01
12:25:23.750000,10.38
12:25:23.765625,9.40
12:25:23.781250,8.01
12:25:23.796875,6.29
12:25:23.812500,4.42
12:25:23.828125,2.53
12:25:23.843750,0.67
12:25:23.859375,-1.23
12:25:23.875000,-3.33
12:25:23.890625,-5.76
12:25:23.906250,-8.54
12:25:23.921875,-11.55
12:25:23.937500,-14.52
12:25:23.953125,-17.18
12:25:23.968750,-19.29
12:25:23.984375,-20.76
12:25:24,-21.58
12:25:24.015625,-21.76
12:25:24.031250,-21.26
12:25:24.046875,-20.00
12:25:24.062500,-17.96
12:25:24.078125,-15.24
12:25:24.093750,-12.11
12:25:24.109375,-8.97
12:25:24.125000,-6.13
12:25:24.140625,-3.82
12:25:24.156250,-2.07
12:25:24.171875,-0.81
12:25:24.187500,0.02
12:25:24.203125,0.44
12:25:24.218750,0.46
12:25:24.234375,0.07
12:25:24.250000,-0.68
12:25:24.265625,-1.66
12:25:24.281250,-2.71
12:25:24.296875,-3.64
12:25:24.312500,-4.29
12:25:24.328125,-4.58
12:25:24.343750,-4.49
12:25:24.359375,-4.02
12:25:24.375000,-3.19
12:25:24.390625,-2.00
12:25:24.406250,-0.49
12:25:24.421875,1.26
12:25:24.437500,3.05
12:25:24.453125,4.60
12:25:24.468750,5.65
12:25:24.484375,6.11
12:25:24.500000,6.07
12:25:24.515625,5.84
12:25:24.531250,5.82
12:25:24.546875,6.29
12:25:24.562500,7.33
12:25:24.578125,8.80
12:25:24.593750,10.40
12:25:24.609375,11.80
12:25:24.625000,12.70
12:25:24.640625,12.83
12:25:24.656250,11.98
12:25:24.671875,10.00
12:25:24.687500,6.90
12:25:24.703125,2.89
12:25:24.718750,-1.58
12:25:24.734375,-5.87
12:25:24.750000,-9.30
12:25:24.765625,-11.34
12:25:24.781250,-11.71
12:25:24.796875,-10.40
12:25:24.812500,-7.65
12:25:24.828125,-3.89
12:25:24.843750,0.43
12:25:24.859375,4.78
12:25:24.875000,8.70
12:25:24.890625,11.76
12:25:24.906250,13.70
12:25:24.921875,14.43
12:25:24.937500,14.11
12:25:24.953125,13.10
12:25:24.968750,11.78
12:25:24.984375,10.49
12:25:25,9.42
12:25:25.015625,8.59
12:25:25.031250,7.95
12:25:25.046875,7.46
12:25:25.062500,7.09
12:25:25.078125,6.87
12:25:25.093750,6.83
12:25:25.109375,6.92
12:25:25.125000,7.05
12:25:25.140625,7.09
12:25:25.156250,6.94
12:25:25.171875,6.57
12:25:25.187500,6.03
12:25:25.203125,5.43
12:25:25.218750,4.87
12:25:25.234375,4.43
12:25:25.250000,4.13
12:25:25.265625,3.96
12:25:25.281250,3.94
12:25:25.296875,4.06
12:25:25.312500,4.33
12:25:25.328125,4.68
12:25:25.343750,5.00
12:25:25.359375,5.12
12:25:25.375000,4.87
12:25:25.390625,4.20
12:25:25.406250,3.14
12:25:25.421875,1.88
12:25:25.437500,0.64
12:25:25.453125,-0.31
12:25:25.468750,-0.77
12:25:25.484375,-0.62
12:25:25.500000,0.19
12:25:25.515625,1.61
12:25:25.531250,3.53
12:25:25.546875,5.79
12:25:25.562500,8.20
12:25:25.578125,10.57
12:25:25.593750,12.70
12:25:25.609375,14.40
12:25:25.625000,15.55
12:25:25.640625,16.07
12:25:25.656250,15.94
12:25:25.671875,15.19
12:25:25.687500,13.86
12:25:25.703125,11.95
12:25:25.718750,9.49
12:25:25.734375,6.49
12:25:25.750000,3.05
12:25:25.765625,-0.67
12:25:25.781250,-4.41
12:25:25.796875,-7.87
12:25:25.812500,-10.70
12:25:25.828125,-12.66
12:25:25.843750,-13.57
12:25:25.859375,-13.48
12:25:25.875000,-12.61
12:25:25.890625,-11.32
12:25:25.906250,-9.98
12:25:25.921875,-8.90
12:25:25.937500,-8.18
12:25:25.953125,-7.74
12:25:25.968750,-7.40
12:25:25.984375,-7.04
12:25:26,-6.65
12:25:26.015625,-6.45
12:25:26.031250,-6.72
12:25:26.046875,-7.71
12:25:26.062500,-9.51
12:25:26.078125,-11.94
12:25:26.093750,-14.65
12:25:26.109375,-17.21
12:25:26.125000,-19.23
12:25:26.140625,-20.44
12:25:26.156250,-20.73
12:25:26.171875,-20.20
12:25:26.187500,-19.01
12:25:26.203125,-17.39
12:25:26.218750,-15.51
12:25:26.234375,-13.47
12:25:26.250000,-11.26
12:25:26.265625,-8.80
12:25:26.281250,-6.01
12:25:26.296875,-2.91
12:25:26.312500,0.37
12:25:26.328125,3.62
12:25:26.343750,6.58
12:25:26.359375,9.04
12:25:26.375000,10.88
12:25:26.390625,12.06
12:25:26.406250,12.59
12:25:26.421875,12.52
12:25:26.437500,11.93
12:25:26.453125,10.94
12:25:26.468750,9.73
12:25:26.484375,8.48
12:25:26.500000,7.35
12:25:26.515625,6.43
12:25:26.531250,5.68
12:25:26.546875,5.05
12:25:26.562500,4.47
12:25:26.578125,3.91
12:25:26.593750,3.39
12:25:26.609375,2.94
12:25:26.625000,2.53
12:25:26.640625,2.07
12:25:26.656250,1.41
12:25:26.671875,0.43
12:25:26.687500,-0.82
12:25:26.703125,-2.20
12:25:26.718750,-3.48
12:25:26.734375,-4.47
12:25:26.750000,-5.10
12:25:26.765625,-5.50
12:25:26.781250,-5.90
12:25:26.796875,-6.53
12:25:26.812500,-7.54
12:25:26.828125,-8.86
12:25:26.843750,-10.27
12:25:26.859375,-11.43
12:25:26.875000,-11.97
12:25:26.890625,-11.60
12:25:26.906250,-10.17
12:25:26.921875,-7.76
12:25:26.937500,-4.62
12:25:26.953125,-1.16
12:25:26.968750,2.21
12:25:26.984375,5.14
12:25:27,7.46
12:25:27.015625,9.20
12:25:27.031250,10.49
12:25:27.046875,11.55
12:25:27.062500,12.54
12:25:27.078125,13.60
12:25:27.093750,14.78
12:25:27.109375,16.01
12:25:27.125000,17.18
12:25:27.140625,18.10
12:25:27.156250,18.60
12:25:27.171875,18.56
12:25:27.187500,18.02
12:25:27.203125,17.15
12:25:27.218750,16.23
12:25:27.234375,15.54
12:25:27.250000,15.23
12:25:27.265625,15.28
12:25:27.281250,15.51
12:25:27.296875,15.69
12:25:27.312500,15.63
12:25:27.328125,15.28
12:25:27.343750,14.69
12:25:27.359375,13.95
12:25:27.375000,13.12
12:25:27.390625,12.15
12:25:27.406250,10.94
12:25:27.421875,9.44
12:25:27.437500,7.67
12:25:27.453125,5.72
12:25:27.468750,3.69
12:25:27.484375,1.62
12:25:27.500000,-0.58
12:25:27.515625,-3.01
12:25:27.531250,-5.68
12:25:27.546875,-8.46
12:25:27.562500,-11.04
12:25:27.578125,-13.05
12:25:27.593750,-14.21
12:25:27.609375,-14.37
12:25:27.625000,-13.58
12:25:27.640625,-12.00
12:25:27.656250,-9.82
12:25:27.671875,-7.21
12:25:27.687500,-4.28
12:25:27.703125,-1.22
12:25:27.718750,1.79
12:25:27.734375,4.51
12:25:27.750000,6.73
12:25:27.765625,8.41
12:25:27.781250,9.67
12:25:27.796875,10.75
12:25:27.812500,11.87
12:25:27.828125,13.10
12:25:27.843750,14.28
12:25:27.859375,15.06
12:25:27.875000,15.05
12:25:27.890625,13.97
12:25:27.906250,11.77
12:25:27.921875,8.64
12:25:27.937500,4.94
12:25:27.953125,1.06
12:25:27.968750,-2.67
12:25:27.984375,-6.00
12:25:28,-8.77
12:25:28.015625,-10.89
12:25:28.031250,-12.32
12:25:28.046875,-13.09
12:25:28.062500,-13.30
12:25:28.078125,-13.16
12:25:28.093750,-12.89
12:25:28.109375,-12.71
12:25:28.125000,-12.76
12:25:28.140625,-13.09
12:25:28.156250,-13.68
12:25:28.171875,-14.51
12:25:28.187500,-15.57
12:25:28.203125,-16.93
12:25:28.218750,-18.67
12:25:28.234375,-20.79
12:25:28.250000,-23.22
12:25:28.265625,-25.70
12:25:28.281250,-27.91
12:25:28.296875,-29.50
12:25:28.312500,-30.16
12:25:28.328125,-29.74
12:25:28.343750,-28.27
12:25:28.359375,-26.00
12:25:28.375000,-23.33
12:25:28.390625,-20.70
12:25:28.406250,-18.49
12:25:28.421875,-16.86
12:25:28.437500,-15.80
12:25:28.453125,-15.11
12:25:28.468750,-14.54
12:25:28.484375,-13.86
12:25:28.500000,-12.93
12:25:28.515625,-11.69
12:25:28.531250,-10.19
12:25:28.546875,-8.55
12:25:28.562500,-6.93
12:25:28.578125,-5.47
12:25:28.593750,-4.28
12:25:28.609375,-3.29
12:25:28.625000,-2.38
12:25:28.640625,-1.33
12:25:28.656250,-0.02
12:25:28.671875,1.55
12:25:28.687500,3.27
12:25:28.703125,4.88
12:25:28.718750,6.15
12:25:28.734375,6.95
12:25:28.750000,7.24
12:25:28.765625,7.09
12:25:28.781250,6.65
12:25:28.796875,6.09
12:25:28.812500,5.53
12:25:28.828125,5.07
12:25:28.843750,4.69
12:25:28.859375,4.30
12:25:28.875000,3.73
12:25:28.890625,2.82
12:25:28.906250,1.51
12:25:28.921875,-0.20
12:25:28.937500,-2.17
12:25:28.953125,-4.21
12:25:28.968750,-6.16
12:25:28.984375,-7.89
12:25:29,-9.35
12:25:29.015625,-10.48
12:25:29.031250,-11.14
12:25:29.046875,-11.14
12:25:29.062500,-10.28
12:25:29.078125,-8.49
12:25:29.093750,-5.93
12:25:29.109375,-2.96
12:25:29.125000,-0.03
12:25:29.140625,2.52
12:25:29.156250,4.55
12:25:29.171875,6.12
12:25:29.187500,7.42
12:25:29.203125,8.52
12:25:29.218750,9.39
12:25:29.234375,9.91
12:25:29.250000,9.99
12:25:29.265625,9.71
12:25:29.281250,9.25
12:25:29.296875,8.86
12:25:29.312500,8.68
12:25:29.328125,8.69
12:25:29.343750,8.77
12:25:29.359375,8.81
12:25:29.375000,8.76
12:25:29.390625,8.70
12:25:29.406250,8.72
12:25:29.421875,8.86
12:25:29.437500,9.05
12:25:29.453125,9.14
12:25:29.468750,8.94
12:25:29.484375,8.32
12:25:29.500000,7.29
12:25:29.515625,5.96
12:25:29.531250,4.50
12:25:29.546875,3.06
12:25:29.562500,1.75
12:25:29.578125,0.59
12:25:29.593750,-0.44
12:25:29.609375,-1.38
12:25:29.625000,-2.32
12:25:29.640625,-3.33
12:25:29.656250,-4.49
12:25:29.671875,-5.87
12:25:29.687500,-7.44
12:25:29.703125,-9.08
12:25:29.718750,-10.51
12:25:29.734375,-11.45
12:25:29.750000,-11.65
12:25:29.765625,-11.01
12:25:29.781250,-9.62
12:25:29.796875,-7.69
12:25:29.812500,-5.45
12:25:29.828125,-3.08
12:25:29.843750,-0.64
12:25:29.859375,1.84
12:25:29.875000,4.32
12:25:29.890625,6.73
12:25:29.906250,8.93
12:25:29.921875,10.75
12:25:29.937500,12.10
12:25:29.953125,12.93
12:25:29.968750,13.26
12:25:29.984375,13.16
12:25:30,12.67
12:25:30.015625,11.79
12:25:30.031250,10.54
12:25:30.046875,8.96
12:25:30.062500,7.14
12:25:30.078125,5.28
12:25:30.093750,3.59
12:25:30.109375,2.29
12:25:30.125000,1.48
12:25:30.140625,1.17
12:25:30.156250,1.24
12:25:30.171875,1.55
12:25:30.187500,1.95
12:25:30.203125,2.37
12:25:30.218750,2.76
12:25:30.234375,3.08
12:25:30.250000,3.26
12:25:30.265625,3.21
12:25:30.281250,2.81
12:25:30.296875,2.01
12:25:30.312500,0.81
12:25:30.328125,-0.77
12:25:30.343750,-2.64
12:25:30.359375,-4.73
12:25:30.375000,-6.96
12:25:30.390625,-9.26
12:25:30.406250,-11.58
12:25:30.421875,-13.91
12:25:30.437500,-16.32
12:25:30.453125,-18.89
12:25:30.468750,-21.67
12:25:30.484375,-24.50
12:25:30.500000,-27.01
12:25:30.515625,-28.70
12:25:30.531250,-29.06
12:25:30.546875,-27.80
12:25:30.562500,-24.99
12:25:30.578125,-21.00
12:25:30.593750,-16.44
12:25:30.609375,-11.90
12:25:30.625000,-7.82
12:25:30.640625,-4.43
12:25:30.656250,-1.77
12:25:30.671875,0.25
12:25:30.687500,1.75
12:25:30.703125,2.84
12:25:30.718750,3.64
12:25:30.734375,4.26
12:25:30.750000,4.84
12:25:30.765625,5.49
12:25:30.781250,6.31
12:25:30.796875,7.31
12:25:30.812500,8.44
12:25:30.828125,9.64
12:25:30.843750,10.85
12:25:30.859375,12.09
12:25:30.875000,13.39
12:25:30.890625,14.77
12:25:30.906250,16.18
12:25:30.921875,17.53
12:25:30.937500,18.64
12:25:30.953125,19.34
12:25:30.968750,19.52
12:25:30.984375,19.14
12:25:31,18.18
12:25:31.015625,16.68
12:25:31.031250,14.69
12:25:31.046875,12.30
12:25:31.062500,9.70
12:25:31.078125,7.09
12:25:31.093750,4.74
