15:34:02,-0.00
15:34:02.015625,-0.00
15:34:02.031250,-0.00
15:34:02.046875,-0.00
15:34:02.062500,-0.00
15:34:02.078125,-0.00
15:34:02.093750,-0.00
15:34:02.109375,-0.00
15:34:02.125000,-0.00
15:34:02.140625,-0.01
15:34:02.156250,-0.00
15:34:02.171875,0.00
15:34:02.187500,0.01
15:34:02.203125,0.01
15:34:02.218750,-0.00
15:34:02.234375,-0.03
15:34:02.250000,-0.05
15:34:02.265625,-0.05
15:34:02.281250,-0.00
15:34:02.296875,0.13
15:34:02.312500,0.36
15:34:02.328125,0.66
15:34:02.343750,1.01
15:34:02.359375,1.37
15:34:02.375000,1.72
15:34:02.390625,2.06
15:34:02.406250,2.40
15:34:02.421875,2.77
15:34:02.437500,3.24
15:34:02.453125,3.80
15:34:02.468750,4.42
15:34:02.484375,5.06
15:34:02.500000,5.66
15:34:02.515625,6.20
15:34:02.531250,6.68
15:34:02.546875,7.15
15:34:02.562500,7.64
15:34:02.578125,8.31
15:34:02.593750,9.14
15:34:02.609375,10.09
15:34:02.625000,11.04
15:34:02.640625,11.88
15:34:02.656250,12.56
15:34:02.671875,13.14
15:34:02.687500,13.76
15:34:02.703125,14.58
15:34:02.718750,15.96
15:34:02.734375,17.91
15:34:02.750000,20.32
15:34:02.765625,22.90
15:34:02.781250,25.38
15:34:02.796875,27.58
15:34:02.812500,29.57
15:34:02.828125,31.68
15:34:02.843750,34.20
15:34:02.859375,37.81
15:34:02.875000,42.54
15:34:02.890625,48.15
15:34:02.906250,54.10
15:34:02.921875,59.83
15:34:02.937500,64.97
15:34:02.953125,69.58
15:34:02.968750,74.14
15:34:02.984375,79.19
15:34:03,85.71
15:34:03.015625,93.76
15:34:03.031250,103.00
15:34:03.046875,112.62
15:34:03.062500,121.73
15:34:03.078125,129.77
15:34:03.093750,136.75
15:34:03.109375,144.29
15:34:03.125000,150.58
15:34:03.140625,157.77
15:34:03.156250,166.64
15:34:03.171875,177.95
15:34:03.187500,191.79
15:34:03.203125,206.97
15:34:03.218750,220.57
15:34:03.234375,228.25
15:34:03.250000,225.36
15:34:03.265625,208.37
15:34:03.281250,176.87
15:34:03.296875,132.76
15:34:03.312500,80.05
15:34:03.328125,23.07
15:34:03.343750,-34.94
15:34:03.359375,-92.44
15:34:03.375000,-149.16
15:34:03.390625,-205.23
15:34:03.406250,-260.49
15:34:03.421875,-313.74
15:34:03.437500,-363.87
15:34:03.453125,-409.83
15:34:03.468750,-450.91
15:34:03.484375,-486.50
15:34:03.500000,-515.74
15:34:03.515625,-537.23
15:34:03.531250,-549.22
15:34:03.546875,-550.04
15:34:03.562500,-538.37
15:34:03.578125,-514.21
15:34:03.593750,-478.67
15:34:03.609375,-433.88
15:34:03.625000,-382.45
15:34:03.640625,-327.01
15:34:03.656250,-269.82
15:34:03.671875,-212.60
15:34:03.687500,-156.65
15:34:03.703125,-102.88
15:34:03.718750,-52.28
15:34:03.734375,-5.77
15:34:03.750000,35.75
15:34:03.765625,71.64
15:34:03.781250,101.61
15:34:03.796875,125.81
15:34:03.812500,144.75
15:34:03.828125,159.10
15:34:03.843750,169.63
15:34:03.859375,176.92
15:34:03.875000,181.36
15:34:03.890625,183.25
15:34:03.906250,182.81
15:34:03.921875,180.32
15:34:03.937500,176.12
15:34:03.953125,170.62
15:34:03.968750,164.24
15:34:03.984375,157.30
15:34:04,150.06
15:34:04.015625,142.66
15:34:04.031250,135.18
15:34:04.046875,127.65
15:34:04.062500,120.13
15:34:04.078125,112.68
15:34:04.093750,105.36
15:34:04.109375,98.22
15:34:04.125000,91.31
15:34:04.140625,84.65
15:34:04.156250,78.27
15:34:04.171875,72.21
15:34:04.187500,66.49
15:34:04.203125,61.15
15:34:04.218750,56.18
15:34:04.234375,51.59
15:34:04.250000,47.34
15:34:04.265625,43.41
15:34:04.281250,39.79
15:34:04.296875,36.50
15:34:04.312500,33.56
15:34:04.328125,30.96
15:34:04.343750,28.73
15:34:04.359375,26.84
15:34:04.375000,25.25
15:34:04.390625,23.93
15:34:04.406250,22.84
15:34:04.421875,21.99
15:34:04.437500,21.39
15:34:04.453125,21.10
15:34:04.468750,21.13
15:34:04.484375,21.51
15:34:04.500000,22.15
15:34:04.515625,22.96
15:34:04.531250,23.81
15:34:04.546875,24.57
15:34:04.562500,25.15
15:34:04.578125,25.54
15:34:04.593750,25.75
15:34:04.609375,25.77
15:34:04.625000,25.50
15:34:04.640625,24.72
15:34:04.656250,23.14
15:34:04.671875,20.46
15:34:04.687500,16.52
15:34:04.703125,11.36
15:34:04.718750,5.23
15:34:04.734375,-1.44
15:34:04.750000,-8.21
15:34:04.765625,-14.78
15:34:04.781250,-21.05
15:34:04.796875,-27.10
15:34:04.812500,-33.04
15:34:04.828125,-38.88
15:34:04.843750,-44.45
15:34:04.859375,-49.42
15:34:04.875000,-53.41
15:34:04.890625,-56.24
15:34:04.906250,-58.03
15:34:04.921875,-59.09
15:34:04.937500,-59.84
15:34:04.953125,-60.55
15:34:04.968750,-61.35
15:34:04.984375,-62.22
15:34:05,-63.40
15:34:05.015625,-65.31
15:34:05.031250,-68.18
15:34:05.046875,-71.61
15:34:05.062500,-74.22
15:34:05.078125,-73.93
15:34:05.093750,-68.84
15:34:05.109375,-58.40
15:34:05.125000,-43.96
15:34:05.140625,-28.42
15:34:05.156250,-14.94
15:34:05.171875,-5.56
15:34:05.187500,-0.45
15:34:05.203125,1.73
15:34:05.218750,2.66
15:34:05.234375,3.30
15:34:05.250000,3.71
15:34:05.265625,3.77
15:34:05.281250,4.11
15:34:05.296875,6.35
15:34:05.312500,12.35
15:34:05.328125,22.79
15:34:05.343750,36.16
15:34:05.359375,49.08
15:34:05.375000,57.66
15:34:05.390625,59.49
15:34:05.406250,54.79
15:34:05.421875,46.22
15:34:05.437500,37.24
15:34:05.453125,30.47
15:34:05.468750,26.46
15:34:05.484375,23.52
15:34:05.500000,19.68
15:34:05.515625,13.53
15:34:05.531250,4.96
15:34:05.546875,-4.87
15:34:05.562500,-14.47
15:34:05.578125,-22.88
15:34:05.593750,-29.91
15:34:05.609375,-36.00
15:34:05.625000,-41.77
15:34:05.640625,-47.50
15:34:05.656250,-53.18
15:34:05.671875,-58.64
15:34:05.687500,-63.54
15:34:05.703125,-67.74
15:34:05.718750,-71.23
15:34:05.734375,-73.94
15:34:05.750000,-75.60
15:34:05.765625,-75.80
15:34:05.781250,-73.92
15:34:05.796875,-69.47
15:34:05.812500,-62.06
15:34:05.828125,-51.32
15:34:05.843750,-37.17
15:34:05.859375,-19.72
15:34:05.875000,0.76
15:34:05.890625,23.74
15:34:05.906250,48.29
15:34:05.921875,73.13
15:34:05.937500,96.72
15:34:05.953125,116.23
15:34:05.968750,130.55
15:34:05.984375,139.72
15:34:06,144.46
15:34:06.015625,146.05
15:34:06.031250,145.66
15:34:06.046875,143.84
15:34:06.062500,140.78
15:34:06.078125,136.69
15:34:06.093750,131.78
15:34:06.109375,126.33
15:34:06.125000,120.04
15:34:06.140625,111.81
15:34:06.156250,100.09
15:34:06.171875,83.58
15:34:06.187500,62.19
15:34:06.203125,37.54
15:34:06.218750,12.56
15:34:06.234375,-9.75
15:34:06.250000,-27.30
15:34:06.265625,-39.66
15:34:06.281250,-47.24
15:34:06.296875,-50.20
15:34:06.312500,-47.87
15:34:06.328125,-39.10
15:34:06.343750,-23.40
15:34:06.359375,-2.21
15:34:06.375000,20.70
15:34:06.390625,40.19
15:34:06.406250,51.39
15:34:06.421875,51.97
15:34:06.437500,43.36
15:34:06.453125,30.27
15:34:06.468750,18.80
15:34:06.484375,13.72
15:34:06.500000,15.90
15:34:06.515625,22.27
15:34:06.531250,27.94
15:34:06.546875,28.02
15:34:06.562500,20.58
15:34:06.578125,7.48
15:34:06.593750,-7.07
15:34:06.609375,-18.99
15:34:06.625000,-26.20
15:34:06.640625,-29.35
15:34:06.656250,-30.57
15:34:06.671875,-31.67
15:34:06.687500,-33.08
15:34:06.703125,-33.89
15:34:06.718750,-32.96
15:34:06.734375,-30.07
15:34:06.750000,-26.14
15:34:06.765625,-22.62
15:34:06.781250,-20.56
15:34:06.796875,-20.01
15:34:06.812500,-20.34
15:34:06.828125,-20.90
15:34:06.843750,-21.51
15:34:06.859375,-22.57
15:34:06.875000,-24.58
15:34:06.890625,-27.63
15:34:06.906250,-31.20
15:34:06.921875,-34.42
15:34:06.937500,-36.53
15:34:06.953125,-37.23
15:34:06.968750,-36.73
15:34:06.984375,-35.38
15:34:07,-33.38
15:34:07.015625,-30.70
15:34:07.031250,-27.30
15:34:07.046875,-23.36
15:34:07.062500,-19.41
15:34:07.078125,-16.09
15:34:07.093750,-13.85
15:34:07.109375,-12.70
15:34:07.125000,-12.19
15:34:07.140625,-11.68
15:34:07.156250,-10.57
15:34:07.171875,-8.59
15:34:07.187500,-5.93
15:34:07.203125,-3.05
15:34:07.218750,-0.46
15:34:07.234375,1.46
15:34:07.250000,2.68
15:34:07.265625,3.39
15:34:07.281250,3.94
15:34:07.296875,4.70
15:34:07.312500,5.85
15:34:07.328125,7.34
15:34:07.343750,8.94
15:34:07.359375,10.31
15:34:07.375000,11.18
15:34:07.390625,11.36
15:34:07.406250,10.80
15:34:07.421875,9.48
15:34:07.437500,7.45
15:34:07.453125,4.77
15:34:07.468750,1.32
15:34:07.484375,-2.82
15:34:07.500000,-7.53
15:34:07.515625,-12.57
15:34:07.531250,-17.60
15:34:07.546875,-22.19
15:34:07.562500,-26.00
15:34:07.578125,-28.61
15:34:07.593750,-29.76
15:34:07.609375,-29.30
15:34:07.625000,-27.21
15:34:07.640625,-23.48
15:34:07.656250,-18.23
15:34:07.671875,-11.69
15:34:07.687500,-3.82
15:34:07.703125,4.40
15:34:07.718750,12.27
15:34:07.734375,19.17
15:34:07.750000,24.74
15:34:07.765625,28.86
15:34:07.781250,31.81
15:34:07.796875,34.01
15:34:07.812500,35.82
15:34:07.828125,37.31
15:34:07.843750,38.11
15:34:07.859375,37.69
15:34:07.875000,35.48
15:34:07.890625,31.20
15:34:07.906250,24.77
15:34:07.921875,17.00
15:34:07.937500,8.82
15:34:07.953125,1.04
15:34:07.968750,-6.04
15:34:07.984375,-12.79
15:34:08,-19.90
15:34:08.015625,-28.09
15:34:08.031250,-37.08
15:34:08.046875,-46.77
15:34:08.062500,-56.05
15:34:08.078125,-63.64
15:34:08.093750,-68.69
15:34:08.109375,-71.08
15:34:08.125000,-71.60
15:34:08.140625,-71.50
15:34:08.156250,-72.26
15:34:08.171875,-74.57
15:34:08.187500,-79.01
15:34:08.203125,-85.75
15:34:08.218750,-94.36
15:34:08.234375,-103.20
15:34:08.250000,-109.20
15:34:08.265625,-108.49
15:34:08.281250,-97.86
15:34:08.296875,-76.58
15:34:08.312500,-47.32
15:34:08.328125,-15.73
15:34:08.343750,11.85
15:34:08.359375,30.81
15:34:08.375000,39.82
15:34:08.390625,40.72
15:34:08.406250,36.90
15:34:08.421875,31.39
15:34:08.437500,25.77
15:34:08.453125,20.40
15:34:08.468750,15.22
15:34:08.484375,10.69
15:34:08.500000,7.78
15:34:08.515625,7.33
15:34:08.531250,9.29
15:34:08.546875,12.66
15:34:08.562500,16.10
15:34:08.578125,18.79
15:34:08.593750,20.99
15:34:08.609375,24.00
15:34:08.625000,29.44
15:34:08.640625,38.33
15:34:08.656250,50.42
15:34:08.671875,64.19
15:34:08.687500,77.58
15:34:08.703125,88.61
15:34:08.718750,96.36
15:34:08.734375,100.46
15:34:08.750000,102.35
15:34:08.765625,103.68
15:34:08.781250,106.02
15:34:08.796875,110.52
15:34:08.812500,117.38
15:34:08.828125,125.16
15:34:08.843750,130.48
15:34:08.859375,128.76
15:34:08.875000,116.30
15:34:08.890625,91.56
15:34:08.906250,57.17
15:34:08.921875,19.41
15:34:08.937500,-14.19
15:34:08.953125,-37.88
15:34:08.968750,-49.87
15:34:08.984375,-52.38
15:34:09,-49.79
15:34:09.015625,-46.08
15:34:09.031250,-43.07
15:34:09.046875,-40.51
15:34:09.062500,-37.29
15:34:09.078125,-32.94
15:34:09.093750,-28.18
15:34:09.109375,-24.42
15:34:09.125000,-22.68
15:34:09.140625,-22.81
15:34:09.156250,-23.64
15:34:09.171875,-23.62
15:34:09.187500,-21.54
15:34:09.203125,-17.33
15:34:09.218750,-11.88
15:34:09.234375,-6.59
15:34:09.250000,-2.68
15:34:09.265625,-0.72
15:34:09.281250,-0.34
15:34:09.296875,-0.62
15:34:09.312500,-0.47
15:34:09.328125,0.77
15:34:09.343750,3.05
15:34:09.359375,5.72
15:34:09.375000,7.83
15:34:09.390625,8.60
15:34:09.406250,7.70
15:34:09.421875,5.41
15:34:09.437500,2.34
15:34:09.453125,-0.68
15:34:09.468750,-3.11
15:34:09.484375,-4.79
15:34:09.500000,-5.92
15:34:09.515625,-6.87
15:34:09.531250,-7.98
15:34:09.546875,-9.34
15:34:09.562500,-10.81
15:34:09.578125,-12.05
15:34:09.593750,-12.75
15:34:09.609375,-12.75
15:34:09.625000,-12.11
15:34:09.640625,-11.08
15:34:09.656250,-9.99
15:34:09.671875,-9.09
15:34:09.687500,-8.48
15:34:09.703125,-8.08
15:34:09.718750,-7.69
15:34:09.734375,-7.11
15:34:09.750000,-6.27
15:34:09.765625,-5.27
15:34:09.781250,-4.26
15:34:09.796875,-3.46
15:34:09.812500,-3.02
15:34:09.828125,-2.97
15:34:09.843750,-3.17
15:34:09.859375,-3.35
15:34:09.875000,-3.13
15:34:09.890625,-2.45
15:34:09.906250,-1.35
15:34:09.921875,-0.07
15:34:09.937500,1.02
15:34:09.953125,1.59
15:34:09.968750,1.56
15:34:09.984375,1.21
15:34:10,1.14
15:34:10.015625,2.10
15:34:10.031250,4.20
15:34:10.046875,7.22
15:34:10.062500,10.47
15:34:10.078125,12.97
15:34:10.093750,13.87
15:34:10.109375,12.93
15:34:10.125000,10.71
15:34:10.140625,8.47
15:34:10.156250,7.73
15:34:10.171875,8.89
15:34:10.187500,11.65
15:34:10.203125,14.76
15:34:10.218750,16.43
15:34:10.234375,15.08
15:34:10.250000,10.14
15:34:10.265625,2.42
15:34:10.281250,-6.20
15:34:10.296875,-13.32
15:34:10.312500,-18.01
15:34:10.328125,-20.64
15:34:10.343750,-23.05
15:34:10.359375,-28.03
15:34:10.375000,-38.73
15:34:10.390625,-57.67
15:34:10.406250,-86.23
15:34:10.421875,-124.90
15:34:10.437500,-167.23
15:34:10.453125,-208.14
15:34:10.468750,-242.21
15:34:10.484375,-264.81
15:34:10.500000,-273.87
15:34:10.515625,-271.45
15:34:10.531250,-263.77
15:34:10.546875,-259.04
15:34:10.562500,-263.64
15:34:10.578125,-278.17
15:34:10.593750,-297.28
15:34:10.609375,-310.76
15:34:10.625000,-308.68
15:34:10.640625,-286.44
15:34:10.656250,-246.95
15:34:10.671875,-198.77
15:34:10.687500,-151.32
15:34:10.703125,-110.33
15:34:10.718750,-75.58
15:34:10.734375,-43.16
15:34:10.750000,-8.26
15:34:10.765625,31.48
15:34:10.781250,74.89
15:34:10.796875,118.76
15:34:10.812500,159.97
15:34:10.828125,196.43
15:34:10.843750,226.83
15:34:10.859375,249.98
15:34:10.875000,264.25
15:34:10.890625,269.13
15:34:10.906250,266.64
15:34:10.921875,261.74
15:34:10.937500,260.96
15:34:10.953125,269.40
15:34:10.968750,287.90
15:34:10.984375,311.97
15:34:11,333.32
15:34:11.015625,342.79
15:34:11.031250,334.00
15:34:11.046875,305.05
15:34:11.062500,257.99
15:34:11.078125,196.97
15:34:11.093750,126.13
15:34:11.109375,48.20
15:34:11.125000,-35.07
15:34:11.140625,-121.44
15:34:11.156250,-206.95
15:34:11.171875,-285.03
15:34:11.187500,-347.18
15:34:11.203125,-385.47
15:34:11.218750,-395.57
15:34:11.234375,-379.27
15:34:11.250000,-344.26
15:34:11.265625,-302.31
15:34:11.281250,-264.93
15:34:11.296875,-239.01
15:34:11.312500,-224.60
15:34:11.328125,-216.08
15:34:11.343750,-205.99
15:34:11.359375,-189.07
15:34:11.375000,-164.20
15:34:11.390625,-133.04
15:34:11.406250,-98.04
15:34:11.421875,-60.43
15:34:11.437500,-20.33
15:34:11.453125,21.18
15:34:11.468750,59.62
15:34:11.484375,86.63
15:34:11.500000,92.77
15:34:11.515625,72.29
15:34:11.531250,28.27
15:34:11.546875,-28.41
15:34:11.562500,-83.10
15:34:11.578125,-123.01
15:34:11.593750,-141.41
15:34:11.609375,-139.01
15:34:11.625000,-122.11
15:34:11.640625,-98.65
15:34:11.656250,-74.75
15:34:11.671875,-50.25
15:34:11.687500,-23.62
15:34:11.703125,5.08
15:34:11.718750,33.31
15:34:11.734375,57.89
15:34:11.750000,76.94
15:34:11.765625,90.47
15:34:11.781250,100.09
15:34:11.796875,108.19
15:34:11.812500,122.84
15:34:11.828125,148.54
15:34:11.843750,183.47
15:34:11.859375,220.96
15:34:11.875000,254.51
15:34:11.890625,281.06
15:34:11.906250,300.93
15:34:11.921875,316.39
15:34:11.937500,330.28
15:34:11.953125,354.30
15:34:11.968750,394.74
15:34:11.984375,448.60
15:34:12,505.62
15:34:12.015625,556.05
15:34:12.031250,595.43
15:34:12.046875,624.04
15:34:12.062500,644.73
15:34:12.078125,660.76
15:34:12.093750,686.78
15:34:12.109375,730.58
15:34:12.125000,788.28
15:34:12.140625,846.80
15:34:12.156250,893.77
15:34:12.171875,923.78
15:34:12.187500,937.53
15:34:12.203125,938.72
15:34:12.218750,854.56
15:34:12.234375,658.30
15:34:12.250000,382.42
15:34:12.265625,96.61
15:34:12.281250,-145.62
15:34:12.296875,-327.07
15:34:12.312500,-453.54
15:34:12.328125,-537.72
15:34:12.343750,-591.14
15:34:12.359375,-622.04
15:34:12.375000,-623.47
15:34:12.390625,-591.81
15:34:12.406250,-532.50
15:34:12.421875,-459.21
15:34:12.437500,-387.61
15:34:12.453125,-328.74
15:34:12.468750,-289.29
15:34:12.484375,-272.38
15:34:12.500000,-277.47
15:34:12.515625,-290.72
15:34:12.531250,-303.83
15:34:12.546875,-307.92
15:34:12.562500,-301.94
15:34:12.578125,-289.81
15:34:12.593750,-276.24
15:34:12.609375,-265.05
15:34:12.625000,-257.92
15:34:12.640625,-254.23
15:34:12.656250,-245.97
15:34:12.671875,-227.77
15:34:12.687500,-199.96
15:34:12.703125,-169.30
15:34:12.718750,-142.97
15:34:12.734375,-124.40
15:34:12.750000,-113.22
15:34:12.765625,-106.73
15:34:12.781250,-101.85
15:34:12.796875,-93.56
15:34:12.812500,-79.48
15:34:12.828125,-60.42
15:34:12.843750,-40.54
15:34:12.859375,-23.86
15:34:12.875000,-12.10
15:34:12.890625,-5.00
15:34:12.906250,-0.83
15:34:12.921875,2.03
15:34:12.937500,5.53
15:34:12.953125,10.26
15:34:12.968750,15.49
15:34:12.984375,19.03
15:34:13,18.97
15:34:13.015625,14.64
15:34:13.031250,6.08
15:34:13.046875,-5.01
15:34:13.062500,-16.95
15:34:13.078125,-28.38
15:34:13.093750,-38.46
15:34:13.109375,-46.65
15:34:13.125000,-53.00
15:34:13.140625,-57.77
15:34:13.156250,-59.59
15:34:13.171875,-59.61
15:34:13.187500,-58.07
15:34:13.203125,-55.18
15:34:13.218750,-51.29
15:34:13.234375,-46.82
15:34:13.250000,-42.18
15:34:13.265625,-37.80
15:34:13.281250,-33.92
15:34:13.296875,-30.72
15:34:13.312500,-28.39
15:34:13.328125,-26.57
15:34:13.343750,-25.04
15:34:13.359375,-23.66
15:34:13.375000,-22.38
15:34:13.390625,-21.18
15:34:13.406250,-20.07
15:34:13.421875,-18.99
15:34:13.437500,-18.03
15:34:13.453125,-17.38
15:34:13.468750,-16.91
15:34:13.484375,-16.56
15:34:13.500000,-16.33
15:34:13.515625,-16.21
15:34:13.531250,-16.21
15:34:13.546875,-16.33
15:34:13.562500,-16.50
15:34:13.578125,-16.78
15:34:13.593750,-17.29
15:34:13.609375,-17.97
15:34:13.625000,-18.75
15:34:13.640625,-19.63
15:34:13.656250,-20.63
15:34:13.671875,-21.78
15:34:13.687500,-23.41
15:34:13.703125,-25.24
15:34:13.718750,-27.20
15:34:13.734375,-29.30
15:34:13.750000,-31.42
15:34:13.765625,-33.35
15:34:13.781250,-34.96
15:34:13.796875,-35.99
15:34:13.812500,-36.19
15:34:13.828125,-35.30
15:34:13.843750,-33.08
15:34:13.859375,-29.40
15:34:13.875000,-24.30
15:34:13.890625,-18.21
15:34:13.906250,-11.04
15:34:13.921875,-3.16
15:34:13.937500,5.05
15:34:13.953125,13.11
15:34:13.968750,20.58
15:34:13.984375,27.13
15:34:14,32.49
15:34:14.015625,36.50
15:34:14.031250,39.18
15:34:14.046875,40.72
15:34:14.062500,41.24
15:34:14.078125,41.01
15:34:14.093750,40.25
15:34:14.109375,39.18
15:34:14.125000,37.98
15:34:14.140625,36.72
15:34:14.156250,35.49
15:34:14.171875,34.30
15:34:14.187500,33.24
15:34:14.203125,32.24
15:34:14.218750,31.28
15:34:14.234375,30.39
15:34:14.250000,29.58
15:34:14.265625,28.96
15:34:14.281250,28.56
15:34:14.296875,28.45
15:34:14.312500,28.70
15:34:14.328125,29.43
15:34:14.343750,30.53
15:34:14.359375,31.94
15:34:14.375000,33.63
15:34:14.390625,35.57
15:34:14.406250,37.78
15:34:14.421875,40.25
15:34:14.437500,43.04
15:34:14.453125,46.17
15:34:14.468750,49.77
15:34:14.484375,53.57
15:34:14.500000,57.46
15:34:14.515625,61.39
15:34:14.531250,65.33
15:34:14.546875,69.34
15:34:14.562500,73.48
15:34:14.578125,77.86
15:34:14.593750,82.61
15:34:14.609375,87.97
15:34:14.625000,93.59
15:34:14.640625,99.35
15:34:14.656250,105.24
15:34:14.671875,111.23
15:34:14.687500,117.44
15:34:14.703125,123.89
15:34:14.718750,130.68
15:34:14.734375,137.85
15:34:14.750000,145.52
15:34:14.765625,153.05
15:34:14.781250,160.01
15:34:14.796875,166.08
15:34:14.812500,170.93
15:34:14.828125,174.19
15:34:14.843750,175.33
15:34:14.859375,173.39
15:34:14.875000,166.68
15:34:14.890625,157.85
15:34:14.906250,147.48
15:34:14.921875,135.98
15:34:14.937500,123.86
15:34:14.953125,111.71
15:34:14.968750,100.20
15:34:14.984375,89.87
15:34:15,81.10
15:34:15.015625,73.93
15:34:15.031250,68.26
15:34:15.046875,63.15
15:34:15.062500,57.96
15:34:15.078125,52.39
15:34:15.093750,46.47
15:34:15.109375,40.49
15:34:15.125000,34.69
15:34:15.140625,28.97
15:34:15.156250,22.88
15:34:15.171875,15.69
15:34:15.187500,6.06
15:34:15.203125,-6.96
15:34:15.218750,-23.67
15:34:15.234375,-43.76
15:34:15.250000,-66.50
15:34:15.265625,-91.01
15:34:15.281250,-116.65
15:34:15.296875,-143.12
15:34:15.312500,-170.37
15:34:15.328125,-198.94
15:34:15.343750,-229.38
15:34:15.359375,-262.28
15:34:15.375000,-297.93
15:34:15.390625,-335.88
15:34:15.406250,-374.28
15:34:15.421875,-409.74
15:34:15.437500,-437.78
15:34:15.453125,-454.03
15:34:15.468750,-455.97
15:34:15.484375,-443.68
15:34:15.500000,-419.84
15:34:15.515625,-388.68
15:34:15.531250,-354.49
15:34:15.546875,-320.37
15:34:15.562500,-287.80
15:34:15.578125,-257.08
15:34:15.593750,-228.12
15:34:15.609375,-201.01
15:34:15.625000,-176.00
15:34:15.640625,-153.25
15:34:15.656250,-132.53
15:34:15.671875,-113.28
15:34:15.687500,-94.80
15:34:15.703125,-76.78
15:34:15.718750,-59.29
15:34:15.734375,-42.79
15:34:15.750000,-27.84
15:34:15.765625,-14.64
15:34:15.781250,-2.93
15:34:15.796875,8.03
15:34:15.812500,19.22
15:34:15.828125,31.48
15:34:15.843750,44.84
15:34:15.859375,57.89
15:34:15.875000,67.71
15:34:15.890625,70.46
15:34:15.906250,62.76
15:34:15.921875,43.32
15:34:15.937500,13.97
15:34:15.953125,-20.54
15:34:15.968750,-54.02
15:34:15.984375,-81.14
15:34:16,-99.33
15:34:16.015625,-109.39
15:34:16.031250,-114.61
15:34:16.046875,-119.09
15:34:16.062500,-125.74
15:34:16.078125,-135.45
15:34:16.093750,-147.47
15:34:16.109375,-160.12
15:34:16.125000,-172.02
15:34:16.140625,-182.45
15:34:16.156250,-191.02
15:34:16.171875,-197.18
15:34:16.187500,-200.48
15:34:16.203125,-201.53
15:34:16.218750,-202.83
15:34:16.234375,-208.75
15:34:16.250000,-223.72
15:34:16.265625,-249.59
15:34:16.281250,-283.45
15:34:16.296875,-317.89
15:34:16.312500,-343.61
15:34:16.328125,-353.35
15:34:16.343750,-345.02
15:34:16.359375,-322.03
15:34:16.375000,-291.14
15:34:16.390625,-258.94
15:34:16.406250,-229.29
15:34:16.421875,-202.77
15:34:16.437500,-178.25
15:34:16.453125,-154.86
15:34:16.468750,-133.03
15:34:16.484375,-114.07
15:34:16.500000,-99.03
15:34:16.515625,-87.61
15:34:16.531250,-78.22
15:34:16.546875,-68.86
15:34:16.562500,-58.02
15:34:16.578125,-45.41
15:34:16.593750,-32.11
15:34:16.609375,-19.73
15:34:16.625000,-9.63
15:34:16.640625,-2.26
15:34:16.656250,2.94
15:34:16.671875,7.35
15:34:16.687500,12.39
15:34:16.703125,18.92
15:34:16.718750,26.92
15:34:16.734375,35.50
15:34:16.750000,43.42
15:34:16.765625,49.66
15:34:16.781250,53.83
15:34:16.796875,56.29
15:34:16.812500,57.85
15:34:16.828125,59.43
15:34:16.843750,61.60
15:34:16.859375,64.42
15:34:16.875000,67.43
15:34:16.890625,70.02
15:34:16.906250,71.68
15:34:16.921875,72.20
15:34:16.937500,71.81
15:34:16.953125,70.90
15:34:16.968750,69.93
15:34:16.984375,69.22
15:34:17,68.83
15:34:17.015625,68.64
15:34:17.031250,68.49
15:34:17.046875,68.22
15:34:17.062500,67.80
15:34:17.078125,67.31
15:34:17.093750,66.89
15:34:17.109375,66.61
15:34:17.125000,66.49
15:34:17.140625,66.44
15:34:17.156250,66.31
15:34:17.171875,65.97
15:34:17.187500,65.27
15:34:17.203125,64.17
15:34:17.218750,62.63
15:34:17.234375,60.73
15:34:17.250000,58.53
15:34:17.265625,56.19
15:34:17.281250,53.87
15:34:17.296875,51.74
15:34:17.312500,49.95
15:34:17.328125,48.61
15:34:17.343750,47.74
15:34:17.359375,47.33
15:34:17.375000,47.33
15:34:17.390625,47.61
15:34:17.406250,48.09
15:34:17.421875,48.66
15:34:17.437500,49.25
15:34:17.453125,49.86
15:34:17.468750,50.49
15:34:17.484375,51.19
15:34:17.500000,52.01
15:34:17.515625,52.99
15:34:17.531250,54.16
15:34:17.546875,55.55
15:34:17.562500,57.15
15:34:17.578125,58.92
15:34:17.593750,60.84
15:34:17.609375,62.90
15:34:17.625000,65.09
15:34:17.640625,67.45
15:34:17.656250,70.02
15:34:17.671875,72.85
15:34:17.687500,75.98
15:34:17.703125,79.38
15:34:17.718750,82.97
15:34:17.734375,86.63
15:34:17.750000,90.18
15:34:17.765625,93.39
15:34:17.781250,96.06
15:34:17.796875,98.02
15:34:17.812500,99.13
15:34:17.828125,99.36
15:34:17.843750,99.51
15:34:17.859375,100.19
15:34:17.875000,101.56
15:34:17.890625,103.33
15:34:17.906250,104.98
15:34:17.921875,106.21
15:34:17.937500,107.00
15:34:17.953125,107.55
15:34:17.968750,108.10
15:34:17.984375,109.64
15:34:18,112.81
15:34:18.015625,117.64
15:34:18.031250,123.61
15:34:18.046875,129.83
15:34:18.062500,135.61
15:34:18.078125,140.45
15:34:18.093750,144.08
15:34:18.109375,146.31
15:34:18.125000,148.80
15:34:18.140625,152.61
15:34:18.156250,157.54
15:34:18.171875,162.14
15:34:18.187500,164.48
15:34:18.203125,163.19
15:34:18.218750,157.74
15:34:18.234375,148.35
15:34:18.250000,135.64
15:34:18.265625,125.45
15:34:18.281250,122.15
15:34:18.296875,126.81
15:34:18.312500,137.00
15:34:18.328125,148.99
15:34:18.343750,160.20
15:34:18.359375,170.10
15:34:18.375000,179.65
15:34:18.390625,190.25
15:34:18.406250,213.34
15:34:18.421875,256.61
15:34:18.437500,320.23
15:34:18.453125,396.65
15:34:18.468750,475.34
15:34:18.484375,548.23
15:34:18.500000,611.73
15:34:18.515625,665.89
15:34:18.531250,712.54
15:34:18.546875,770.25
15:34:18.562500,852.18
15:34:18.578125,959.89
15:34:18.593750,1082.75
15:34:18.609375,1205.15
15:34:18.625000,1315.00
15:34:18.640625,1406.75
15:34:18.656250,1479.88
15:34:18.671875,1536.12
15:34:18.687500,1598.58
15:34:18.703125,1683.02
15:34:18.718750,1790.12
15:34:18.734375,1905.04
15:34:18.750000,2007.03
15:34:18.765625,2080.73
15:34:18.781250,2120.20
15:34:18.796875,2127.14
15:34:18.812500,1973.87
15:34:18.828125,1599.68
15:34:18.843750,1027.38
15:34:18.859375,359.18
15:34:18.875000,-284.34
15:34:18.890625,-823.83
15:34:18.906250,-1233.73
15:34:18.921875,-1523.89
15:34:18.937500,-1718.13
15:34:18.953125,-1841.99
15:34:18.968750,-1895.88
15:34:18.984375,-1881.54
15:34:19,-1810.03
15:34:19.015625,-1702.74
15:34:19.031250,-1584.28
15:34:19.046875,-1471.32
15:34:19.062500,-1371.83
15:34:19.078125,-1286.27
15:34:19.093750,-1212.30
15:34:19.109375,-1131.29
15:34:19.125000,-1030.95
15:34:19.140625,-911.20
15:34:19.156250,-783.73
15:34:19.171875,-665.47
15:34:19.187500,-569.50
15:34:19.203125,-501.64
15:34:19.218750,-461.25
15:34:19.234375,-444.73
15:34:19.250000,-437.03
15:34:19.265625,-425.98
15:34:19.281250,-411.22
15:34:19.296875,-396.32
15:34:19.312500,-386.92
15:34:19.328125,-386.29
15:34:19.343750,-395.93
15:34:19.359375,-411.26
15:34:19.375000,-426.14
15:34:19.390625,-430.90
15:34:19.406250,-420.33
15:34:19.421875,-395.24
15:34:19.437500,-360.63
15:34:19.453125,-323.27
15:34:19.468750,-288.72
15:34:19.484375,-259.95
15:34:19.500000,-237.60
15:34:19.515625,-221.47
15:34:19.531250,-209.22
15:34:19.546875,-198.92
15:34:19.562500,-189.60
15:34:19.578125,-180.70
15:34:19.593750,-171.92
15:34:19.609375,-163.00
15:34:19.625000,-153.27
15:34:19.640625,-141.55
15:34:19.656250,-126.93
15:34:19.671875,-108.89
15:34:19.687500,-87.28
15:34:19.703125,-62.22
15:34:19.718750,-33.09
15:34:19.734375,0.54
15:34:19.750000,37.74
15:34:19.765625,76.70
15:34:19.781250,115.23
15:34:19.796875,150.73
15:34:19.812500,180.65
15:34:19.828125,203.03
15:34:19.843750,216.94
15:34:19.859375,218.48
15:34:19.875000,209.39
15:34:19.890625,192.88
15:34:19.906250,172.47
15:34:19.921875,151.18
15:34:19.937500,130.97
15:34:19.953125,112.70
15:34:19.968750,96.40
15:34:19.984375,81.83
15:34:20,68.89
15:34:20.015625,58.29
15:34:20.031250,50.35
15:34:20.046875,45.14
15:34:20.062500,42.38
15:34:20.078125,41.34
15:34:20.093750,40.86
15:34:20.109375,39.81
15:34:20.125000,37.52
15:34:20.140625,33.92
15:34:20.156250,30.10
15:34:20.171875,27.00
15:34:20.187500,25.39
15:34:20.203125,25.82
15:34:20.218750,28.60
15:34:20.234375,33.74
15:34:20.250000,40.50
15:34:20.265625,47.08
15:34:20.281250,50.57
15:34:20.296875,48.13
15:34:20.312500,37.74
15:34:20.328125,19.58
15:34:20.343750,-3.51
15:34:20.359375,-26.90
15:34:20.375000,-45.92
15:34:20.390625,-57.73
15:34:20.406250,-62.08
15:34:20.421875,-60.95
15:34:20.437500,-56.96
15:34:20.453125,-52.22
15:34:20.468750,-47.63
15:34:20.484375,-43.01
15:34:20.500000,-37.89
15:34:20.515625,-32.25
15:34:20.531250,-26.86
15:34:20.546875,-23.01
15:34:20.562500,-21.88
15:34:20.578125,-23.89
15:34:20.593750,-28.52
15:34:20.609375,-34.42
15:34:20.625000,-40.11
15:34:20.640625,-44.64
15:34:20.656250,-47.87
15:34:20.671875,-50.36
15:34:20.687500,-52.79
15:34:20.703125,-55.42
15:34:20.718750,-58.07
15:34:20.734375,-60.09
15:34:20.750000,-61.19
15:34:20.765625,-61.57
15:34:20.781250,-61.76
15:34:20.796875,-61.83
15:34:20.812500,-61.12
15:34:20.828125,-58.22
15:34:20.843750,-51.73
15:34:20.859375,-41.14
15:34:20.875000,-27.30
15:34:20.890625,-12.48
15:34:20.906250,0.56
15:34:20.921875,9.51
15:34:20.937500,13.28
15:34:20.953125,12.13
15:34:20.968750,7.36
15:34:20.984375,0.77
15:34:21,-5.82
15:34:21.015625,-10.78
15:34:21.031250,-12.69
15:34:21.046875,-10.37
15:34:21.062500,-3.16
15:34:21.078125,8.77
15:34:21.093750,23.97
15:34:21.109375,39.89
15:34:21.125000,53.24
15:34:21.140625,60.98
15:34:21.156250,61.20
15:34:21.171875,53.76
15:34:21.187500,40.29
15:34:21.203125,23.43
15:34:21.218750,5.97
15:34:21.234375,-10.05
15:34:21.250000,-23.56
15:34:21.265625,-34.35
15:34:21.281250,-42.46
15:34:21.296875,-47.50
15:34:21.312500,-48.53
15:34:21.328125,-44.32
15:34:21.343750,-34.24
15:34:21.359375,-18.83
15:34:21.375000,0.14
15:34:21.390625,20.33
15:34:21.406250,39.63
15:34:21.421875,56.69
15:34:21.437500,70.85
15:34:21.453125,81.46
15:34:21.468750,87.42
15:34:21.484375,86.82
15:34:21.500000,77.78
15:34:21.515625,59.67
15:34:21.531250,34.19
15:34:21.546875,5.39
15:34:21.562500,-21.41
15:34:21.578125,-41.11
15:34:21.593750,-50.06
15:34:21.609375,-46.56
15:34:21.625000,-30.80
15:34:21.640625,-4.44
15:34:21.656250,29.65
15:34:21.671875,67.56
15:34:21.687500,104.59
15:34:21.703125,135.88
15:34:21.718750,156.61
15:34:21.734375,162.67
15:34:21.750000,152.57
15:34:21.765625,127.67
15:34:21.781250,91.26
15:34:21.796875,47.54
15:34:21.812500,0.62
15:34:21.828125,-45.50
15:34:21.843750,-86.62
15:34:21.859375,-118.15
15:34:21.875000,-135.48
15:34:21.890625,-135.01
15:34:21.906250,-115.37
15:34:21.921875,-78.20
15:34:21.937500,-27.89
15:34:21.953125,29.25
15:34:21.968750,86.13
15:34:21.984375,135.78
15:34:22,172.09
15:34:22.015625,190.43
15:34:22.031250,188.04
15:34:22.046875,164.21
15:34:22.062500,120.49
15:34:22.078125,61.02
15:34:22.093750,-7.30
15:34:22.109375,-75.21
15:34:22.125000,-132.46
15:34:22.140625,-169.91
15:34:22.156250,-181.93
15:34:22.171875,-168.03
15:34:22.187500,-133.06
15:34:22.203125,-85.67
15:34:22.218750,-35.55
15:34:22.234375,9.22
15:34:22.250000,43.66
15:34:22.265625,65.85
15:34:22.281250,75.67
15:34:22.296875,73.72
15:34:22.312500,60.87
15:34:22.328125,38.65
15:34:22.343750,9.90
15:34:22.359375,-20.94
15:34:22.375000,-48.56
15:34:22.390625,-68.16
15:34:22.406250,-76.87
15:34:22.421875,-74.69
15:34:22.437500,-64.14
15:34:22.453125,-49.22
15:34:22.468750,-33.82
15:34:22.484375,-20.65
15:34:22.500000,-10.98
15:34:22.515625,-5.09
15:34:22.531250,-3.15
15:34:22.546875,-5.55
15:34:22.562500,-12.69
15:34:22.578125,-24.34
15:34:22.593750,-39.13
15:34:22.609375,-54.70
15:34:22.625000,-68.36
15:34:22.640625,-77.94
15:34:22.656250,-82.36
15:34:22.671875,-81.77
15:34:22.687500,-77.26
15:34:22.703125,-70.35
15:34:22.718750,-62.65
15:34:22.734375,-55.47
15:34:22.750000,-49.76
15:34:22.765625,-45.99
15:34:22.781250,-44.19
15:34:22.796875,-44.08
15:34:22.812500,-45.27
15:34:22.828125,-47.20
15:34:22.843750,-49.18
15:34:22.859375,-50.29
15:34:22.875000,-49.59
15:34:22.890625,-46.65
15:34:22.906250,-41.97
15:34:22.921875,-37.03
15:34:22.937500,-33.61
15:34:22.953125,-32.80
15:34:22.968750,-34.31
15:34:22.984375,-36.57
15:34:23,-37.65
15:34:23.015625,-36.35
15:34:23.031250,-32.83
15:34:23.046875,-28.28
15:34:23.062500,-23.93
15:34:23.078125,-20.18
15:34:23.093750,-16.41
15:34:23.109375,-11.53
15:34:23.125000,-4.86
15:34:23.140625,3.44
15:34:23.156250,12.48
15:34:23.171875,21.15
15:34:23.187500,28.58
15:34:23.203125,34.12
15:34:23.218750,37.18
15:34:23.234375,37.03
15:34:23.250000,33.10
15:34:23.265625,25.44
15:34:23.281250,15.05
15:34:23.296875,3.81
15:34:23.312500,-5.95
15:34:23.328125,-12.15
15:34:23.343750,-13.48
15:34:23.359375,-9.69
15:34:23.375000,-1.51
15:34:23.390625,9.58
15:34:23.406250,21.54
15:34:23.421875,32.09
15:34:23.437500,39.01
15:34:23.453125,40.73
15:34:23.468750,36.71
15:34:23.484375,27.69
15:34:23.500000,15.50
15:34:23.515625,2.53
15:34:23.531250,-8.84
15:34:23.546875,-16.80
15:34:23.562500,-20.41
15:34:23.578125,-19.70
15:34:23.593750,-15.54
15:34:23.609375,-9.33
15:34:23.625000,-2.69
15:34:23.640625,2.98
15:34:23.656250,6.80
15:34:23.671875,8.43
15:34:23.687500,8.06
15:34:23.703125,6.06
15:34:23.718750,2.88
15:34:23.734375,-0.99
15:34:23.750000,-4.85
15:34:23.765625,-7.69
15:34:23.781250,-8.34
15:34:23.796875,-5.82
15:34:23.812500,0.19
15:34:23.828125,9.25
15:34:23.843750,20.12
15:34:23.859375,31.18
15:34:23.875000,40.67
15:34:23.890625,47.07
15:34:23.906250,49.21
15:34:23.921875,46.61
15:34:23.937500,39.57
15:34:23.953125,29.39
15:34:23.968750,18.30
15:34:23.984375,8.89
15:34:24,3.31
15:34:24.015625,2.60
15:34:24.031250,6.40
15:34:24.046875,13.11
15:34:24.062500,20.56
15:34:24.078125,26.57
15:34:24.093750,29.52
15:34:24.109375,28.65
15:34:24.125000,24.17
15:34:24.140625,17.15
15:34:24.156250,9.29
15:34:24.171875,2.40
15:34:24.187500,-2.10
15:34:24.203125,-3.54
15:34:24.218750,-2.07
15:34:24.234375,1.60
15:34:24.250000,6.56
15:34:24.265625,11.93
15:34:24.281250,17.06
15:34:24.296875,21.41
15:34:24.312500,24.53
15:34:24.328125,26.07
15:34:24.343750,25.90
15:34:24.359375,23.99
15:34:24.375000,20.41
15:34:24.390625,15.04
15:34:24.406250,7.58
15:34:24.421875,-2.30
15:34:24.437500,-14.63
15:34:24.453125,-28.70
15:34:24.468750,-42.97
15:34:24.484375,-55.35
15:34:24.500000,-63.77
15:34:24.515625,-66.74
15:34:24.531250,-63.66
15:34:24.546875,-54.76
15:34:24.562500,-40.86
15:34:24.578125,-23.23
15:34:24.593750,-3.66
15:34:24.609375,15.51
15:34:24.625000,31.58
15:34:24.640625,42.03
15:34:24.656250,45.39
15:34:24.671875,41.92
15:34:24.687500,33.72
15:34:24.703125,23.89
15:34:24.718750,15.33
15:34:24.734375,9.72
15:34:24.750000,7.10
15:34:24.765625,6.47
15:34:24.781250,6.58
15:34:24.796875,6.64
15:34:24.812500,6.48
15:34:24.828125,6.25
15:34:24.843750,6.02
15:34:24.859375,5.52
15:34:24.875000,4.26
15:34:24.890625,1.74
15:34:24.906250,-2.19
15:34:24.921875,-7.43
15:34:24.937500,-13.57
15:34:24.953125,-20.16
15:34:24.968750,-26.76
15:34:24.984375,-32.86
15:34:25,-37.90
15:34:25.015625,-41.12
15:34:25.031250,-41.63
15:34:25.046875,-38.64
15:34:25.062500,-32.02
15:34:25.078125,-22.64
15:34:25.093750,-12.25
15:34:25.109375,-2.92
15:34:25.125000,3.83
15:34:25.140625,7.68
15:34:25.156250,9.67
15:34:25.171875,11.55
15:34:25.187500,14.76
15:34:25.203125,19.65
15:34:25.218750,25.23
15:34:25.234375,29.85
15:34:25.250000,31.97
15:34:25.265625,30.81
15:34:25.281250,26.25
15:34:25.296875,18.37
15:34:25.312500,7.07
15:34:25.328125,-7.99
15:34:25.343750,-26.82
15:34:25.359375,-48.68
15:34:25.375000,-71.63
15:34:25.390625,-92.75
15:34:25.406250,-108.78
15:34:25.421875,-117.19
15:34:25.437500,-116.86
15:34:25.453125,-108.67
15:34:25.468750,-95.07
15:34:25.484375,-79.12
15:34:25.500000,-63.71
15:34:25.515625,-50.90
15:34:25.531250,-41.76
15:34:25.546875,-36.47
15:34:25.562500,-34.64
15:34:25.578125,-35.47
15:34:25.593750,-37.98
15:34:25.609375,-40.86
15:34:25.625000,-42.48
15:34:25.640625,-41.27
15:34:25.656250,-36.14
15:34:25.671875,-26.93
15:34:25.687500,-14.45
15:34:25.703125,-0.15
15:34:25.718750,14.37
15:34:25.734375,28.00
15:34:25.750000,40.30
15:34:25.765625,51.47
15:34:25.781250,61.98
15:34:25.796875,71.96
15:34:25.812500,80.94
15:34:25.828125,87.87
15:34:25.843750,91.55
15:34:25.859375,91.04
15:34:25.875000,86.03
15:34:25.890625,76.86
15:34:25.906250,64.32
15:34:25.921875,49.49
15:34:25.937500,33.90
15:34:25.953125,19.53
15:34:25.968750,8.70
15:34:25.984375,3.59
15:34:26,5.47
15:34:26.015625,13.93
15:34:26.031250,26.87
15:34:26.046875,41.09
15:34:26.062500,53.41
15:34:26.078125,61.56
15:34:26.093750,64.56
15:34:26.109375,62.42
15:34:26.125000,55.80
15:34:26.140625,45.61
15:34:26.156250,32.95
15:34:26.171875,19.19
15:34:26.187500,6.13
15:34:26.203125,-4.41
15:34:26.218750,-11.04
15:34:26.234375,-13.46
15:34:26.250000,-12.66
15:34:26.265625,-10.70
15:34:26.281250,-10.03
15:34:26.296875,-12.48
15:34:26.312500,-18.51
15:34:26.328125,-26.84
15:34:26.343750,-34.71
15:34:26.359375,-38.72
15:34:26.375000,-35.93
15:34:26.390625,-24.81
15:34:26.406250,-5.64
15:34:26.421875,19.51
15:34:26.437500,47.28
15:34:26.453125,73.60
15:34:26.468750,94.31
15:34:26.484375,105.90
15:34:26.500000,106.20
15:34:26.515625,94.90
15:34:26.531250,73.56
15:34:26.546875,45.14
15:34:26.562500,13.13
15:34:26.578125,-19.24
15:34:26.593750,-49.37
15:34:26.609375,-75.30
15:34:26.625000,-95.49
15:34:26.640625,-108.67
15:34:26.656250,-114.03
15:34:26.671875,-111.56
15:34:26.687500,-102.28
15:34:26.703125,-88.31
15:34:26.718750,-72.54
15:34:26.734375,-57.88
15:34:26.750000,-46.75
15:34:26.765625,-40.57
15:34:26.781250,-39.65
15:34:26.796875,-43.35
15:34:26.812500,-50.22
15:34:26.828125,-58.34
15:34:26.843750,-65.69
15:34:26.859375,-70.55
15:34:26.875000,-71.78
15:34:26.890625,-68.97
15:34:26.906250,-62.44
15:34:26.921875,-53.03
15:34:26.937500,-41.81
15:34:26.953125,-29.69
15:34:26.968750,-17.09
15:34:26.984375,-3.97
15:34:27,10.00
15:34:27.015625,24.92
15:34:27.031250,40.34
15:34:27.046875,55.12
15:34:27.062500,67.60
15:34:27.078125,75.98
15:34:27.093750,78.94
15:34:27.109375,76.04
15:34:27.125000,67.98
15:34:27.140625,56.36
15:34:27.156250,43.26
15:34:27.171875,30.69
15:34:27.187500,20.26
15:34:27.203125,12.98
15:34:27.218750,9.22
15:34:27.234375,8.77
15:34:27.250000,10.95
15:34:27.265625,14.87
15:34:27.281250,19.64
15:34:27.296875,24.52
15:34:27.312500,28.96
15:34:27.328125,32.52
15:34:27.343750,34.79
15:34:27.359375,35.35
15:34:27.375000,33.85
15:34:27.390625,30.15
15:34:27.406250,24.57
15:34:27.421875,17.79
15:34:27.437500,10.78
15:34:27.453125,4.43
15:34:27.468750,-0.61
15:34:27.484375,-4.01
15:34:27.500000,-5.68
15:34:27.515625,-5.64
15:34:27.531250,-4.13
15:34:27.546875,-1.69
15:34:27.562500,0.83
15:34:27.578125,2.48
15:34:27.593750,2.63
15:34:27.609375,1.35
15:34:27.625000,-0.52
15:34:27.640625,-1.62
15:34:27.656250,-0.57
15:34:27.671875,3.50
15:34:27.687500,10.63
15:34:27.703125,20.02
15:34:27.718750,30.27
15:34:27.734375,39.51
15:34:27.750000,45.83
15:34:27.765625,47.71
15:34:27.781250,44.39
15:34:27.796875,36.18
15:34:27.812500,24.52
15:34:27.828125,11.63
15:34:27.843750,-0.12
15:34:27.859375,-8.86
15:34:27.875000,-13.80
15:34:27.890625,-15.20
15:34:27.906250,-13.93
15:34:27.921875,-11.10
15:34:27.937500,-7.79
15:34:27.953125,-5.00
15:34:27.968750,-3.76
15:34:27.984375,-4.96
15:34:28,-9.01
15:34:28.015625,-15.65
15:34:28.031250,-23.86
15:34:28.046875,-32.23
15:34:28.062500,-39.44
15:34:28.078125,-44.59
15:34:28.093750,-47.43
15:34:28.109375,-48.17
15:34:28.125000,-47.23
15:34:28.140625,-45.11
15:34:28.156250,-42.33
15:34:28.171875,-39.54
15:34:28.187500,-37.62
15:34:28.203125,-37.40
15:34:28.218750,-39.48
15:34:28.234375,-43.89
15:34:28.250000,-50.04
15:34:28.265625,-56.79
15:34:28.281250,-62.59
15:34:28.296875,-65.86
15:34:28.312500,-65.23
15:34:28.328125,-60.02
15:34:28.343750,-50.39
15:34:28.359375,-37.48
15:34:28.375000,-23.38
15:34:28.390625,-10.61
15:34:28.406250,-1.36
15:34:28.421875,3.20
15:34:28.437500,3.39
15:34:28.453125,0.87
15:34:28.468750,-1.98
15:34:28.484375,-2.94
15:34:28.500000,-0.51
15:34:28.515625,5.80
15:34:28.531250,15.66
15:34:28.546875,28.25
15:34:28.562500,42.46
15:34:28.578125,56.92
15:34:28.593750,70.05
15:34:28.609375,80.18
15:34:28.625000,85.93
15:34:28.640625,86.59
15:34:28.656250,82.40
15:34:28.671875,74.48
15:34:28.687500,64.44
15:34:28.703125,53.94
15:34:28.718750,44.21
15:34:28.734375,35.98
15:34:28.750000,29.56
15:34:28.765625,24.89
15:34:28.781250,21.70
15:34:28.796875,19.47
15:34:28.812500,17.50
15:34:28.828125,15.01
15:34:28.843750,11.32
15:34:28.859375,6.08
15:34:28.875000,-0.64
15:34:28.890625,-8.29
15:34:28.906250,-15.84
15:34:28.921875,-21.90
15:34:28.937500,-25.10
15:34:28.953125,-24.48
15:34:28.968750,-19.95
15:34:28.984375,-12.51
15:34:29,-3.95
15:34:29.015625,3.64
15:34:29.031250,8.56
15:34:29.046875,10.03
15:34:29.062500,8.24
15:34:29.078125,4.16
15:34:29.093750,-1.01
15:34:29.109375,-6.10
15:34:29.125000,-10.11
15:34:29.140625,-12.20
15:34:29.156250,-11.79
15:34:29.171875,-8.77
15:34:29.187500,-3.64
15:34:29.203125,2.46
15:34:29.218750,8.04
15:34:29.234375,11.71
15:34:29.250000,12.50
15:34:29.265625,10.18
15:34:29.281250,5.20
15:34:29.296875,-1.54
15:34:29.312500,-9.05
15:34:29.328125,-16.43
15:34:29.343750,-22.94
15:34:29.359375,-27.90
15:34:29.375000,-30.64
15:34:29.390625,-30.68
15:34:29.406250,-27.84
15:34:29.421875,-22.41
15:34:29.437500,-15.16
15:34:29.453125,-7.35
15:34:29.468750,-0.53
15:34:29.484375,3.85
15:34:29.500000,4.91
15:34:29.515625,2.58
15:34:29.531250,-2.37
15:34:29.546875,-8.71
15:34:29.562500,-15.00
15:34:29.578125,-19.85
15:34:29.593750,-22.03
15:34:29.609375,-20.55
15:34:29.625000,-14.83
15:34:29.640625,-5.00
15:34:29.656250,7.93
15:34:29.671875,22.11
15:34:29.687500,35.22
15:34:29.703125,45.27
15:34:29.718750,51.20
15:34:29.734375,53.29
15:34:29.750000,52.94
15:34:29.765625,51.89
15:34:29.781250,51.53
15:34:29.796875,52.32
15:34:29.812500,53.84
15:34:29.828125,55.04
15:34:29.843750,54.91
15:34:29.859375,52.77
15:34:29.875000,48.54
15:34:29.890625,42.67
15:34:29.906250,35.79
15:34:29.921875,28.43
15:34:29.937500,20.84
15:34:29.953125,13.03
15:34:29.968750,5.06
15:34:29.984375,-2.70
15:34:30,-9.53
15:34:30.015625,-14.57
15:34:30.031250,-17.26
15:34:30.046875,-17.56
15:34:30.062500,-16.06
15:34:30.078125,-13.66
15:34:30.093750,-11.23
15:34:30.109375,-9.38
15:34:30.125000,-8.41
15:34:30.140625,-8.49
15:34:30.156250,-9.84
15:34:30.171875,-12.76
15:34:30.187500,-17.51
15:34:30.203125,-24.05
15:34:30.218750,-31.81
15:34:30.234375,-39.67
15:34:30.250000,-46.19
15:34:30.265625,-50.02
15:34:30.281250,-50.29
15:34:30.296875,-46.94
15:34:30.312500,-40.62
15:34:30.328125,-32.45
15:34:30.343750,-23.74
15:34:30.359375,-15.58
15:34:30.375000,-8.68
15:34:30.390625,-3.26
15:34:30.406250,0.93
15:34:30.421875,4.40
15:34:30.437500,7.71
15:34:30.453125,11.26
15:34:30.468750,15.20
15:34:30.484375,19.38
15:34:30.500000,23.52
15:34:30.515625,27.30
15:34:30.531250,30.50
15:34:30.546875,32.94
15:34:30.562500,34.43
15:34:30.578125,34.73
15:34:30.593750,33.61
15:34:30.609375,30.99
15:34:30.625000,27.09
15:34:30.640625,22.39
15:34:30.656250,17.59
15:34:30.671875,13.39
15:34:30.687500,10.36
15:34:30.703125,8.91
15:34:30.718750,9.14
15:34:30.734375,10.81
15:34:30.750000,13.31
15:34:30.765625,15.75
15:34:30.781250,17.33
15:34:30.796875,17.57
15:34:30.812500,16.40
15:34:30.828125,14.16
15:34:30.843750,11.24
15:34:30.859375,7.83
15:34:30.875000,3.84
15:34:30.890625,-0.87
15:34:30.906250,-6.14
15:34:30.921875,-11.38
15:34:30.937500,-15.70
15:34:30.953125,-18.47
15:34:30.968750,-19.66
15:34:30.984375,-19.96
15:34:31,-20.35
15:34:31.015625,-21.42
15:34:31.031250,-23.01
15:34:31.046875,-24.31
15:34:31.062500,-24.40
15:34:31.078125,-22.82
15:34:31.093750,-19.91
15:34:31.109375,-16.59
15:34:31.125000,-13.89
15:34:31.140625,-12.46
15:34:31.156250,-12.33
15:34:31.171875,-13.07
15:34:31.187500,-14.12
15:34:31.203125,-15.08
15:34:31.218750,-15.70
15:34:31.234375,-15.80
15:34:31.250000,-15.13
15:34:31.265625,-13.37
15:34:31.281250,-10.38
15:34:31.296875,-6.41
15:34:31.312500,-2.21
15:34:31.328125,1.11
15:34:31.343750,2.40
15:34:31.359375,0.88
15:34:31.375000,-3.45
15:34:31.390625,-9.82
15:34:31.406250,-16.84
15:34:31.421875,-23.01
15:34:31.437500,-27.03
15:34:31.453125,-27.82
15:34:31.468750,-24.49
15:34:31.484375,-16.23
15:34:31.500000,-2.68
15:34:31.515625,15.77
15:34:31.531250,37.52
15:34:31.546875,59.90
15:34:31.562500,79.66
15:34:31.578125,94.04
15:34:31.593750,101.68
15:34:31.609375,103.23
15:34:31.625000,101.07
15:34:31.640625,98.53
15:34:31.656250,98.61
15:34:31.671875,103.10
15:34:31.687500,112.43
15:34:31.703125,126.29
15:34:31.718750,144.55
15:34:31.734375,167.82
15:34:31.750000,197.02
15:34:31.765625,232.12
15:34:31.781250,271.20
15:34:31.796875,310.06
15:34:31.812500,342.83
15:34:31.828125,363.80
15:34:31.843750,368.92
15:34:31.859375,356.80
15:34:31.875000,328.13
15:34:31.890625,284.23
15:34:31.906250,226.16
15:34:31.921875,155.67
15:34:31.937500,77.26
15:34:31.953125,-0.25
15:34:31.968750,-64.53
15:34:31.984375,-103.44
15:34:32,-110.34
15:34:32.015625,-87.66
15:34:32.031250,-46.88
15:34:32.046875,-4.67
15:34:32.062500,24.02
15:34:32.078125,31.02
15:34:32.093750,15.56
15:34:32.109375,-18.97
15:34:32.125000,-69.39
15:34:32.140625,-134.60
15:34:32.156250,-213.83
15:34:32.171875,-303.01
15:34:32.187500,-392.92
15:34:32.203125,-468.66
15:34:32.218750,-513.35
15:34:32.234375,-514.36
15:34:32.250000,-468.64
15:34:32.265625,-384.30
15:34:32.281250,-278.14
15:34:32.296875,-170.38
15:34:32.312500,-79.35
15:34:32.328125,-19.26
15:34:32.343750,3.76
15:34:32.359375,-8.14
15:34:32.375000,-47.27
15:34:32.390625,-104.13
15:34:32.406250,-168.99
15:34:32.421875,-231.99
15:34:32.437500,-282.55
15:34:32.453125,-311.20
15:34:32.468750,-315.29
15:34:32.484375,-297.34
15:34:32.500000,-263.66
15:34:32.515625,-222.90
15:34:32.531250,-183.89
15:34:32.546875,-152.66
15:34:32.562500,-131.14
15:34:32.578125,-118.35
15:34:32.593750,-114.57
15:34:32.609375,-126.96
15:34:32.625000,-162.53
15:34:32.640625,-220.82
15:34:32.656250,-292.82
15:34:32.671875,-364.94
15:34:32.687500,-424.37
15:34:32.703125,-464.08
15:34:32.718750,-483.57
15:34:32.734375,-461.39
15:34:32.750000,-391.61
15:34:32.765625,-287.47
15:34:32.781250,-171.69
15:34:32.796875,-61.96
15:34:32.812500,34.57
15:34:32.828125,116.21
15:34:32.843750,179.76
15:34:32.859375,227.00
15:34:32.875000,259.31
15:34:32.890625,276.32
15:34:32.906250,282.19
15:34:32.921875,289.88
15:34:32.937500,315.24
15:34:32.953125,365.21
15:34:32.968750,439.75
15:34:32.984375,532.02
15:34:33,631.64
15:34:33.015625,726.12
15:34:33.031250,800.31
15:34:33.046875,821.69
15:34:33.062500,772.23
15:34:33.078125,657.29
15:34:33.093750,504.54
15:34:33.109375,349.05
15:34:33.125000,216.16
15:34:33.140625,115.64
15:34:33.156250,44.36
15:34:33.171875,-7.90
15:34:33.187500,-49.71
15:34:33.203125,-81.33
15:34:33.218750,-99.46
15:34:33.234375,-102.52
15:34:33.250000,-93.75
15:34:33.265625,-80.15
15:34:33.281250,-68.46
15:34:33.296875,-62.76
15:34:33.312500,-64.35
15:34:33.328125,-71.49
15:34:33.343750,-78.07
15:34:33.359375,-78.68
15:34:33.375000,-71.13
15:34:33.390625,-57.56
15:34:33.406250,-42.62
15:34:33.421875,-30.38
15:34:33.437500,-23.00
15:34:33.453125,-20.59
15:34:33.468750,-21.59
15:34:33.484375,-22.25
15:34:33.500000,-19.69
15:34:33.515625,-12.94
15:34:33.531250,-3.85
15:34:33.546875,4.17
15:34:33.562500,8.12
15:34:33.578125,6.29
15:34:33.593750,-1.37
15:34:33.609375,-13.78
15:34:33.625000,-28.46
15:34:33.640625,-44.03
15:34:33.656250,-58.47
15:34:33.671875,-71.13
15:34:33.687500,-82.04
15:34:33.703125,-91.24
15:34:33.718750,-98.39
15:34:33.734375,-102.91
15:34:33.750000,-104.25
15:34:33.765625,-99.92
15:34:33.781250,-91.55
15:34:33.796875,-80.23
15:34:33.812500,-67.44
15:34:33.828125,-54.73
15:34:33.843750,-43.32
15:34:33.859375,-33.93
15:34:33.875000,-26.76
15:34:33.890625,-21.57
15:34:33.906250,-18.14
15:34:33.921875,-16.34
15:34:33.937500,-15.51
15:34:33.953125,-15.22
15:34:33.968750,-15.20
15:34:33.984375,-15.29
15:34:34,-15.43
15:34:34.015625,-15.57
15:34:34.031250,-15.66
15:34:34.046875,-15.83
15:34:34.062500,-16.35
15:34:34.078125,-17.05
15:34:34.093750,-17.84
15:34:34.109375,-18.72
15:34:34.125000,-19.69
15:34:34.140625,-20.88
15:34:34.156250,-22.25
15:34:34.171875,-23.80
15:34:34.187500,-25.54
15:34:34.203125,-27.52
15:34:34.218750,-29.50
15:34:34.234375,-31.22
15:34:34.250000,-32.36
15:34:34.265625,-32.67
15:34:34.281250,-31.94
15:34:34.296875,-30.18
15:34:34.312500,-26.77
15:34:34.328125,-21.43
15:34:34.343750,-14.13
15:34:34.359375,-4.97
15:34:34.375000,5.42
15:34:34.390625,16.67
15:34:34.406250,27.98
15:34:34.421875,38.40
15:34:34.437500,47.09
15:34:34.453125,53.48
15:34:34.468750,57.30
15:34:34.484375,58.63
15:34:34.500000,57.95
15:34:34.515625,55.87
15:34:34.531250,52.88
15:34:34.546875,49.39
15:34:34.562500,45.55
15:34:34.578125,41.51
15:34:34.593750,37.42
15:34:34.609375,33.43
15:34:34.625000,29.76
15:34:34.640625,26.48
15:34:34.656250,23.41
15:34:34.671875,20.03
15:34:34.687500,15.89
15:34:34.703125,10.59
15:34:34.718750,4.18
15:34:34.734375,-2.51
15:34:34.750000,-8.20
15:34:34.765625,-11.09
15:34:34.781250,-9.73
15:34:34.796875,-3.45
15:34:34.812500,6.76
15:34:34.828125,19.26
15:34:34.843750,31.73
15:34:34.859375,41.85
15:34:34.875000,47.87
15:34:34.890625,49.04
15:34:34.906250,45.59
15:34:34.921875,37.94
15:34:34.937500,26.58
15:34:34.953125,10.88
15:34:34.968750,-9.28
15:34:34.984375,-33.94
15:34:35,-62.60
15:34:35.015625,-94.38
15:34:35.031250,-128.15
15:34:35.046875,-162.26
15:34:35.062500,-194.54
15:34:35.078125,-217.73
15:34:35.093750,-228.52
15:34:35.109375,-223.45
15:34:35.125000,-201.27
15:34:35.140625,-164.75
15:34:35.156250,-120.80
15:34:35.171875,-78.39
15:34:35.187500,-44.94
15:34:35.203125,-24.22
15:34:35.218750,-15.48
15:34:35.234375,-15.52
15:34:35.250000,-19.88
15:34:35.265625,-25.72
15:34:35.281250,-32.28
15:34:35.296875,-39.87
15:34:35.312500,-48.35
15:34:35.328125,-56.08
15:34:35.343750,-61.02
15:34:35.359375,-61.42
15:34:35.375000,-57.16
15:34:35.390625,-48.71
15:34:35.406250,-37.09
15:34:35.421875,-23.24
15:34:35.437500,-7.32
15:34:35.453125,11.42
15:34:35.468750,34.21
15:34:35.484375,60.89
15:34:35.500000,89.97
15:34:35.515625,118.46
15:34:35.531250,143.16
15:34:35.546875,161.34
15:34:35.562500,171.63
15:34:35.578125,174.50
15:34:35.593750,169.69
15:34:35.609375,161.03
15:34:35.625000,151.29
15:34:35.640625,141.84
15:34:35.656250,132.53
15:34:35.671875,122.67
15:34:35.687500,111.64
15:34:35.703125,99.61
15:34:35.718750,87.90
15:34:35.734375,78.26
15:34:35.750000,72.43
15:34:35.765625,70.56
15:34:35.781250,71.39
15:34:35.796875,72.67
15:34:35.812500,72.19
15:34:35.828125,68.62
15:34:35.843750,62.15
15:34:35.859375,54.40
15:34:35.875000,47.68
15:34:35.890625,44.40
15:34:35.906250,45.83
15:34:35.921875,52.06
15:34:35.937500,61.59
15:34:35.953125,71.24
15:34:35.968750,76.38
15:34:35.984375,71.94
15:34:36,54.17
15:34:36.015625,22.69
15:34:36.031250,-18.23
15:34:36.046875,-60.37
15:34:36.062500,-93.69
15:34:36.078125,-110.58
15:34:36.093750,-108.24
15:34:36.109375,-90.03
15:34:36.125000,-64.08
15:34:36.140625,-39.96
15:34:36.156250,-24.91
15:34:36.171875,-21.67
15:34:36.187500,-28.66
15:34:36.203125,-41.68
15:34:36.218750,-56.21
15:34:36.234375,-69.01
15:34:36.250000,-78.45
15:34:36.265625,-83.80
15:34:36.281250,-84.66
15:34:36.296875,-80.65
15:34:36.312500,-71.33
15:34:36.328125,-57.13
15:34:36.343750,-39.26
15:34:36.359375,-19.54
15:34:36.375000,0.14
15:34:36.390625,18.28
15:34:36.406250,34.37
15:34:36.421875,48.29
15:34:36.437500,60.05
15:34:36.453125,69.71
15:34:36.468750,77.35
15:34:36.484375,83.28
15:34:36.500000,87.79
15:34:36.515625,91.63
15:34:36.531250,95.87
15:34:36.546875,102.35
15:34:36.562500,112.85
15:34:36.578125,128.45
15:34:36.593750,148.07
15:34:36.609375,168.10
15:34:36.625000,182.56
15:34:36.640625,184.56
15:34:36.656250,169.48
15:34:36.671875,135.73
15:34:36.687500,89.63
15:34:36.703125,39.73
15:34:36.718750,-6.14
15:34:36.734375,-43.95
15:34:36.750000,-73.69
15:34:36.765625,-97.28
15:34:36.781250,-117.03
15:34:36.796875,-133.83
15:34:36.812500,-146.83
15:34:36.828125,-154.54
15:34:36.843750,-156.64
15:34:36.859375,-152.33
15:34:36.875000,-144.92
15:34:36.890625,-136.75
15:34:36.906250,-128.66
15:34:36.921875,-120.53
15:34:36.937500,-111.45
15:34:36.953125,-100.30
15:34:36.968750,-86.58
15:34:36.984375,-70.91
15:34:37,-54.61
15:34:37.015625,-39.11
15:34:37.031250,-25.94
15:34:37.046875,-14.35
15:34:37.062500,-3.99
15:34:37.078125,5.42
15:34:37.093750,13.86
15:34:37.109375,21.03
15:34:37.125000,26.28
15:34:37.140625,29.01
15:34:37.156250,29.04
15:34:37.171875,27.04
15:34:37.187500,24.23
15:34:37.203125,21.66
15:34:37.218750,20.11
15:34:37.234375,19.79
15:34:37.250000,20.39
15:34:37.265625,21.09
15:34:37.281250,21.05
15:34:37.296875,19.49
15:34:37.312500,15.96
15:34:37.328125,10.41
15:34:37.343750,2.85
15:34:37.359375,-6.38
15:34:37.375000,-16.61
15:34:37.390625,-26.78
15:34:37.406250,-35.44
15:34:37.421875,-41.03
15:34:37.437500,-42.23
15:34:37.453125,-38.91
15:34:37.468750,-31.84
15:34:37.484375,-22.98
15:34:37.500000,-14.92
15:34:37.515625,-10.25
15:34:37.531250,-10.73
15:34:37.546875,-16.78
15:34:37.562500,-27.63
15:34:37.578125,-41.61
15:34:37.593750,-57.71
15:34:37.609375,-75.17
15:34:37.625000,-94.04
15:34:37.640625,-115.15
15:34:37.656250,-140.14
15:34:37.671875,-171.21
15:34:37.687500,-210.89
15:34:37.703125,-261.65
15:34:37.718750,-319.08
15:34:37.734375,-378.26
15:34:37.750000,-432.02
15:34:37.765625,-472.08
15:34:37.781250,-491.53
15:34:37.796875,-487.37
15:34:37.812500,-461.55
15:34:37.828125,-420.14
15:34:37.843750,-370.87
15:34:37.859375,-320.20
15:34:37.875000,-272.47
15:34:37.890625,-228.82
15:34:37.906250,-188.51
15:34:37.921875,-150.58
15:34:37.937500,-114.79
15:34:37.953125,-81.52
15:34:37.968750,-51.20
15:34:37.984375,-23.68
15:34:38,1.78
15:34:38.015625,25.54
15:34:38.031250,47.90
15:34:38.046875,68.96
15:34:38.062500,88.67
15:34:38.078125,106.87
15:34:38.093750,123.61
15:34:38.109375,138.92
15:34:38.125000,152.85
15:34:38.140625,165.42
15:34:38.156250,176.42
15:34:38.171875,185.92
15:34:38.187500,194.55
15:34:38.203125,203.27
15:34:38.218750,213.32
15:34:38.234375,226.02
15:34:38.250000,242.65
15:34:38.265625,264.28
15:34:38.281250,291.15
15:34:38.296875,321.58
15:34:38.312500,351.81
15:34:38.328125,376.86
15:34:38.343750,392.14
15:34:38.359375,395.59
15:34:38.375000,388.48
15:34:38.390625,374.40
15:34:38.406250,357.07
15:34:38.421875,337.94
15:34:38.437500,315.55
15:34:38.453125,286.93
15:34:38.468750,250.31
15:34:38.484375,207.01
15:34:38.500000,161.64
15:34:38.515625,120.39
15:34:38.531250,88.48
15:34:38.546875,68.95
15:34:38.562500,62.25
15:34:38.578125,66.79
15:34:38.593750,79.18
15:34:38.609375,94.43
15:34:38.625000,106.55
15:34:38.640625,110.29
15:34:38.656250,103.17
15:34:38.671875,86.52
15:34:38.687500,64.62
15:34:38.703125,42.10
15:34:38.718750,21.45
15:34:38.734375,1.98
15:34:38.750000,-18.73
15:34:38.765625,-42.12
15:34:38.781250,-66.39
15:34:38.796875,-86.80
15:34:38.812500,-98.35
15:34:38.828125,-98.62
15:34:38.843750,-89.39
15:34:38.859375,-75.45
15:34:38.875000,-61.98
15:34:38.890625,-52.03
15:34:38.906250,-45.67
15:34:38.921875,-41.04
15:34:38.937500,-36.17
15:34:38.953125,-30.36
15:34:38.968750,-24.19
15:34:38.984375,-18.79
15:34:39,-14.77
15:34:39.015625,-12.06
15:34:39.031250,-10.48
15:34:39.046875,-10.66
15:34:39.062500,-14.21
15:34:39.078125,-23.00
15:34:39.093750,-37.78
15:34:39.109375,-57.44
15:34:39.125000,-79.45
15:34:39.140625,-100.85
15:34:39.156250,-119.66
15:34:39.171875,-135.06
15:34:39.187500,-146.99
15:34:39.203125,-155.18
15:34:39.218750,-158.54
15:34:39.234375,-155.35
15:34:39.250000,-144.09
15:34:39.265625,-124.90
15:34:39.281250,-100.20
15:34:39.296875,-74.25
15:34:39.312500,-51.80
15:34:39.328125,-36.47
15:34:39.343750,-29.71
15:34:39.359375,-30.79
15:34:39.375000,-37.79
15:34:39.390625,-48.55
15:34:39.406250,-61.29
15:34:39.421875,-74.22
15:34:39.437500,-85.33
15:34:39.453125,-92.46
15:34:39.468750,-93.84
15:34:39.484375,-88.83
15:34:39.500000,-78.09
15:34:39.515625,-62.94
15:34:39.531250,-43.82
15:34:39.546875,-19.87
15:34:39.562500,10.71
15:34:39.578125,48.47
15:34:39.593750,91.13
15:34:39.609375,133.58
15:34:39.625000,169.93
15:34:39.640625,196.72
15:34:39.656250,214.44
15:34:39.671875,226.87
15:34:39.687500,237.67
15:34:39.703125,247.59
15:34:39.718750,253.60
15:34:39.734375,250.98
15:34:39.750000,236.94
15:34:39.765625,212.90
15:34:39.781250,184.21
15:34:39.796875,157.06
15:34:39.812500,135.11
15:34:39.828125,117.33
15:34:39.843750,99.36
15:34:39.859375,76.88
15:34:39.875000,48.97
15:34:39.890625,18.93
15:34:39.906250,-8.03
15:34:39.921875,-28.33
15:34:39.937500,-42.50
15:34:39.953125,-54.32
15:34:39.968750,-67.61
15:34:39.984375,-82.87
15:34:40,-96.57
15:34:40.015625,-103.55
15:34:40.031250,-100.72
15:34:40.046875,-89.33
15:34:40.062500,-74.14
15:34:40.078125,-60.30
15:34:40.093750,-50.25
15:34:40.109375,-42.92
15:34:40.125000,-35.96
15:34:40.140625,-28.69
15:34:40.156250,-23.69
15:34:40.171875,-24.69
15:34:40.187500,-33.00
15:34:40.203125,-44.68
15:34:40.218750,-51.87
15:34:40.234375,-47.44
15:34:40.250000,-30.06
15:34:40.265625,-6.34
15:34:40.281250,12.02
15:34:40.296875,13.93
15:34:40.312500,-5.01
15:34:40.328125,-39.98
15:34:40.343750,-78.85
15:34:40.359375,-107.37
15:34:40.375000,-115.28
15:34:40.390625,-100.21
15:34:40.406250,-68.10
15:34:40.421875,-30.12
15:34:40.437500,1.41
15:34:40.453125,16.95
15:34:40.468750,11.95
15:34:40.484375,-12.62
15:34:40.500000,-50.82
15:34:40.515625,-93.09
15:34:40.531250,-128.46
15:34:40.546875,-147.54
15:34:40.562500,-145.34
15:34:40.578125,-123.23
15:34:40.593750,-89.03
15:34:40.609375,-54.58
15:34:40.625000,-31.79
15:34:40.640625,-28.01
15:34:40.656250,-43.41
15:34:40.671875,-70.53
15:34:40.687500,-97.83
15:34:40.703125,-114.19
15:34:40.718750,-113.33
15:34:40.734375,-95.81
15:34:40.750000,-67.69
15:34:40.765625,-37.67
15:34:40.781250,-13.08
15:34:40.796875,2.02
15:34:40.812500,7.34
15:34:40.828125,5.22
15:34:40.843750,-0.93
15:34:40.859375,-7.71
15:34:40.875000,-12.45
15:34:40.890625,-13.52
15:34:40.906250,-10.29
15:34:40.921875,-2.46
15:34:40.937500,10.46
15:34:40.953125,29.51
15:34:40.968750,55.87
15:34:40.984375,89.32
15:34:41,126.70
15:34:41.015625,161.16
15:34:41.031250,183.53
15:34:41.046875,185.52
15:34:41.062500,163.50
15:34:41.078125,120.53
15:34:41.093750,65.16
15:34:41.109375,7.53
15:34:41.125000,-44.49
15:34:41.140625,-87.07
15:34:41.156250,-119.67
15:34:41.171875,-142.29
15:34:41.187500,-154.08
15:34:41.203125,-153.37
15:34:41.218750,-139.22
15:34:41.234375,-112.78
15:34:41.250000,-77.37
15:34:41.265625,-37.78
15:34:41.281250,1.24
15:34:41.296875,35.82
15:34:41.312500,63.18
15:34:41.328125,81.51
15:34:41.343750,89.94
15:34:41.359375,89.28
15:34:41.375000,82.53
15:34:41.390625,74.81
15:34:41.406250,71.58
15:34:41.421875,76.16
15:34:41.437500,88.00
15:34:41.453125,102.75
15:34:41.468750,114.52
15:34:41.484375,118.93
15:34:41.500000,115.60
15:34:41.515625,108.14
15:34:41.531250,101.92
15:34:41.546875,100.73
15:34:41.562500,104.08
15:34:41.578125,107.36
15:34:41.593750,104.74
15:34:41.609375,93.10
15:34:41.625000,74.69
15:34:41.640625,56.34
15:34:41.656250,45.72
15:34:41.671875,47.03
15:34:41.687500,58.55
15:34:41.703125,73.68
15:34:41.718750,84.51
15:34:41.734375,85.78
15:34:41.750000,77.12
15:34:41.765625,62.41
15:34:41.781250,47.05
15:34:41.796875,34.80
15:34:41.812500,26.51
15:34:41.828125,20.79
15:34:41.843750,16.19
15:34:41.859375,12.76
15:34:41.875000,11.88
15:34:41.890625,14.80
15:34:41.906250,20.67
15:34:41.921875,25.85
15:34:41.937500,24.92
15:34:41.953125,13.57
15:34:41.968750,-8.70
15:34:41.984375,-37.48
15:34:42,-65.02
15:34:42.015625,-83.66
15:34:42.031250,-89.26
15:34:42.046875,-82.12
15:34:42.062500,-65.36
15:34:42.078125,-42.00
15:34:42.093750,-13.16
15:34:42.109375,21.13
15:34:42.125000,59.13
15:34:42.140625,95.39
15:34:42.156250,121.49
15:34:42.171875,129.71
15:34:42.187500,117.16
15:34:42.203125,88.04
15:34:42.218750,51.95
15:34:42.234375,19.57
15:34:42.250000,-2.02
15:34:42.265625,-11.67
15:34:42.281250,-13.28
15:34:42.296875,-12.90
15:34:42.312500,-15.61
15:34:42.328125,-23.99
15:34:42.343750,-38.07
15:34:42.359375,-56.16
15:34:42.375000,-75.55
15:34:42.390625,-93.29
15:34:42.406250,-107.06
15:34:42.421875,-116.10
15:34:42.437500,-121.41
15:34:42.453125,-124.91
15:34:42.468750,-127.79
15:34:42.484375,-129.08
15:34:42.500000,-125.85
15:34:42.515625,-115.07
15:34:42.531250,-95.80
15:34:42.546875,-70.50
15:34:42.562500,-44.29
15:34:42.578125,-22.57
15:34:42.593750,-8.53
15:34:42.609375,-2.04
15:34:42.625000,-0.51
15:34:42.640625,-0.87
15:34:42.656250,-1.26
15:34:42.671875,-1.33
15:34:42.687500,-1.38
15:34:42.703125,-1.20
15:34:42.718750,0.30
15:34:42.734375,4.33
15:34:42.750000,11.03
15:34:42.765625,18.57
15:34:42.781250,23.29
15:34:42.796875,20.87
15:34:42.812500,8.56
15:34:42.828125,-12.96
15:34:42.843750,-38.84
15:34:42.859375,-61.38
15:34:42.875000,-73.20
15:34:42.890625,-70.56
15:34:42.906250,-55.12
15:34:42.921875,-33.07
15:34:42.937500,-11.85
15:34:42.953125,3.64
15:34:42.968750,13.34
15:34:42.984375,21.33
15:34:43,32.66
15:34:43.015625,49.69
15:34:43.031250,70.35
15:34:43.046875,89.51
15:34:43.062500,102.14
15:34:43.078125,106.71
15:34:43.093750,105.89
15:34:43.109375,104.85
15:34:43.125000,108.32
15:34:43.140625,118.69
15:34:43.156250,135.56
15:34:43.171875,156.84
15:34:43.187500,179.87
15:34:43.203125,201.64
15:34:43.218750,218.59
15:34:43.234375,226.91
15:34:43.250000,224.24
15:34:43.265625,211.68
15:34:43.281250,194.75
15:34:43.296875,181.46
15:34:43.312500,178.24
15:34:43.328125,185.66
15:34:43.343750,196.98
15:34:43.359375,200.76
15:34:43.375000,186.34
15:34:43.390625,149.37
15:34:43.406250,94.43
15:34:43.421875,33.35
15:34:43.437500,-20.00
15:34:43.453125,-55.38
15:34:43.468750,-69.95
15:34:43.484375,-68.91
15:34:43.500000,-62.75
15:34:43.515625,-62.98
15:34:43.531250,-77.86
15:34:43.546875,-109.48
15:34:43.562500,-153.39
15:34:43.578125,-200.51
15:34:43.593750,-240.95
15:34:43.609375,-268.14
15:34:43.625000,-281.47
15:34:43.640625,-285.50
15:34:43.656250,-286.78
15:34:43.671875,-289.74
15:34:43.687500,-294.22
15:34:43.703125,-295.89
15:34:43.718750,-289.49
15:34:43.734375,-272.36
15:34:43.750000,-246.38
15:34:43.765625,-216.87
15:34:43.781250,-189.29
15:34:43.796875,-165.99
15:34:43.812500,-145.24
15:34:43.828125,-123.24
15:34:43.843750,-97.22
15:34:43.859375,-67.78
15:34:43.875000,-38.16
15:34:43.890625,-12.13
15:34:43.906250,8.22
15:34:43.921875,22.68
15:34:43.937500,31.31
15:34:43.953125,33.21
15:34:43.968750,26.87
15:34:43.984375,12.64
15:34:44,-5.45
15:34:44.015625,-19.59
15:34:44.031250,-21.83
15:34:44.046875,-8.77
15:34:44.062500,15.69
15:34:44.078125,41.67
15:34:44.093750,58.74
15:34:44.109375,61.86
15:34:44.125000,53.91
15:34:44.140625,43.20
15:34:44.156250,37.37
15:34:44.171875,37.36
15:34:44.187500,36.02
15:34:44.203125,21.97
15:34:44.218750,-13.05
15:34:44.234375,-68.20
15:34:44.250000,-132.41
15:34:44.265625,-189.00
15:34:44.281250,-223.50
15:34:44.296875,-230.28
15:34:44.312500,-214.57
15:34:44.328125,-188.77
15:34:44.343750,-165.63
15:34:44.359375,-152.21
15:34:44.375000,-147.46
15:34:44.390625,-144.32
15:34:44.406250,-134.39
15:34:44.421875,-112.13
15:34:44.437500,-76.46
15:34:44.453125,-29.89
15:34:44.468750,23.50
15:34:44.484375,79.48
15:34:44.500000,133.45
15:34:44.515625,180.27
15:34:44.531250,214.59
15:34:44.546875,232.27
15:34:44.562500,232.49
15:34:44.578125,218.62
15:34:44.593750,197.60
15:34:44.609375,177.62
15:34:44.625000,165.11
15:34:44.640625,162.64
15:34:44.656250,168.28
15:34:44.671875,176.58
15:34:44.687500,180.70
15:34:44.703125,174.66
15:34:44.718750,155.42
15:34:44.734375,123.70
15:34:44.750000,83.84
15:34:44.765625,42.34
15:34:44.781250,5.79
15:34:44.796875,-21.09
15:34:44.812500,-36.54
15:34:44.828125,-41.52
15:34:44.843750,-38.53
15:34:44.859375,-30.46
15:34:44.875000,-20.06
15:34:44.890625,-9.68
15:34:44.906250,-1.04
15:34:44.921875,5.41
15:34:44.937500,11.51
15:34:44.953125,21.24
15:34:44.968750,39.18
15:34:44.984375,67.46
15:34:45,103.28
15:34:45.015625,138.78
15:34:45.031250,163.85
15:34:45.046875,171.06
15:34:45.062500,159.64
15:34:45.078125,136.23
15:34:45.093750,111.26
15:34:45.109375,93.16
15:34:45.125000,83.85
15:34:45.140625,78.70
15:34:45.156250,70.48
15:34:45.171875,54.78
15:34:45.187500,32.85
15:34:45.203125,9.96
15:34:45.218750,-8.83
15:34:45.234375,-22.49
15:34:45.250000,-34.14
15:34:45.265625,-48.12
15:34:45.281250,-65.97
15:34:45.296875,-84.91
15:34:45.312500,-99.63
15:34:45.328125,-106.17
15:34:45.343750,-104.98
15:34:45.359375,-101.12
15:34:45.375000,-101.39
15:34:45.390625,-110.21
15:34:45.406250,-127.37
15:34:45.421875,-148.20
15:34:45.437500,-166.06
15:34:45.453125,-175.13
15:34:45.468750,-172.54
15:34:45.484375,-159.03
15:34:45.500000,-138.68
15:34:45.515625,-117.39
15:34:45.531250,-100.73
15:34:45.546875,-92.02
15:34:45.562500,-91.03
15:34:45.578125,-94.60
15:34:45.593750,-98.61
15:34:45.609375,-100.46
15:34:45.625000,-100.24
15:34:45.640625,-99.76
15:34:45.656250,-100.35
15:34:45.671875,-101.26
15:34:45.687500,-99.66
15:34:45.703125,-92.39
15:34:45.718750,-78.01
15:34:45.734375,-57.89
15:34:45.750000,-35.39
15:34:45.765625,-14.19
15:34:45.781250,3.56
15:34:45.796875,17.99
15:34:45.812500,31.30
15:34:45.828125,46.56
15:34:45.843750,66.36
15:34:45.859375,91.55
15:34:45.875000,120.27
15:34:45.890625,148.21
15:34:45.906250,169.82
15:34:45.921875,180.45
15:34:45.937500,178.30
15:34:45.953125,165.16
15:34:45.968750,145.60
15:34:45.984375,124.93
15:34:46,106.90
15:34:46.015625,92.76
15:34:46.031250,81.88
15:34:46.046875,72.96
15:34:46.062500,65.57
15:34:46.078125,60.46
15:34:46.093750,59.02
15:34:46.109375,62.25
15:34:46.125000,69.89
15:34:46.140625,80.07
15:34:46.156250,89.92
15:34:46.171875,96.66
15:34:46.187500,98.71
15:34:46.203125,96.50
15:34:46.218750,92.19
15:34:46.234375,88.61
15:34:46.250000,88.07
15:34:46.265625,91.19
15:34:46.281250,96.90
15:34:46.296875,103.07
15:34:46.312500,107.38
15:34:46.328125,107.81
15:34:46.343750,102.88
15:34:46.359375,91.72
15:34:46.375000,74.48
15:34:46.390625,52.94
15:34:46.406250,30.89
15:34:46.421875,13.72
15:34:46.437500,7.17
15:34:46.453125,15.43
15:34:46.468750,39.58
15:34:46.484375,76.84
15:34:46.500000,120.93
15:34:46.515625,163.69
15:34:46.531250,197.18
15:34:46.546875,215.81
15:34:46.562500,217.75
15:34:46.578125,204.98
15:34:46.593750,181.95
15:34:46.609375,153.58
15:34:46.625000,123.28
15:34:46.640625,91.78
15:34:46.656250,57.46
15:34:46.671875,17.95
15:34:46.687500,-28.05
15:34:46.703125,-79.06
15:34:46.718750,-130.52
15:34:46.734375,-175.84
15:34:46.750000,-208.61
15:34:46.765625,-225.14
15:34:46.781250,-225.80
15:34:46.796875,-214.58
15:34:46.812500,-196.97
15:34:46.828125,-177.33
15:34:46.843750,-157.13
15:34:46.859375,-135.27
15:34:46.875000,-109.97
15:34:46.890625,-81.05
15:34:46.906250,-50.91
15:34:46.921875,-23.81
15:34:46.937500,-3.60
15:34:46.953125,8.48
15:34:46.968750,14.45
15:34:46.984375,18.64
15:34:47,25.74
15:34:47.015625,38.83
15:34:47.031250,58.41
15:34:47.046875,82.56
15:34:47.062500,107.44
15:34:47.078125,127.97
15:34:47.093750,138.52
15:34:47.109375,134.27
15:34:47.125000,113.26
15:34:47.140625,78.37
15:34:47.156250,37.84
15:34:47.171875,3.38
15:34:47.187500,-14.09
15:34:47.203125,-9.03
15:34:47.218750,15.86
15:34:47.234375,50.73
15:34:47.250000,82.28
15:34:47.265625,99.14
15:34:47.281250,95.63
15:34:47.296875,72.76
15:34:47.312500,36.24
15:34:47.328125,-6.47
15:34:47.343750,-48.61
15:34:47.359375,-84.73
15:34:47.375000,-110.47
15:34:47.390625,-122.83
15:34:47.406250,-121.07
15:34:47.421875,-107.92
15:34:47.437500,-89.66
15:34:47.453125,-74.15
15:34:47.468750,-67.29
15:34:47.484375,-69.84
15:34:47.500000,-76.20
15:34:47.515625,-76.82
15:34:47.531250,-63.13
15:34:47.546875,-32.42
15:34:47.562500,9.80
15:34:47.578125,51.20
15:34:47.593750,77.42
15:34:47.609375,78.48
15:34:47.625000,53.12
15:34:47.640625,9.18
15:34:47.656250,-40.04
15:34:47.671875,-82.19
15:34:47.687500,-110.98
15:34:47.703125,-128.22
15:34:47.718750,-141.89
15:34:47.734375,-161.78
15:34:47.750000,-195.28
15:34:47.765625,-245.13
15:34:47.781250,-309.51
15:34:47.796875,-383.41
15:34:47.812500,-459.83
15:34:47.828125,-530.69
15:34:47.843750,-587.61
15:34:47.859375,-623.11
15:34:47.875000,-632.31
15:34:47.890625,-614.59
15:34:47.906250,-574.36
15:34:47.921875,-520.12
15:34:47.937500,-462.09
15:34:47.953125,-409.07
15:34:47.968750,-366.43
15:34:47.984375,-335.28
15:34:48,-312.99
15:34:48.015625,-294.72
15:34:48.031250,-275.26
15:34:48.046875,-250.36
15:34:48.062500,-217.70
15:34:48.078125,-177.48
15:34:48.093750,-132.74
15:34:48.109375,-89.18
15:34:48.125000,-53.74
15:34:48.140625,-32.72
15:34:48.156250,-29.09
15:34:48.171875,-40.82
15:34:48.187500,-61.16
15:34:48.203125,-80.96
15:34:48.218750,-92.25
15:34:48.234375,-91.10
15:34:48.250000,-78.52
15:34:48.265625,-58.76
15:34:48.281250,-36.19
15:34:48.296875,-13.10
15:34:48.312500,10.79
15:34:48.328125,36.49
15:34:48.343750,63.33
15:34:48.359375,87.54
15:34:48.375000,103.15
15:34:48.390625,105.18
15:34:48.406250,92.06
15:34:48.421875,66.88
15:34:48.437500,36.47
15:34:48.453125,8.92
15:34:48.468750,-9.72
15:34:48.484375,-17.48
15:34:48.500000,-16.57
15:34:48.515625,-11.58
15:34:48.531250,-6.38
15:34:48.546875,-2.78
15:34:48.562500,-0.49
15:34:48.578125,1.56
15:34:48.593750,3.79
15:34:48.609375,5.20
15:34:48.625000,3.87
15:34:48.640625,-2.00
15:34:48.656250,-12.94
15:34:48.671875,-26.53
15:34:48.687500,-39.31
15:34:48.703125,-48.33
15:34:48.718750,-52.52
15:34:48.734375,-52.74
15:34:48.750000,-50.96
15:34:48.765625,-49.18
15:34:48.781250,-48.67
15:34:48.796875,-49.67
15:34:48.812500,-47.86
15:34:48.828125,-38.98
15:34:48.843750,-21.00
15:34:48.859375,4.52
15:34:48.875000,33.44
15:34:48.890625,61.27
15:34:48.906250,84.98
15:34:48.921875,103.34
15:34:48.937500,116.67
15:34:48.953125,133.73
15:34:48.968750,162.61
15:34:48.984375,206.90
15:34:49,263.58
15:34:49.015625,325.14
15:34:49.031250,383.90
15:34:49.046875,435.00
15:34:49.062500,476.48
15:34:49.078125,508.57
15:34:49.093750,544.54
15:34:49.109375,596.42
15:34:49.125000,669.49
15:34:49.140625,759.08
15:34:49.156250,854.09
15:34:49.171875,943.72
15:34:49.187500,1021.77
15:34:49.203125,1086.62
15:34:49.218750,1139.96
15:34:49.234375,1200.53
15:34:49.250000,1285.35
15:34:49.265625,1402.46
15:34:49.281250,1546.67
15:34:49.296875,1703.79
15:34:49.312500,1859.19
15:34:49.328125,2003.33
15:34:49.343750,2131.94
15:34:49.359375,2146.81
15:34:49.375000,1982.62
15:34:49.390625,1629.14
15:34:49.406250,1146.88
15:34:49.421875,632.53
15:34:49.437500,166.38
15:34:49.453125,-212.26
15:34:49.468750,-498.19
15:34:49.484375,-704.85
15:34:49.500000,-851.96
15:34:49.515625,-944.49
15:34:49.531250,-987.50
15:34:49.546875,-990.85
15:34:49.562500,-971.41
15:34:49.578125,-947.80
15:34:49.593750,-932.81
15:34:49.609375,-928.86
15:34:49.625000,-935.81
15:34:49.640625,-950.45
15:34:49.656250,-957.79
15:34:49.671875,-945.69
15:34:49.687500,-909.45
15:34:49.703125,-853.83
15:34:49.718750,-789.60
15:34:49.734375,-727.91
15:34:49.750000,-676.17
15:34:49.765625,-638.70
15:34:49.781250,-617.33
15:34:49.796875,-605.19
15:34:49.812500,-595.09
15:34:49.828125,-582.52
15:34:49.843750,-567.93
15:34:49.859375,-550.06
15:34:49.875000,-529.77
15:34:49.890625,-506.66
15:34:49.906250,-479.82
15:34:49.921875,-448.37
15:34:49.937500,-409.13
15:34:49.953125,-360.89
15:34:49.968750,-305.41
15:34:49.984375,-247.44
15:34:50,-192.45
15:34:50.015625,-144.73
15:34:50.031250,-105.31
15:34:50.046875,-73.28
15:34:50.062500,-47.53
15:34:50.078125,-27.12
15:34:50.093750,-12.79
15:34:50.109375,-5.72
15:34:50.125000,-5.96
15:34:50.140625,-10.96
15:34:50.156250,-16.57
15:34:50.171875,-18.59
15:34:50.187500,-15.42
15:34:50.203125,-8.43
15:34:50.218750,-1.02
15:34:50.234375,3.88
15:34:50.250000,5.32
15:34:50.265625,4.29
15:34:50.281250,2.68
15:34:50.296875,1.78
15:34:50.312500,2.35
15:34:50.328125,4.81
15:34:50.343750,9.77
15:34:50.359375,17.71
15:34:50.375000,28.69
15:34:50.390625,42.04
15:34:50.406250,56.63
15:34:50.421875,71.52
15:34:50.437500,86.22
15:34:50.453125,100.77
15:34:50.468750,115.20
15:34:50.484375,128.88
15:34:50.500000,140.23
15:34:50.515625,147.16
15:34:50.531250,147.68
15:34:50.546875,140.78
15:34:50.562500,127.00
15:34:50.578125,108.77
15:34:50.593750,90.19
15:34:50.609375,75.85
15:34:50.625000,68.63
15:34:50.640625,68.03
15:34:50.656250,70.03
15:34:50.671875,68.91
15:34:50.687500,60.10
15:34:50.703125,42.39
15:34:50.718750,18.11
15:34:50.734375,-8.72
15:34:50.750000,-34.80
15:34:50.765625,-59.12
15:34:50.781250,-82.51
15:34:50.796875,-105.87
15:34:50.812500,-128.34
15:34:50.828125,-146.54
15:34:50.843750,-155.48
15:34:50.859375,-150.55
15:34:50.875000,-129.62
15:34:50.890625,-94.31
15:34:50.906250,-50.06
15:34:50.921875,-4.84
15:34:50.937500,33.09
15:34:50.953125,57.38
15:34:50.968750,65.32
15:34:50.984375,58.17
15:34:51,40.08
15:34:51.015625,16.32
15:34:51.031250,-8.26
15:34:51.046875,-30.17
15:34:51.062500,-47.31
15:34:51.078125,-58.91
15:34:51.093750,-65.47
15:34:51.109375,-68.43
15:34:51.125000,-69.82
15:34:51.140625,-71.34
15:34:51.156250,-73.43
15:34:51.171875,-74.81
15:34:51.187500,-72.75
15:34:51.203125,-63.98
15:34:51.218750,-46.11
15:34:51.234375,-18.84
15:34:51.250000,15.51
15:34:51.265625,52.26
15:34:51.281250,85.69
15:34:51.296875,110.76
15:34:51.312500,124.66
15:34:51.328125,127.26
15:34:51.343750,120.40
15:34:51.359375,106.43
15:34:51.375000,87.13
15:34:51.390625,63.74
15:34:51.406250,37.84
15:34:51.421875,11.93
15:34:51.437500,-10.84
15:34:51.453125,-28.20
15:34:51.468750,-40.14
15:34:51.484375,-49.04
15:34:51.500000,-58.03
15:34:51.515625,-68.44
15:34:51.531250,-78.36
15:34:51.546875,-83.40
15:34:51.562500,-79.47
15:34:51.578125,-65.63
15:34:51.593750,-45.01
15:34:51.609375,-22.82
15:34:51.625000,-3.06
15:34:51.640625,13.81
15:34:51.656250,30.49
15:34:51.671875,49.81
15:34:51.687500,71.55
15:34:51.703125,91.23
15:34:51.718750,102.01
15:34:51.734375,98.27
15:34:51.750000,78.81
15:34:51.765625,47.50
15:34:51.781250,11.14
15:34:51.796875,-23.72
15:34:51.812500,-53.26
15:34:51.828125,-76.72
15:34:51.843750,-95.13
15:34:51.859375,-109.40
15:34:51.875000,-119.41
15:34:51.890625,-124.11
15:34:51.906250,-122.41
15:34:51.921875,-113.93
15:34:51.937500,-99.21
15:34:51.953125,-79.62
15:34:51.968750,-56.86
15:34:51.984375,-32.71
15:34:52,-8.75
15:34:52.015625,13.85
15:34:52.031250,34.38
15:34:52.046875,52.45
15:34:52.062500,67.57
15:34:52.078125,78.70
15:34:52.093750,84.10
15:34:52.109375,81.94
15:34:52.125000,71.41
15:34:52.140625,53.83
15:34:52.156250,32.98
15:34:52.171875,14.12
15:34:52.187500,2.14
15:34:52.203125,-0.48
15:34:52.218750,5.10
15:34:52.234375,14.47
15:34:52.250000,21.89
15:34:52.265625,23.00
15:34:52.281250,16.89
15:34:52.296875,6.51
15:34:52.312500,-2.87
15:34:52.328125,-6.19
15:34:52.343750,-0.98
15:34:52.359375,11.90
15:34:52.375000,29.25
15:34:52.390625,47.46
15:34:52.406250,63.98
15:34:52.421875,77.43
15:34:52.437500,86.76
15:34:52.453125,90.08
15:34:52.468750,84.81
15:34:52.484375,69.11
15:34:52.500000,43.70
15:34:52.515625,12.88
15:34:52.531250,-16.46
15:34:52.546875,-37.47
15:34:52.562500,-46.26
15:34:52.578125,-43.36
15:34:52.593750,-32.98
15:34:52.609375,-20.56
15:34:52.625000,-10.18
15:34:52.640625,-3.21
15:34:52.656250,1.15
15:34:52.671875,4.34
15:34:52.687500,7.00
15:34:52.703125,8.90
15:34:52.718750,9.95
15:34:52.734375,11.43
15:34:52.750000,16.24
15:34:52.765625,27.52
15:34:52.781250,46.46
15:34:52.796875,70.36
15:34:52.812500,92.63
15:34:52.828125,105.11
15:34:52.843750,101.79
15:34:52.859375,81.96
15:34:52.875000,50.78
15:34:52.890625,17.06
15:34:52.906250,-10.68
15:34:52.921875,-27.65
15:34:52.937500,-34.06
15:34:52.953125,-33.93
15:34:52.968750,-32.35
15:34:52.984375,-32.93
15:34:53,-36.60
15:34:53.015625,-41.99
15:34:53.031250,-46.59
15:34:53.046875,-47.94
15:34:53.062500,-44.40
15:34:53.078125,-35.34
15:34:53.093750,-21.24
15:34:53.109375,-3.65
15:34:53.125000,15.10
15:34:53.140625,32.34
15:34:53.156250,45.64
15:34:53.171875,53.08
15:34:53.187500,53.14
15:34:53.203125,44.69
15:34:53.218750,27.37
15:34:53.234375,2.62
15:34:53.250000,-25.54
15:34:53.265625,-51.01
15:34:53.281250,-67.64
15:34:53.296875,-71.97
15:34:53.312500,-65.26
15:34:53.328125,-53.11
15:34:53.343750,-42.74
15:34:53.359375,-39.38
15:34:53.375000,-43.72
15:34:53.390625,-51.97
15:34:53.406250,-58.37
15:34:53.421875,-58.25
15:34:53.437500,-49.94
15:34:53.453125,-34.46
15:34:53.468750,-13.80
15:34:53.484375,10.56
15:34:53.500000,37.54
15:34:53.515625,65.10
15:34:53.531250,89.10
15:34:53.546875,103.76
15:34:53.562500,103.94
15:34:53.578125,87.91
15:34:53.593750,58.84
15:34:53.609375,23.76
15:34:53.625000,-9.28
15:34:53.640625,-34.25
15:34:53.656250,-48.87
15:34:53.671875,-54.38
15:34:53.687500,-54.10
15:34:53.703125,-51.64
15:34:53.718750,-49.91
15:34:53.734375,-50.67
15:34:53.750000,-54.29
15:34:53.765625,-59.80
15:34:53.781250,-65.00
15:34:53.796875,-66.92
15:34:53.812500,-62.93
15:34:53.828125,-51.70
15:34:53.843750,-33.72
15:34:53.859375,-11.12
15:34:53.875000,13.04
15:34:53.890625,35.51
15:34:53.906250,53.19
15:34:53.921875,63.45
15:34:53.937500,64.66
15:34:53.953125,56.60
15:34:53.968750,41.28
15:34:53.984375,22.75
15:34:54,5.66
15:34:54.015625,-6.72
15:34:54.031250,-13.80
15:34:54.046875,-17.39
15:34:54.062500,-20.23
15:34:54.078125,-23.96
15:34:54.093750,-28.51
15:34:54.109375,-32.07
15:34:54.125000,-32.46
15:34:54.140625,-28.31
15:34:54.156250,-19.54
15:34:54.171875,-6.93
15:34:54.187500,8.86
15:34:54.203125,27.68
15:34:54.218750,49.74
15:34:54.234375,74.35
15:34:54.250000,100.18
15:34:54.265625,125.24
15:34:54.281250,147.50
15:34:54.296875,165.34
15:34:54.312500,177.79
15:34:54.328125,184.67
15:34:54.343750,186.54
15:34:54.359375,184.70
15:34:54.375000,179.75
15:34:54.390625,173.01
15:34:54.406250,166.54
15:34:54.421875,162.83
15:34:54.437500,163.98
15:34:54.453125,170.86
15:34:54.468750,183.13
15:34:54.484375,199.49
15:34:54.500000,217.74
15:34:54.515625,232.22
15:34:54.531250,237.35
15:34:54.546875,229.40
15:34:54.562500,208.05
15:34:54.578125,175.78
15:34:54.593750,136.31
15:34:54.609375,93.55
15:34:54.625000,50.59
15:34:54.640625,9.30
15:34:54.656250,-34.05
15:34:54.671875,-82.95
15:34:54.687500,-138.30
15:34:54.703125,-196.76
15:34:54.718750,-253.00
15:34:54.734375,-302.78
15:34:54.750000,-344.18
15:34:54.765625,-377.49
15:34:54.781250,-404.29
15:34:54.796875,-432.07
15:34:54.812500,-466.24
15:34:54.828125,-508.22
15:34:54.843750,-553.55
15:34:54.859375,-595.43
15:34:54.875000,-628.79
15:34:54.890625,-651.80
15:34:54.906250,-665.75
15:34:54.921875,-639.64
15:34:54.937500,-557.39
15:34:54.953125,-425.60
15:34:54.968750,-274.14
15:34:54.984375,-134.39
15:34:55,-22.80
15:34:55.015625,59.02
15:34:55.031250,116.79
15:34:55.046875,157.22
15:34:55.062500,184.97
15:34:55.078125,194.15
15:34:55.093750,183.24
15:34:55.109375,152.76
15:34:55.125000,108.26
15:34:55.140625,57.98
15:34:55.156250,9.62
15:34:55.171875,-30.50
15:34:55.187500,-57.90
15:34:55.203125,-71.08
15:34:55.218750,-76.96
15:34:55.234375,-79.02
15:34:55.250000,-85.34
15:34:55.265625,-103.73
15:34:55.281250,-140.01
15:34:55.296875,-196.10
15:34:55.312500,-267.61
15:34:55.328125,-343.61
15:34:55.343750,-409.59
15:34:55.359375,-454.69
15:34:55.375000,-472.31
15:34:55.390625,-460.58
15:34:55.406250,-421.68
15:34:55.421875,-361.21
15:34:55.437500,-286.56
15:34:55.453125,-204.48
15:34:55.468750,-120.06
15:34:55.484375,-37.19
15:34:55.500000,39.30
15:34:55.515625,105.12
15:34:55.531250,160.17
15:34:55.546875,206.11
15:34:55.562500,244.46
15:34:55.578125,276.04
15:34:55.593750,301.82
15:34:55.609375,322.91
15:34:55.625000,340.07
15:34:55.640625,352.99
15:34:55.656250,361.35
15:34:55.671875,371.10
15:34:55.687500,387.48
15:34:55.703125,411.91
15:34:55.718750,442.35
15:34:55.734375,475.89
15:34:55.750000,510.25
15:34:55.765625,543.58
15:34:55.781250,573.88
15:34:55.796875,598.96
15:34:55.812500,624.37
15:34:55.828125,653.33
15:34:55.843750,683.56
15:34:55.859375,709.08
15:34:55.875000,724.75
15:34:55.890625,728.61
15:34:55.906250,721.58
15:34:55.921875,706.02
15:34:55.937500,636.20
15:34:55.953125,495.56
15:34:55.968750,303.03
15:34:55.984375,100.86
15:34:56,-74.73
15:34:56.015625,-208.66
15:34:56.031250,-302.60
15:34:56.046875,-365.28
15:34:56.062500,-406.35
15:34:56.078125,-434.00
15:34:56.093750,-446.69
15:34:56.109375,-441.59
15:34:56.125000,-424.31
15:34:56.140625,-403.38
15:34:56.156250,-385.27
15:34:56.171875,-372.42
15:34:56.187500,-363.98
15:34:56.203125,-357.67
15:34:56.218750,-351.30
15:34:56.234375,-337.44
15:34:56.250000,-311.59
15:34:56.265625,-274.31
15:34:56.281250,-233.30
15:34:56.296875,-194.00
15:34:56.312500,-158.78
15:34:56.328125,-127.25
15:34:56.343750,-97.62
15:34:56.359375,-67.71
15:34:56.375000,-32.07
15:34:56.390625,12.16
15:34:56.406250,62.82
15:34:56.421875,113.87
15:34:56.437500,158.55
15:34:56.453125,191.34
15:34:56.468750,209.41
15:34:56.484375,212.97
15:34:56.500000,204.80
15:34:56.515625,190.93
15:34:56.531250,176.53
15:34:56.546875,163.81
15:34:56.562500,152.36
15:34:56.578125,141.05
15:34:56.593750,128.91
15:34:56.609375,115.89
15:34:56.625000,102.53
15:34:56.640625,89.41
15:34:56.656250,77.26
15:34:56.671875,65.97
15:34:56.687500,54.51
15:34:56.703125,41.87
15:34:56.718750,28.01
15:34:56.734375,13.79
15:34:56.750000,0.55
15:34:56.765625,-10.58
15:34:56.781250,-19.18
15:34:56.796875,-25.66
15:34:56.812500,-30.94
15:34:56.828125,-36.04
15:34:56.843750,-41.52
15:34:56.859375,-47.22
15:34:56.875000,-52.63
15:34:56.890625,-57.15
15:34:56.906250,-60.39
15:34:56.921875,-62.28
15:34:56.937500,-63.13
15:34:56.953125,-63.52
15:34:56.968750,-64.07
15:34:56.984375,-65.24
15:34:57,-66.98
15:34:57.015625,-68.76
15:34:57.031250,-69.70
15:34:57.046875,-68.99
15:34:57.062500,-66.19
15:34:57.078125,-61.46
15:34:57.093750,-55.47
15:34:57.109375,-49.02
15:34:57.125000,-42.76
15:34:57.140625,-36.95
15:34:57.156250,-31.62
15:34:57.171875,-26.73
15:34:57.187500,-22.32
15:34:57.203125,-18.55
15:34:57.218750,-15.54
15:34:57.234375,-13.21
15:34:57.250000,-11.23
15:34:57.265625,-9.12
15:34:57.281250,-6.47
15:34:57.296875,-3.22
15:34:57.312500,0.33
15:34:57.328125,3.58
15:34:57.343750,5.89
15:34:57.359375,6.94
15:34:57.375000,6.86
15:34:57.390625,6.17
15:34:57.406250,5.43
15:34:57.421875,4.88
15:34:57.437500,4.24
15:34:57.453125,2.93
15:34:57.468750,0.46
15:34:57.484375,-3.03
15:34:57.500000,-6.67
15:34:57.515625,-9.14
15:34:57.531250,-9.38
15:34:57.546875,-7.20
15:34:57.562500,-3.49
15:34:57.578125,0.20
15:34:57.593750,2.32
15:34:57.609375,2.07
15:34:57.625000,-0.37
15:34:57.640625,-4.02
15:34:57.656250,-7.67
15:34:57.671875,-10.36
15:34:57.687500,-11.64
15:34:57.703125,-11.53
15:34:57.718750,-10.36
15:34:57.734375,-8.59
15:34:57.750000,-6.72
15:34:57.765625,-5.28
15:34:57.781250,-4.83
15:34:57.796875,-5.79
15:34:57.812500,-8.23
15:34:57.828125,-11.74
15:34:57.843750,-15.46
15:34:57.859375,-18.38
15:34:57.875000,-19.75
15:34:57.890625,-19.40
15:34:57.906250,-17.85
15:34:57.921875,-16.05
15:34:57.937500,-14.93
15:34:57.953125,-14.89
15:34:57.968750,-15.63
15:34:57.984375,-16.33
15:34:58,-16.12
15:34:58.015625,-14.56
15:34:58.031250,-11.89
15:34:58.046875,-8.87
15:34:58.062500,-6.34
15:34:58.078125,-4.80
15:34:58.093750,-4.22
15:34:58.109375,-4.06
15:34:58.125000,-3.63
15:34:58.140625,-2.46
15:34:58.156250,-0.57
15:34:58.171875,1.57
15:34:58.187500,3.30
15:34:58.203125,4.06
15:34:58.218750,3.75
15:34:58.234375,2.64
15:34:58.250000,1.23
15:34:58.265625,-0.07
15:34:58.281250,-1.31
15:34:58.296875,-2.90
15:34:58.312500,-5.33
15:34:58.328125,-8.79
15:34:58.343750,-12.91
15:34:58.359375,-16.89
15:34:58.375000,-20.01
15:34:58.390625,-22.07
15:34:58.406250,-23.50
15:34:58.421875,-25.13
15:34:58.437500,-27.55
15:34:58.453125,-30.74
15:34:58.468750,-33.98
15:34:58.484375,-36.23
15:34:58.500000,-36.60
15:34:58.515625,-34.84
15:34:58.531250,-31.29
15:34:58.546875,-26.65
15:34:58.562500,-21.64
15:34:58.578125,-16.78
15:34:58.593750,-12.34
15:34:58.609375,-8.49
15:34:58.625000,-5.27
15:34:58.640625,-2.62
15:34:58.656250,-0.30
15:34:58.671875,2.02
15:34:58.687500,4.58
15:34:58.703125,7.37
15:34:58.718750,10.05
15:34:58.734375,12.11
15:34:58.750000,13.21
15:34:58.765625,13.48
15:34:58.781250,13.54
15:34:58.796875,14.32
15:34:58.812500,16.58
15:34:58.828125,20.49
15:34:58.843750,25.48
15:34:58.859375,30.58
15:34:58.875000,34.79
15:34:58.890625,37.51
15:34:58.906250,38.67
15:34:58.921875,38.62
15:34:58.937500,37.81
15:34:58.953125,36.50
15:34:58.968750,34.79
15:34:58.984375,32.61
15:34:59,29.98
15:34:59.015625,27.15
15:34:59.031250,24.51
15:34:59.046875,22.37
15:34:59.062500,20.84
15:34:59.078125,19.73
15:34:59.093750,18.73
15:34:59.109375,17.54
15:34:59.125000,16.04
15:34:59.140625,14.29
15:34:59.156250,12.59
15:34:59.171875,11.24
15:34:59.187500,10.46
15:34:59.203125,10.45
15:34:59.218750,11.29
15:34:59.234375,13.09
15:34:59.250000,15.88
15:34:59.265625,19.55
15:34:59.281250,23.71
15:34:59.296875,27.90
15:34:59.312500,31.56
15:34:59.328125,34.40
15:34:59.343750,36.57
15:34:59.359375,38.79
15:34:59.375000,42.05
15:34:59.390625,47.28
15:34:59.406250,54.90
15:34:59.421875,64.42
15:34:59.437500,75.12
15:34:59.453125,85.63
15:34:59.468750,94.54
15:34:59.484375,100.65
15:34:59.500000,103.40
15:34:59.515625,103.05
15:34:59.531250,100.83
15:34:59.546875,98.76
15:34:59.562500,98.42
15:34:59.578125,101.08
15:34:59.593750,105.58
15:34:59.609375,108.52
15:34:59.625000,105.35
15:34:59.640625,92.21
15:34:59.656250,67.96
15:34:59.671875,35.21
15:34:59.687500,-0.16
15:34:59.703125,-31.55
15:34:59.718750,-51.93
15:34:59.734375,-57.69
15:34:59.750000,-48.88
15:34:59.765625,-28.87
15:34:59.781250,-3.33
15:34:59.796875,21.13
15:34:59.812500,38.50
15:34:59.828125,44.95
15:34:59.843750,39.04
15:34:59.859375,24.45
15:34:59.875000,6.55
15:34:59.890625,-9.00
15:34:59.906250,-18.64
15:34:59.921875,-22.55
15:34:59.937500,-24.74
15:34:59.953125,-31.73
15:34:59.968750,-44.61
15:34:59.984375,-73.98
15:35:00,-119.02
15:35:00.015625,-175.51
15:35:00.031250,-235.60
15:35:00.046875,-289.15
15:35:00.062500,-325.93
15:35:00.078125,-338.34
15:35:00.093750,-324.31
15:35:00.109375,-289.10
15:35:00.125000,-245.24
15:35:00.140625,-206.37
15:35:00.156250,-184.48
15:35:00.171875,-184.54
15:35:00.187500,-202.76
15:35:00.203125,-228.61
15:35:00.218750,-248.91
15:35:00.234375,-253.10
15:35:00.250000,-236.41
15:35:00.265625,-200.82
15:35:00.281250,-150.78
15:35:00.296875,-92.56
15:35:00.312500,-32.06
15:35:00.328125,25.68
15:35:00.343750,76.21
15:35:00.359375,116.03
15:35:00.375000,142.59
15:35:00.390625,154.67
15:35:00.406250,152.58
15:35:00.421875,140.03
15:35:00.437500,122.41
15:35:00.453125,105.85
15:35:00.468750,95.37
15:35:00.484375,93.48
15:35:00.500000,100.70
15:35:00.515625,115.30
15:35:00.531250,133.97
15:35:00.546875,152.78
15:35:00.562500,169.07
15:35:00.578125,181.10
15:35:00.593750,187.96
15:35:00.609375,188.91
15:35:00.625000,179.03
15:35:00.640625,156.23
15:35:00.656250,123.95
15:35:00.671875,89.70
15:35:00.687500,59.80
15:35:00.703125,36.54
15:35:00.718750,18.79
15:35:00.734375,4.83
15:35:00.750000,-6.25
15:35:00.765625,-14.65
15:35:00.781250,-19.20
15:35:00.796875,-19.02
15:35:00.812500,-14.73
15:35:00.828125,-8.54
15:35:00.843750,-3.25
15:35:00.859375,-1.35
15:35:00.875000,-3.76
15:35:00.890625,-9.93
15:35:00.906250,-19.20
15:35:00.921875,-29.42
15:35:00.937500,-38.21
15:35:00.953125,-44.14
15:35:00.968750,-47.46
15:35:00.984375,-51.33
15:35:01,-58.88
15:35:01.015625,-72.79
15:35:01.031250,-94.00
15:35:01.046875,-121.53
15:35:01.062500,-149.28
15:35:01.078125,-167.27
15:35:01.093750,-165.35
15:35:01.109375,-137.58
15:35:01.125000,-81.40
15:35:01.140625,-7.96
15:35:01.156250,66.22
15:35:01.171875,129.82
15:35:01.187500,172.60
15:35:01.203125,190.06
15:35:01.218750,184.13
15:35:01.234375,161.20
15:35:01.250000,129.55
15:35:01.265625,97.45
15:35:01.281250,71.50
15:35:01.296875,56.21
15:35:01.312500,52.38
15:35:01.328125,54.10
15:35:01.343750,53.58
15:35:01.359375,44.88
15:35:01.375000,26.05
15:35:01.390625,-0.82
15:35:01.406250,-30.17
15:35:01.421875,-53.93
15:35:01.437500,-64.92
15:35:01.453125,-62.08
15:35:01.468750,-55.02
15:35:01.484375,-57.09
15:35:01.500000,-77.71
15:35:01.515625,-117.73
15:35:01.531250,-169.10
15:35:01.546875,-218.49
15:35:01.562500,-253.43
15:35:01.578125,-267.31
15:35:01.593750,-248.65
15:35:01.609375,-200.89
15:35:01.625000,-140.73
15:35:01.640625,-85.42
15:35:01.656250,-41.56
15:35:01.671875,-6.22
15:35:01.687500,24.96
15:35:01.703125,52.21
15:35:01.718750,72.48
15:35:01.734375,82.48
15:35:01.750000,80.09
15:35:01.765625,68.32
15:35:01.781250,55.16
15:35:01.796875,48.12
15:35:01.812500,50.31
15:35:01.828125,60.15
15:35:01.843750,72.84
15:35:01.859375,83.95
15:35:01.875000,91.22
15:35:01.890625,93.83
15:35:01.906250,94.32
15:35:01.921875,98.51
15:35:01.937500,112.62
15:35:01.953125,137.64
15:35:01.968750,170.01
15:35:01.984375,201.99
15:35:02,224.46
15:35:02.015625,229.34
15:35:02.031250,211.79
15:35:02.046875,169.88
15:35:02.062500,114.52
15:35:02.078125,59.50
15:35:02.093750,15.47
15:35:02.109375,-13.13
15:35:02.125000,-28.79
15:35:02.140625,-37.08
15:35:02.156250,-43.59
15:35:02.171875,-51.49
15:35:02.187500,-60.62
15:35:02.203125,-68.53
15:35:02.218750,-74.08
15:35:02.234375,-78.57
15:35:02.250000,-84.54
15:35:02.265625,-95.48
15:35:02.281250,-111.12
15:35:02.296875,-129.76
15:35:02.312500,-149.29
15:35:02.328125,-168.08
15:35:02.343750,-184.30
15:35:02.359375,-196.13
15:35:02.375000,-200.92
15:35:02.390625,-192.09
15:35:02.406250,-168.39
15:35:02.421875,-130.82
15:35:02.437500,-84.16
15:35:02.453125,-35.76
15:35:02.468750,6.21
15:35:02.484375,36.55
15:35:02.500000,54.23
15:35:02.515625,62.00
15:35:02.531250,64.92
15:35:02.546875,67.72
15:35:02.562500,74.07
15:35:02.578125,85.54
15:35:02.593750,103.33
15:35:02.609375,126.15
15:35:02.625000,152.04
15:35:02.640625,177.66
15:35:02.656250,198.20
15:35:02.671875,208.09
15:35:02.687500,202.62
15:35:02.703125,180.35
15:35:02.718750,141.88
15:35:02.734375,95.32
15:35:02.750000,48.77
15:35:02.765625,7.58
15:35:02.781250,-27.00
15:35:02.796875,-57.08
15:35:02.812500,-86.11
15:35:02.828125,-113.59
15:35:02.843750,-134.52
15:35:02.859375,-141.24
15:35:02.875000,-126.99
15:35:02.890625,-90.51
15:35:02.906250,-37.07
15:35:02.921875,22.84
15:35:02.937500,76.60
15:35:02.953125,112.00
15:35:02.968750,121.62
15:35:02.984375,105.52
15:35:03,72.35
15:35:03.015625,37.02
15:35:03.031250,15.33
15:35:03.046875,17.80
15:35:03.062500,45.80
15:35:03.078125,90.83
15:35:03.093750,136.20
15:35:03.109375,165.62
15:35:03.125000,169.98
15:35:03.140625,150.46
15:35:03.156250,116.14
15:35:03.171875,78.10
15:35:03.187500,43.08
15:35:03.203125,12.51
15:35:03.218750,-15.86
15:35:03.234375,-47.19
15:35:03.250000,-84.22
15:35:03.265625,-126.51
15:35:03.281250,-172.09
15:35:03.296875,-221.30
15:35:03.312500,-271.89
15:35:03.328125,-326.41
15:35:03.343750,-387.48
15:35:03.359375,-439.65
15:35:03.375000,-466.74
15:35:03.390625,-455.99
15:35:03.406250,-404.17
15:35:03.421875,-318.52
15:35:03.437500,-213.47
15:35:03.453125,-106.41
15:35:03.468750,-14.01
15:35:03.484375,53.49
15:35:03.500000,94.48
15:35:03.515625,112.37
15:35:03.531250,114.83
15:35:03.546875,110.13
15:35:03.562500,104.75
15:35:03.578125,103.14
15:35:03.593750,108.30
15:35:03.609375,121.20
15:35:03.625000,140.83
15:35:03.640625,164.73
15:35:03.656250,184.26
15:35:03.671875,189.96
15:35:03.687500,175.25
15:35:03.703125,139.00
15:35:03.718750,86.23
15:35:03.734375,25.63
15:35:03.750000,-34.65
15:35:03.765625,-88.94
15:35:03.781250,-134.18
15:35:03.796875,-170.07
15:35:03.812500,-195.15
15:35:03.828125,-206.44
15:35:03.843750,-200.72
15:35:03.859375,-176.52
15:35:03.875000,-135.42
15:35:03.890625,-81.73
15:35:03.906250,-20.12
15:35:03.921875,45.55
15:35:03.937500,108.94
15:35:03.953125,163.04
15:35:03.968750,200.19
15:35:03.984375,213.93
15:35:04,202.14
15:35:04.015625,169.42
15:35:04.031250,126.81
15:35:04.046875,88.20
15:35:04.062500,64.56
15:35:04.078125,59.02
15:35:04.093750,66.70
15:35:04.109375,77.76
15:35:04.125000,82.74
15:35:04.140625,77.21
15:35:04.156250,62.84
15:35:04.171875,45.35
15:35:04.187500,30.76
15:35:04.203125,22.55
15:35:04.218750,21.14
15:35:04.234375,25.56
15:35:04.250000,34.61
15:35:04.265625,47.05
15:35:04.281250,61.06
15:35:04.296875,73.29
15:35:04.312500,79.20
15:35:04.328125,74.81
15:35:04.343750,58.90
15:35:04.359375,34.15
15:35:04.375000,6.78
15:35:04.390625,-16.05
15:35:04.406250,-29.12
15:35:04.421875,-31.01
15:35:04.437500,-23.91
15:35:04.453125,-11.92
15:35:04.468750,0.72
15:35:04.484375,10.50
15:35:04.500000,14.92
15:35:04.515625,12.50
15:35:04.531250,2.77
15:35:04.546875,-13.33
15:35:04.562500,-33.36
15:35:04.578125,-53.73
15:35:04.593750,-70.78
15:35:04.609375,-82.07
15:35:04.625000,-87.09
15:35:04.640625,-87.23
15:35:04.656250,-84.77
15:35:04.671875,-81.58
15:35:04.687500,-78.07
15:35:04.703125,-73.23
15:35:04.718750,-65.22
15:35:04.734375,-52.81
15:35:04.750000,-36.48
15:35:04.765625,-18.67
15:35:04.781250,-3.04
15:35:04.796875,7.16
15:35:04.812500,10.55
15:35:04.828125,8.30
15:35:04.843750,3.74
15:35:04.859375,0.92
15:35:04.875000,2.86
15:35:04.890625,10.35
15:35:04.906250,21.83
15:35:04.921875,34.34
15:35:04.937500,44.83
15:35:04.953125,51.32
15:35:04.968750,53.30
15:35:04.984375,51.51
15:35:05,47.45
15:35:05.015625,42.48
15:35:05.031250,37.24
15:35:05.046875,31.54
15:35:05.062500,24.73
15:35:05.078125,16.10
15:35:05.093750,5.39
15:35:05.109375,-7.00
15:35:05.125000,-20.23
15:35:05.140625,-32.78
15:35:05.156250,-43.49
15:35:05.171875,-52.07
15:35:05.187500,-59.11
15:35:05.203125,-65.32
15:35:05.218750,-70.73
15:35:05.234375,-74.34
15:35:05.250000,-74.39
15:35:05.265625,-69.34
15:35:05.281250,-58.06
15:35:05.296875,-41.55
15:35:05.312500,-23.19
15:35:05.328125,-7.68
15:35:05.343750,1.33
15:35:05.359375,3.01
15:35:05.375000,-0.51
15:35:05.390625,-5.47
15:35:05.406250,-8.51
15:35:05.421875,-6.69
15:35:05.437500,0.38
15:35:05.453125,10.39
15:35:05.468750,19.47
15:35:05.484375,24.62
15:35:05.500000,25.33
15:35:05.515625,23.46
15:35:05.531250,22.15
15:35:05.546875,24.42
15:35:05.562500,34.41
15:35:05.578125,55.19
15:35:05.593750,87.28
15:35:05.609375,128.31
15:35:05.625000,173.93
15:35:05.640625,218.53
15:35:05.656250,255.65
15:35:05.671875,279.66
15:35:05.687500,277.63
15:35:05.703125,245.48
15:35:05.718750,193.44
15:35:05.734375,142.02
15:35:05.750000,107.60
15:35:05.765625,92.09
15:35:05.781250,84.74
15:35:05.796875,71.67
15:35:05.812500,45.64
15:35:05.828125,9.22
15:35:05.843750,-26.38
15:35:05.859375,-49.83
15:35:05.875000,-56.83
15:35:05.890625,-51.95
15:35:05.906250,-44.10
15:35:05.921875,-40.60
15:35:05.937500,-43.94
15:35:05.953125,-51.11
15:35:05.968750,-57.32
15:35:05.984375,-58.28
15:35:06,-53.34
15:35:06.015625,-45.86
15:35:06.031250,-42.20
15:35:06.046875,-46.06
15:35:06.062500,-57.81
15:35:06.078125,-75.08
15:35:06.093750,-93.26
15:35:06.109375,-108.27
15:35:06.125000,-117.34
15:35:06.140625,-120.47
15:35:06.156250,-120.21
15:35:06.171875,-120.45
15:35:06.187500,-124.16
15:35:06.203125,-127.39
15:35:06.218750,-130.02
15:35:06.234375,-130.86
15:35:06.250000,-128.77
15:35:06.265625,-123.27
15:35:06.281250,-115.09
15:35:06.296875,-105.78
15:35:06.312500,-96.56
15:35:06.328125,-87.64
15:35:06.343750,-78.60
15:35:06.359375,-69.84
15:35:06.375000,-62.04
15:35:06.390625,-56.80
15:35:06.406250,-55.27
15:35:06.421875,-56.75
15:35:06.437500,-58.41
15:35:06.453125,-56.44
15:35:06.468750,-48.12
15:35:06.484375,-33.41
15:35:06.500000,-15.44
15:35:06.515625,2.30
15:35:06.531250,17.72
15:35:06.546875,30.78
15:35:06.562500,43.35
15:35:06.578125,56.48
15:35:06.593750,68.82
15:35:06.609375,77.22
15:35:06.625000,78.71
15:35:06.640625,72.57
15:35:06.656250,61.90
15:35:06.671875,51.89
15:35:06.687500,46.12
15:35:06.703125,46.21
15:35:06.718750,50.91
15:35:06.734375,57.62
15:35:06.750000,63.76
15:35:06.765625,67.61
15:35:06.781250,68.10
15:35:06.796875,64.48
15:35:06.812500,56.83
15:35:06.828125,45.57
15:35:06.843750,32.69
15:35:06.859375,20.45
15:35:06.875000,10.27
15:35:06.890625,1.26
15:35:06.906250,-9.28
15:35:06.921875,-24.06
15:35:06.937500,-43.64
15:35:06.953125,-65.87
15:35:06.968750,-88.47
15:35:06.984375,-109.56
15:35:07,-128.97
15:35:07.015625,-147.22
15:35:07.031250,-163.26
15:35:07.046875,-173.56
15:35:07.062500,-172.81
15:35:07.078125,-157.17
15:35:07.093750,-124.81
15:35:07.109375,-83.67
15:35:07.125000,-44.56
15:35:07.140625,-16.38
15:35:07.156250,-2.40
15:35:07.171875,0.85
15:35:07.187500,0.94
15:35:07.203125,5.47
15:35:07.218750,18.59
15:35:07.234375,40.91
15:35:07.250000,67.97
15:35:07.265625,94.79
15:35:07.281250,118.10
15:35:07.296875,136.99
15:35:07.312500,152.60
15:35:07.328125,166.20
15:35:07.343750,177.95
15:35:07.359375,182.92
15:35:07.375000,180.48
15:35:07.390625,171.79
15:35:07.406250,160.67
15:35:07.421875,151.19
15:35:07.437500,144.56
15:35:07.453125,137.64
15:35:07.468750,124.71
15:35:07.484375,101.81
15:35:07.500000,70.50
15:35:07.515625,38.96
15:35:07.531250,16.49
15:35:07.546875,8.37
15:35:07.562500,12.07
15:35:07.578125,18.15
15:35:07.593750,15.74
15:35:07.609375,-1.13
15:35:07.625000,-30.05
15:35:07.640625,-61.65
15:35:07.656250,-83.97
15:35:07.671875,-88.96
15:35:07.687500,-75.11
15:35:07.703125,-47.79
15:35:07.718750,-16.37
15:35:07.734375,9.25
15:35:07.750000,22.18
15:35:07.765625,20.18
15:35:07.781250,5.08
15:35:07.796875,-17.89
15:35:07.812500,-43.08
15:35:07.828125,-66.72
15:35:07.843750,-87.47
15:35:07.859375,-106.24
15:35:07.875000,-123.90
15:35:07.890625,-139.68
15:35:07.906250,-150.84
15:35:07.921875,-154.00
15:35:07.937500,-147.01
15:35:07.953125,-130.76
15:35:07.968750,-108.89
15:35:07.984375,-85.37
15:35:08,-62.78
15:35:08.015625,-41.15
15:35:08.031250,-18.85
15:35:08.046875,5.45
15:35:08.062500,30.88
15:35:08.078125,53.78
15:35:08.093750,68.70
15:35:08.109375,70.69
15:35:08.125000,58.68
15:35:08.140625,36.07
15:35:08.156250,9.45
15:35:08.171875,-14.08
15:35:08.187500,-29.60
15:35:08.203125,-35.91
15:35:08.218750,-35.25
15:35:08.234375,-31.86
15:35:08.250000,-30.02
15:35:08.265625,-30.83
15:35:08.281250,-32.22
15:35:08.296875,-29.60
15:35:08.312500,-17.72
15:35:08.328125,7.61
15:35:08.343750,48.21
15:35:08.359375,103.43
15:35:08.375000,170.50
15:35:08.390625,237.62
15:35:08.406250,290.88
15:35:08.421875,317.60
15:35:08.437500,311.03
15:35:08.453125,272.62
15:35:08.468750,211.34
15:35:08.484375,140.20
15:35:08.500000,72.22
15:35:08.515625,16.84
15:35:08.531250,-22.15
15:35:08.546875,-45.29
15:35:08.562500,-56.15
15:35:08.578125,-58.90
15:35:08.593750,-56.84
15:35:08.609375,-51.63
15:35:08.625000,-44.39
15:35:08.640625,-36.28
15:35:08.656250,-28.83
15:35:08.671875,-23.76
15:35:08.687500,-21.33
15:35:08.703125,-20.60
15:35:08.718750,-19.89
15:35:08.734375,-18.05
15:35:08.750000,-14.36
15:35:08.765625,-9.42
15:35:08.781250,-4.64
15:35:08.796875,-1.57
15:35:08.812500,-1.74
15:35:08.828125,-5.61
15:35:08.843750,-13.00
15:35:08.859375,-23.14
15:35:08.875000,-35.93
15:35:08.890625,-49.95
15:35:08.906250,-64.05
15:35:08.921875,-77.13
15:35:08.937500,-88.51
15:35:08.953125,-97.90
15:35:08.968750,-105.29
15:35:08.984375,-111.03
15:35:09,-113.42
15:35:09.015625,-114.27
15:35:09.031250,-114.76
15:35:09.046875,-116.14
15:35:09.062500,-119.21
15:35:09.078125,-123.44
15:35:09.093750,-126.33
15:35:09.109375,-123.61
15:35:09.125000,-110.97
15:35:09.140625,-86.38
15:35:09.156250,-52.08
15:35:09.171875,-13.57
15:35:09.187500,21.91
15:35:09.203125,48.49
15:35:09.218750,64.03
15:35:09.234375,70.31
15:35:09.250000,71.32
15:35:09.265625,70.75
15:35:09.281250,70.33
15:35:09.296875,69.53
15:35:09.312500,67.48
15:35:09.328125,63.79
15:35:09.343750,59.17
15:35:09.359375,54.88
15:35:09.375000,51.83
15:35:09.390625,50.07
15:35:09.406250,48.74
15:35:09.421875,46.71
15:35:09.437500,42.65
15:35:09.453125,36.08
15:35:09.468750,26.86
15:35:09.484375,15.40
15:35:09.500000,2.33
15:35:09.515625,-11.24
15:35:09.531250,-23.88
15:35:09.546875,-34.18
15:35:09.562500,-41.14
15:35:09.578125,-44.70
15:35:09.593750,-45.46
15:35:09.609375,-44.66
15:35:09.625000,-42.46
15:35:09.640625,-38.50
15:35:09.656250,-32.02
15:35:09.671875,-22.46
15:35:09.687500,-10.33
15:35:09.703125,2.47
15:35:09.718750,13.09
15:35:09.734375,18.96
15:35:09.750000,18.92
15:35:09.765625,13.70
15:35:09.781250,5.43
15:35:09.796875,-3.31
15:35:09.812500,-10.46
15:35:09.828125,-15.00
15:35:09.843750,-16.84
15:35:09.859375,-16.32
15:35:09.875000,-13.92
15:35:09.890625,-10.06
15:35:09.906250,-5.12
15:35:09.921875,0.36
15:35:09.937500,5.87
15:35:09.953125,11.06
15:35:09.968750,15.78
15:35:09.984375,20.08
15:35:10,24.05
15:35:10.015625,27.71
15:35:10.031250,30.98
15:35:10.046875,33.59
15:35:10.062500,35.08
15:35:10.078125,34.85
15:35:10.093750,32.25
15:35:10.109375,26.78
15:35:10.125000,18.43
15:35:10.140625,7.88
15:35:10.156250,-3.45
15:35:10.171875,-13.75
15:35:10.187500,-21.34
15:35:10.203125,-25.20
15:35:10.218750,-25.32
15:35:10.234375,-22.61
15:35:10.250000,-18.51
15:35:10.265625,-14.44
15:35:10.281250,-11.24
15:35:10.296875,-9.10
15:35:10.312500,-7.72
15:35:10.328125,-6.89
15:35:10.343750,-6.65
15:35:10.359375,-7.48
15:35:10.375000,-10.07
15:35:10.390625,-14.79
15:35:10.406250,-21.47
15:35:10.421875,-29.48
15:35:10.437500,-38.00
15:35:10.453125,-46.46
15:35:10.468750,-54.85
15:35:10.484375,-63.20
15:35:10.500000,-71.26
15:35:10.515625,-78.14
15:35:10.531250,-82.33
15:35:10.546875,-82.26
15:35:10.562500,-77.05
15:35:10.578125,-67.03
15:35:10.593750,-53.54
15:35:10.609375,-39.36
15:35:10.625000,-27.33
15:35:10.640625,-19.19
15:35:10.656250,-15.22
15:35:10.671875,-14.38
15:35:10.687500,-14.99
15:35:10.703125,-15.54
15:35:10.718750,-15.01
15:35:10.734375,-12.69
15:35:10.750000,-8.12
15:35:10.765625,-1.06
15:35:10.781250,7.74
15:35:10.796875,16.00
15:35:10.812500,20.13
15:35:10.828125,16.53
15:35:10.843750,3.51
15:35:10.859375,-17.29
15:35:10.875000,-40.97
15:35:10.890625,-61.19
15:35:10.906250,-72.49
15:35:10.921875,-72.48
15:35:10.937500,-62.10
15:35:10.953125,-44.43
15:35:10.968750,-22.76
15:35:10.984375,0.92
15:35:11,26.04
15:35:11.015625,52.58
15:35:11.031250,79.93
15:35:11.046875,106.54
15:35:11.062500,130.38
15:35:11.078125,149.77
15:35:11.093750,164.02
15:35:11.109375,173.39
15:35:11.125000,178.48
15:35:11.140625,179.75
15:35:11.156250,177.08
15:35:11.171875,170.03
15:35:11.187500,158.48
15:35:11.203125,142.96
15:35:11.218750,124.85
15:35:11.234375,105.98
15:35:11.250000,88.13
15:35:11.265625,72.41
15:35:11.281250,59.07
15:35:11.296875,47.53
15:35:11.312500,36.74
15:35:11.328125,25.76
15:35:11.343750,14.12
15:35:11.359375,1.96
15:35:11.375000,-10.03
15:35:11.390625,-20.95
15:35:11.406250,-29.97
15:35:11.421875,-36.48
15:35:11.437500,-40.28
15:35:11.453125,-41.50
15:35:11.468750,-40.64
15:35:11.484375,-38.50
15:35:11.500000,-36.10
15:35:11.515625,-34.45
15:35:11.531250,-34.25
15:35:11.546875,-35.68
15:35:11.562500,-38.29
15:35:11.578125,-41.27
15:35:11.593750,-43.77
15:35:11.609375,-45.22
15:35:11.625000,-45.51
15:35:11.640625,-44.90
15:35:11.656250,-43.88
15:35:11.671875,-42.91
15:35:11.687500,-42.24
15:35:11.703125,-41.84
15:35:11.718750,-41.40
15:35:11.734375,-40.48
15:35:11.750000,-38.75
15:35:11.765625,-36.17
15:35:11.781250,-33.10
15:35:11.796875,-30.16
15:35:11.812500,-28.06
15:35:11.828125,-27.20
15:35:11.843750,-27.47
15:35:11.859375,-28.29
15:35:11.875000,-28.90
15:35:11.890625,-28.69
15:35:11.906250,-27.45
15:35:11.921875,-25.37
15:35:11.937500,-22.81
15:35:11.953125,-20.02
15:35:11.968750,-17.04
15:35:11.984375,-13.73
15:35:12,-10.00
15:35:12.015625,-6.11
15:35:12.031250,-2.60
15:35:12.046875,-0.24
15:35:12.062500,0.37
15:35:12.078125,-1.00
15:35:12.093750,-4.12
15:35:12.109375,-8.42
15:35:12.125000,-13.22
15:35:12.140625,-17.91
15:35:12.156250,-21.93
15:35:12.171875,-24.62
15:35:12.187500,-25.33
15:35:12.203125,-23.56
15:35:12.218750,-19.38
15:35:12.234375,-13.72
15:35:12.250000,-8.31
15:35:12.265625,-5.13
15:35:12.281250,-5.64
15:35:12.296875,-10.09
15:35:12.312500,-17.37
15:35:12.328125,-25.61
15:35:12.343750,-33.01
15:35:12.359375,-38.64
15:35:12.375000,-42.65
15:35:12.390625,-45.86
15:35:12.406250,-48.92
15:35:12.421875,-51.74
15:35:12.437500,-53.34
15:35:12.453125,-52.41
15:35:12.468750,-48.03
15:35:12.484375,-40.22
15:35:12.500000,-30.05
15:35:12.515625,-19.31
15:35:12.531250,-9.73
15:35:12.546875,-2.50
15:35:12.562500,1.85
15:35:12.578125,3.48
15:35:12.593750,2.80
15:35:12.609375,0.35
15:35:12.625000,-3.32
15:35:12.640625,-7.47
15:35:12.656250,-11.21
15:35:12.671875,-13.55
15:35:12.687500,-13.72
15:35:12.703125,-11.44
15:35:12.718750,-7.17
15:35:12.734375,-1.87
15:35:12.750000,3.26
15:35:12.765625,7.28
15:35:12.781250,9.81
15:35:12.796875,11.03
15:35:12.812500,11.55
15:35:12.828125,12.07
15:35:12.843750,13.14
15:35:12.859375,15.03
15:35:12.875000,17.76
15:35:12.890625,21.17
15:35:12.906250,25.07
15:35:12.921875,29.29
15:35:12.937500,33.72
15:35:12.953125,38.32
15:35:12.968750,43.12
15:35:12.984375,48.11
15:35:13,53.27
15:35:13.015625,58.38
15:35:13.031250,63.02
15:35:13.046875,66.60
15:35:13.062500,68.40
15:35:13.078125,67.77
15:35:13.093750,64.34
15:35:13.109375,58.23
15:35:13.125000,50.04
15:35:13.140625,40.87
15:35:13.156250,32.01
15:35:13.171875,24.57
15:35:13.187500,19.18
15:35:13.203125,15.78
15:35:13.218750,13.70
15:35:13.234375,11.98
15:35:13.250000,9.86
15:35:13.265625,6.98
15:35:13.281250,3.38
15:35:13.296875,-0.57
15:35:13.312500,-4.55
15:35:13.328125,-8.35
15:35:13.343750,-12.01
15:35:13.359375,-15.56
15:35:13.375000,-18.94
15:35:13.390625,-21.63
15:35:13.406250,-22.93
15:35:13.421875,-22.05
15:35:13.437500,-18.49
15:35:13.453125,-12.32
15:35:13.468750,-4.26
15:35:13.484375,4.24
15:35:13.500000,11.31
15:35:13.515625,15.16
15:35:13.531250,14.85
15:35:13.546875,10.35
15:35:13.562500,2.57
15:35:13.578125,-6.80
15:35:13.593750,-15.44
15:35:13.609375,-20.63
15:35:13.625000,-19.88
15:35:13.640625,-11.72
15:35:13.656250,3.38
15:35:13.671875,22.98
15:35:13.687500,42.60
15:35:13.703125,57.05
15:35:13.718750,62.14
15:35:13.734375,56.09
15:35:13.750000,40.13
15:35:13.765625,17.68
15:35:13.781250,-7.03
15:35:13.796875,-30.39
15:35:13.812500,-49.30
15:35:13.828125,-62.33
15:35:13.843750,-69.40
15:35:13.859375,-71.28
15:35:13.875000,-69.01
15:35:13.890625,-63.32
15:35:13.906250,-54.76
15:35:13.921875,-43.80
15:35:13.937500,-31.33
15:35:13.953125,-16.85
15:35:13.968750,-0.63
15:35:13.984375,16.85
15:35:14,35.46
15:35:14.015625,56.19
15:35:14.031250,81.43
15:35:14.046875,113.47
15:35:14.062500,152.97
15:35:14.078125,197.61
15:35:14.093750,245.09
15:35:14.109375,290.42
15:35:14.125000,327.64
15:35:14.140625,352.03
15:35:14.156250,361.47
15:35:14.171875,357.69
15:35:14.187500,345.02
15:35:14.203125,329.11
15:35:14.218750,315.32
15:35:14.234375,311.68
15:35:14.250000,322.36
15:35:14.265625,347.32
15:35:14.281250,382.76
15:35:14.296875,421.63
15:35:14.312500,456.86
15:35:14.328125,482.88
15:35:14.343750,497.57
15:35:14.359375,478.74
15:35:14.375000,417.37
15:35:14.390625,318.41
15:35:14.406250,201.61
15:35:14.421875,90.35
15:35:14.437500,-1.88
15:35:14.453125,-71.82
15:35:14.468750,-122.76
15:35:14.484375,-158.86
15:35:14.500000,-183.86
15:35:14.515625,-197.45
15:35:14.531250,-204.23
15:35:14.546875,-209.12
15:35:14.562500,-215.14
15:35:14.578125,-225.13
15:35:14.593750,-239.72
15:35:14.609375,-258.81
15:35:14.625000,-280.98
15:35:14.640625,-305.10
15:35:14.656250,-315.03
15:35:14.671875,-305.17
15:35:14.687500,-289.76
15:35:14.703125,-276.58
15:35:14.718750,-271.76
15:35:14.734375,-270.87
15:35:14.750000,-272.11
15:35:14.765625,-273.74
15:35:14.781250,-274.56
15:35:14.796875,-272.46
15:35:14.812500,-272.17
15:35:14.828125,-279.54
15:35:14.843750,-297.91
15:35:14.859375,-329.34
15:35:14.875000,-373.24
15:35:14.890625,-428.45
15:35:14.906250,-492.89
15:35:14.921875,-564.56
15:35:14.937500,-618.86
15:35:14.953125,-637.64
15:35:14.968750,-611.04
15:35:14.984375,-539.92
15:35:15,-435.11
15:35:15.015625,-310.90
15:35:15.031250,-182.46
15:35:15.046875,-63.20
15:35:15.062500,36.79
15:35:15.078125,113.01
15:35:15.093750,162.72
15:35:15.109375,188.37
15:35:15.125000,196.69
15:35:15.140625,194.72
15:35:15.156250,187.95
15:35:15.171875,179.08
15:35:15.187500,169.61
15:35:15.203125,161.03
15:35:15.218750,155.19
15:35:15.234375,150.85
15:35:15.250000,146.25
15:35:15.265625,140.28
15:35:15.281250,132.48
15:35:15.296875,122.94
15:35:15.312500,112.03
15:35:15.328125,100.54
15:35:15.343750,89.67
15:35:15.359375,80.79
15:35:15.375000,73.40
15:35:15.390625,66.73
15:35:15.406250,60.27
15:35:15.421875,53.91
15:35:15.437500,47.55
15:35:15.453125,41.08
15:35:15.468750,34.56
15:35:15.484375,28.69
15:35:15.500000,24.84
15:35:15.515625,23.98
15:35:15.531250,27.05
15:35:15.546875,34.49
15:35:15.562500,46.26
15:35:15.578125,61.78
15:35:15.593750,80.47
15:35:15.609375,102.07
15:35:15.625000,126.50
15:35:15.640625,152.84
15:35:15.656250,177.67
15:35:15.671875,195.53
15:35:15.687500,198.62
15:35:15.703125,183.12
15:35:15.718750,149.75
15:35:15.734375,104.01
15:35:15.750000,53.76
15:35:15.765625,5.91
15:35:15.781250,-35.86
15:35:15.796875,-70.91
15:35:15.812500,-99.52
15:35:15.828125,-120.46
15:35:15.843750,-130.41
15:35:15.859375,-126.64
15:35:15.875000,-109.63
15:35:15.890625,-84.11
15:35:15.906250,-58.00
15:35:15.921875,-38.50
15:35:15.937500,-30.08
15:35:15.953125,-31.70
15:35:15.968750,-38.42
15:35:15.984375,-44.32
15:35:16,-45.90
15:35:16.015625,-43.27
15:35:16.031250,-39.34
15:35:16.046875,-37.66
15:35:16.062500,-40.26
15:35:16.078125,-46.65
15:35:16.093750,-53.78
15:35:16.109375,-57.81
15:35:16.125000,-55.77
15:35:16.140625,-47.12
15:35:16.156250,-34.15
15:35:16.171875,-20.44
15:35:16.187500,-9.10
15:35:16.203125,-1.39
15:35:16.218750,3.48
15:35:16.234375,7.67
15:35:16.250000,13.01
15:35:16.265625,19.81
15:35:16.281250,26.82
15:35:16.296875,31.97
15:35:16.312500,33.91
15:35:16.328125,32.77
15:35:16.343750,30.13
15:35:16.359375,27.93
15:35:16.375000,27.47
15:35:16.390625,28.91
15:35:16.406250,31.04
15:35:16.421875,32.28
15:35:16.437500,31.22
15:35:16.453125,27.54
15:35:16.468750,22.19
15:35:16.484375,17.08
15:35:16.500000,14.31
15:35:16.515625,15.54
15:35:16.531250,21.47
15:35:16.546875,31.64
15:35:16.562500,44.86
15:35:16.578125,58.90
15:35:16.593750,71.27
15:35:16.609375,79.80
15:35:16.625000,83.17
15:35:16.640625,81.25
15:35:16.656250,75.06
15:35:16.671875,66.34
15:35:16.687500,55.27
15:35:16.703125,43.68
15:35:16.718750,32.75
15:35:16.734375,22.86
15:35:16.750000,13.90
15:35:16.765625,5.75
15:35:16.781250,-1.44
15:35:16.796875,-7.36
15:35:16.812500,-11.62
15:35:16.828125,-14.03
15:35:16.843750,-14.35
15:35:16.859375,-12.92
15:35:16.875000,-10.35
15:35:16.890625,-7.37
15:35:16.906250,-4.67
15:35:16.921875,-2.73
15:35:16.937500,-1.71
15:35:16.953125,-1.48
15:35:16.968750,-1.78
15:35:16.984375,-2.22
15:35:17,-2.87
15:35:17.015625,-4.15
15:35:17.031250,-6.54
15:35:17.046875,-10.18
15:35:17.062500,-14.60
15:35:17.078125,-18.71
15:35:17.093750,-21.17
15:35:17.109375,-21.09
15:35:17.125000,-18.44
15:35:17.140625,-14.38
15:35:17.156250,-10.48
15:35:17.171875,-7.86
15:35:17.187500,-6.46
15:35:17.203125,-5.08
15:35:17.218750,-2.14
15:35:17.234375,3.32
15:35:17.250000,10.96
15:35:17.265625,19.30
15:35:17.281250,26.36
15:35:17.296875,30.69
15:35:17.312500,31.97
15:35:17.328125,30.96
15:35:17.343750,28.89
15:35:17.359375,26.71
15:35:17.375000,24.64
15:35:17.390625,22.18
15:35:17.406250,18.84
15:35:17.421875,14.35
15:35:17.437500,9.41
15:35:17.453125,5.59
15:35:17.468750,4.48
15:35:17.484375,6.83
15:35:17.500000,11.86
15:35:17.515625,17.24
15:35:17.531250,19.99
15:35:17.546875,17.82
15:35:17.562500,10.34
15:35:17.578125,-0.57
15:35:17.593750,-11.69
15:35:17.609375,-20.00
15:35:17.625000,-24.13
15:35:17.640625,-24.97
15:35:17.656250,-24.96
15:35:17.671875,-26.58
15:35:17.687500,-31.02
15:35:17.703125,-37.49
15:35:17.718750,-43.85
15:35:17.734375,-47.78
15:35:17.750000,-48.21
15:35:17.765625,-45.62
15:35:17.781250,-41.77
15:35:17.796875,-38.64
15:35:17.812500,-37.30
15:35:17.828125,-37.78
15:35:17.843750,-39.35
15:35:17.859375,-41.47
15:35:17.875000,-44.22
15:35:17.890625,-48.01
15:35:17.906250,-52.65
15:35:17.921875,-56.68
15:35:17.937500,-57.55
15:35:17.953125,-52.56
15:35:17.968750,-40.71
15:35:17.984375,-23.13
15:35:18,-3.17
15:35:18.015625,15.02
15:35:18.031250,28.10
15:35:18.046875,34.59
15:35:18.062500,34.64
15:35:18.078125,29.57
15:35:18.093750,21.15
15:35:18.109375,11.44
15:35:18.125000,2.86
15:35:18.140625,-1.84
15:35:18.156250,-0.15
15:35:18.171875,8.92
15:35:18.187500,24.29
15:35:18.203125,42.70
15:35:18.218750,59.57
15:35:18.234375,70.89
15:35:18.250000,74.40
15:35:18.265625,70.11
15:35:18.281250,59.79
15:35:18.296875,46.51
15:35:18.312500,34.11
15:35:18.328125,26.16
15:35:18.343750,24.93
15:35:18.359375,30.26
15:35:18.375000,39.19
15:35:18.390625,46.63
15:35:18.406250,47.59
15:35:18.421875,39.21
15:35:18.437500,22.01
15:35:18.453125,0.65
15:35:18.468750,-19.27
15:35:18.484375,-34.17
15:35:18.500000,-43.85
15:35:18.515625,-50.96
15:35:18.531250,-59.30
15:35:18.546875,-69.66
15:35:18.562500,-80.00
15:35:18.578125,-86.05
15:35:18.593750,-83.76
15:35:18.609375,-71.82
15:35:18.625000,-52.74
15:35:18.640625,-31.73
15:35:18.656250,-14.22
15:35:18.671875,-3.86
15:35:18.687500,-0.86
15:35:18.703125,-2.61
15:35:18.718750,-5.36
15:35:18.734375,-6.02
15:35:18.750000,-3.26
15:35:18.765625,2.30
15:35:18.781250,8.98
15:35:18.796875,15.13
15:35:18.812500,19.63
15:35:18.828125,22.17
15:35:18.843750,22.72
15:35:18.859375,21.49
15:35:18.875000,18.93
15:35:18.890625,15.85
15:35:18.906250,13.08
15:35:18.921875,11.08
15:35:18.937500,9.93
15:35:18.953125,9.29
15:35:18.968750,8.94
15:35:18.984375,9.01
15:35:19,10.35
15:35:19.015625,14.18
15:35:19.031250,21.65
15:35:19.046875,32.86
15:35:19.062500,46.56
15:35:19.078125,60.57
15:35:19.093750,72.39
15:35:19.109375,80.11
15:35:19.125000,82.98
15:35:19.140625,81.43
15:35:19.156250,74.97
15:35:19.171875,64.09
15:35:19.187500,49.40
15:35:19.203125,31.46
15:35:19.218750,11.09
15:35:19.234375,-10.13
15:35:19.250000,-29.44
15:35:19.265625,-43.22
15:35:19.281250,-48.20
15:35:19.296875,-43.15
15:35:19.312500,-29.59
15:35:19.328125,-12.16
15:35:19.343750,3.14
15:35:19.359375,11.85
15:35:19.375000,13.29
15:35:19.390625,10.70
15:35:19.406250,9.28
15:35:19.421875,13.11
15:35:19.437500,23.11
15:35:19.453125,37.15
15:35:19.468750,51.24
15:35:19.484375,61.32
15:35:19.500000,64.09
15:35:19.515625,56.75
15:35:19.531250,36.72
15:35:19.546875,2.57
15:35:19.562500,-44.05
15:35:19.578125,-96.52
15:35:19.593750,-143.76
15:35:19.609375,-173.81
15:35:19.625000,-178.76
15:35:19.640625,-158.54
15:35:19.656250,-121.07
15:35:19.671875,-78.55
15:35:19.687500,-42.00
15:35:19.703125,-17.26
15:35:19.718750,-4.28
15:35:19.734375,0.68
15:35:19.750000,1.51
15:35:19.765625,0.15
15:35:19.781250,-3.50
15:35:19.796875,-10.22
15:35:19.812500,-19.68
15:35:19.828125,-29.75
15:35:19.843750,-37.48
15:35:19.859375,-40.48
15:35:19.875000,-38.09
15:35:19.890625,-31.65
15:35:19.906250,-23.80
15:35:19.921875,-17.05
15:35:19.937500,-12.74
15:35:19.953125,-10.53
15:35:19.968750,-9.10
15:35:19.984375,-7.21
15:35:20,-4.72
15:35:20.015625,-2.88
15:35:20.031250,-3.63
15:35:20.046875,-8.48
15:35:20.062500,-17.44
15:35:20.078125,-28.59
15:35:20.093750,-38.65
15:35:20.109375,-44.28
15:35:20.125000,-43.36
15:35:20.140625,-35.79
15:35:20.156250,-23.35
15:35:20.171875,-8.97
15:35:20.187500,4.46
15:35:20.203125,15.02
15:35:20.218750,22.26
15:35:20.234375,26.95
15:35:20.250000,30.54
15:35:20.265625,34.34
15:35:20.281250,38.80
15:35:20.296875,43.36
15:35:20.312500,46.69
15:35:20.328125,47.46
15:35:20.343750,44.93
15:35:20.359375,39.43
15:35:20.375000,32.20
15:35:20.390625,24.83
15:35:20.406250,18.61
15:35:20.421875,14.05
15:35:20.437500,10.85
15:35:20.453125,8.30
15:35:20.468750,5.75
15:35:20.484375,3.07
15:35:20.500000,0.67
15:35:20.515625,-0.81
15:35:20.531250,-0.92
15:35:20.546875,0.22
15:35:20.562500,1.91
15:35:20.578125,3.19
15:35:20.593750,3.32
15:35:20.609375,2.07
15:35:20.625000,-0.17
15:35:20.640625,-2.70
15:35:20.656250,-4.91
15:35:20.671875,-6.59
15:35:20.687500,-7.93
15:35:20.703125,-9.20
15:35:20.718750,-10.50
15:35:20.734375,-11.58
15:35:20.750000,-11.99
15:35:20.765625,-11.36
15:35:20.781250,-9.62
15:35:20.796875,-7.09
15:35:20.812500,-4.32
15:35:20.828125,-1.92
15:35:20.843750,-0.29
15:35:20.859375,0.47
15:35:20.875000,0.53
15:35:20.890625,0.25
15:35:20.906250,0.06
15:35:20.921875,0.31
15:35:20.937500,1.10
15:35:20.953125,2.20
15:35:20.968750,3.17
15:35:20.984375,3.51
15:35:21,2.92
15:35:21.015625,1.49
15:35:21.031250,-0.40
15:35:21.046875,-2.18
15:35:21.062500,-3.37
15:35:21.078125,-3.77
15:35:21.093750,-3.49
15:35:21.109375,-2.91
15:35:21.125000,-2.48
15:35:21.140625,-2.63
15:35:21.156250,-3.57
15:35:21.171875,-5.34
15:35:21.187500,-7.65
15:35:21.203125,-10.02
15:35:21.218750,-11.81
15:35:21.234375,-12.44
15:35:21.250000,-11.62
15:35:21.265625,-9.41
15:35:21.281250,-6.18
15:35:21.296875,-2.49
15:35:21.312500,1.06
15:35:21.328125,3.95
15:35:21.343750,5.82
15:35:21.359375,6.50
15:35:21.375000,6.11
15:35:21.390625,5.08
15:35:21.406250,4.03
15:35:21.421875,3.55
15:35:21.437500,3.89
15:35:21.453125,4.78
15:35:21.468750,5.61
15:35:21.484375,5.75
15:35:21.500000,4.99
15:35:21.515625,3.68
15:35:21.531250,2.57
15:35:21.546875,2.26
15:35:21.562500,2.85
15:35:21.578125,3.84
15:35:21.593750,4.41
15:35:21.609375,3.94
15:35:21.625000,2.39
15:35:21.640625,0.27
15:35:21.656250,-1.66
15:35:21.671875,-2.83
15:35:21.687500,-3.10
15:35:21.703125,-2.77
15:35:21.718750,-2.33
15:35:21.734375,-2.16
15:35:21.750000,-2.39
15:35:21.765625,-2.91
15:35:21.781250,-3.48
15:35:21.796875,-3.91
15:35:21.812500,-4.10
15:35:21.828125,-4.09
15:35:21.843750,-3.92
15:35:21.859375,-3.63
15:35:21.875000,-3.15
15:35:21.890625,-2.30
15:35:21.906250,-0.86
15:35:21.921875,1.33
15:35:21.937500,4.33
15:35:21.953125,7.99
15:35:21.968750,11.92
15:35:21.984375,15.57
15:35:22,18.39
15:35:22.015625,19.98
15:35:22.031250,20.28
15:35:22.046875,19.58
15:35:22.062500,18.40
15:35:22.078125,17.30
15:35:22.093750,16.60
15:35:22.109375,16.30
15:35:22.125000,16.10
15:35:22.140625,15.51
15:35:22.156250,14.14
15:35:22.171875,11.77
15:35:22.187500,8.41
15:35:22.203125,4.28
15:35:22.218750,-0.32
15:35:22.234375,-5.12
15:35:22.250000,-9.90
15:35:22.265625,-14.37
15:35:22.281250,-18.18
15:35:22.296875,-20.90
15:35:22.312500,-22.06
15:35:22.328125,-21.41
15:35:22.343750,-19.03
15:35:22.359375,-15.46
15:35:22.375000,-11.53
15:35:22.390625,-8.03
15:35:22.406250,-5.26
15:35:22.421875,-2.92
15:35:22.437500,-0.24
15:35:22.453125,3.44
15:35:22.468750,8.14
15:35:22.484375,13.01
15:35:22.500000,16.62
15:35:22.515625,17.63
15:35:22.531250,15.46
15:35:22.546875,10.66
15:35:22.562500,4.65
15:35:22.578125,-0.87
15:35:22.593750,-4.62
15:35:22.609375,-6.06
15:35:22.625000,-5.39
15:35:22.640625,-3.20
15:35:22.656250,-0.18
15:35:22.671875,3.16
15:35:22.687500,6.39
15:35:22.703125,9.13
15:35:22.718750,10.96
15:35:22.734375,11.50
15:35:22.750000,10.53
15:35:22.765625,8.15
15:35:22.781250,4.86
15:35:22.796875,1.49
15:35:22.812500,-0.99
15:35:22.828125,-1.78
15:35:22.843750,-0.63
15:35:22.859375,1.99
15:35:22.875000,5.00
15:35:22.890625,7.11
15:35:22.906250,7.36
15:35:22.921875,5.56
15:35:22.937500,2.42
15:35:22.953125,-0.77
15:35:22.968750,-2.74
15:35:22.984375,-2.76
15:35:23,-0.88
15:35:23.015625,2.18
15:35:23.031250,5.48
15:35:23.046875,8.23
15:35:23.062500,10.01
15:35:23.078125,10.79
15:35:23.093750,10.75
15:35:23.109375,10.11
15:35:23.125000,9.08
15:35:23.140625,7.84
15:35:23.156250,6.60
15:35:23.171875,5.55
15:35:23.187500,4.85
15:35:23.203125,4.49
15:35:23.218750,4.28
15:35:23.234375,3.88
15:35:23.250000,2.89
15:35:23.265625,1.02
15:35:23.281250,-1.78
15:35:23.296875,-5.23
15:35:23.312500,-8.79
15:35:23.328125,-11.80
15:35:23.343750,-13.72
15:35:23.359375,-14.22
15:35:23.375000,-13.30
15:35:23.390625,-11.15
15:35:23.406250,-8.16
15:35:23.421875,-4.78
15:35:23.437500,-1.47
15:35:23.453125,1.32
15:35:23.468750,3.28
15:35:23.484375,4.31
15:35:23.500000,4.64
15:35:23.515625,4.73
15:35:23.531250,5.06
15:35:23.546875,5.88
15:35:23.562500,6.98
15:35:23.578125,7.75
15:35:23.593750,7.45
15:35:23.609375,5.59
15:35:23.625000,2.20
15:35:23.640625,-2.11
15:35:23.656250,-6.39
15:35:23.671875,-9.65
15:35:23.687500,-11.24
15:35:23.703125,-10.97
15:35:23.718750,-9.17
15:35:23.734375,-6.46
15:35:23.750000,-3.56
15:35:23.765625,-1.04
15:35:23.781250,0.76
15:35:23.796875,1.71
15:35:23.812500,1.89
15:35:23.828125,1.53
15:35:23.843750,0.95
15:35:23.859375,0.57
15:35:23.875000,0.72
15:35:23.890625,1.47
15:35:23.906250,2.41
15:35:23.921875,2.68
15:35:23.937500,1.20
15:35:23.953125,-2.79
15:35:23.968750,-9.23
15:35:23.984375,-16.95
15:35:24,-23.90
15:35:24.015625,-27.88
15:35:24.031250,-27.38
15:35:24.046875,-22.13
15:35:24.062500,-13.24
15:35:24.078125,-2.66
15:35:24.093750,7.48
15:35:24.109375,15.66
15:35:24.125000,21.19
15:35:24.140625,24.20
15:35:24.156250,25.20
15:35:24.171875,24.79
15:35:24.187500,23.40
15:35:24.203125,21.37
15:35:24.218750,19.04
15:35:24.234375,16.84
15:35:24.250000,15.21
15:35:24.265625,14.44
15:35:24.281250,14.46
15:35:24.296875,14.86
15:35:24.312500,15.04
15:35:24.328125,14.61
15:35:24.343750,13.58
15:35:24.359375,12.46
15:35:24.375000,11.97
15:35:24.390625,12.72
15:35:24.406250,14.82
15:35:24.421875,17.77
15:35:24.437500,20.67
15:35:24.453125,22.55
15:35:24.468750,22.72
15:35:24.484375,20.99
15:35:24.500000,17.65
15:35:24.515625,13.33
15:35:24.531250,8.73
15:35:24.546875,4.43
15:35:24.562500,0.65
15:35:24.578125,-2.66
15:35:24.593750,-5.76
15:35:24.609375,-8.87
15:35:24.625000,-12.00
15:35:24.640625,-14.82
15:35:24.656250,-16.83
15:35:24.671875,-17.63
15:35:24.687500,-17.13
15:35:24.703125,-15.62
15:35:24.718750,-13.60
15:35:24.734375,-11.47
15:35:24.750000,-9.30
15:35:24.765625,-6.95
15:35:24.781250,-4.26
15:35:24.796875,-1.38
15:35:24.812500,1.37
15:35:24.828125,3.66
15:35:24.843750,5.56
15:35:24.859375,7.63
15:35:24.875000,10.70
15:35:24.890625,15.34
15:35:24.906250,21.40
15:35:24.921875,27.83
15:35:24.937500,33.07
15:35:24.953125,35.63
15:35:24.968750,34.67
15:35:24.984375,30.19
15:35:25,23.04
15:35:25.015625,14.55
15:35:25.031250,6.17
15:35:25.046875,-0.82
15:35:25.062500,-5.57
15:35:25.078125,-7.69
15:35:25.093750,-7.22
15:35:25.109375,-4.68
15:35:25.125000,-1.04
15:35:25.140625,2.48
15:35:25.156250,4.62
15:35:25.171875,4.38
15:35:25.187500,1.25
15:35:25.203125,-4.52
15:35:25.218750,-11.78
15:35:25.234375,-18.61
15:35:25.250000,-22.99
15:35:25.265625,-23.73
15:35:25.281250,-20.93
15:35:25.296875,-15.91
