15:33:52,-0.00
15:33:52.015625,-0.00
15:33:52.031250,-0.00
15:33:52.046875,-0.00
15:33:52.062500,-0.00
15:33:52.078125,-0.00
15:33:52.093750,-0.00
15:33:52.109375,-0.00
15:33:52.125000,-0.00
15:33:52.140625,-0.00
15:33:52.156250,0.00
15:33:52.171875,0.01
15:33:52.187500,0.01
15:33:52.203125,-0.00
15:33:52.218750,-0.03
15:33:52.234375,-0.05
15:33:52.250000,-0.05
15:33:52.265625,0.00
15:33:52.281250,0.13
15:33:52.296875,0.36
15:33:52.312500,0.66
15:33:52.328125,1.01
15:33:52.343750,1.37
15:33:52.359375,1.72
15:33:52.375000,2.06
15:33:52.390625,2.40
15:33:52.406250,2.79
15:33:52.421875,3.24
15:33:52.437500,3.80
15:33:52.453125,4.42
15:33:52.468750,5.06
15:33:52.484375,5.66
15:33:52.500000,6.20
15:33:52.515625,6.68
15:33:52.531250,7.15
15:33:52.546875,7.68
15:33:52.562500,8.31
15:33:52.578125,9.14
15:33:52.593750,10.09
15:33:52.609375,11.04
15:33:52.625000,11.88
15:33:52.640625,12.56
15:33:52.656250,13.14
15:33:52.671875,13.76
15:33:52.687500,14.65
15:33:52.703125,15.96
15:33:52.718750,17.91
15:33:52.734375,20.32
15:33:52.750000,22.90
15:33:52.765625,25.38
15:33:52.781250,27.58
15:33:52.796875,29.57
15:33:52.812500,31.68
15:33:52.828125,34.32
15:33:52.843750,37.81
15:33:52.859375,42.54
15:33:52.875000,48.15
15:33:52.890625,54.10
15:33:52.906250,59.83
15:33:52.921875,64.97
15:33:52.937500,69.58
15:33:52.953125,74.14
15:33:52.968750,79.34
15:33:52.984375,85.71
15:33:53,93.76
15:33:53.015625,103.00
15:33:53.031250,112.62
15:33:53.046875,121.73
15:33:53.062500,129.77
15:33:53.078125,136.75
15:33:53.093750,143.30
15:33:53.109375,150.75
15:33:53.125000,157.77
15:33:53.140625,166.64
15:33:53.156250,177.95
15:33:53.171875,191.79
15:33:53.187500,206.97
15:33:53.203125,220.57
15:33:53.218750,228.25
15:33:53.234375,225.36
15:33:53.250000,208.53
15:33:53.265625,176.87
15:33:53.281250,132.76
15:33:53.296875,80.05
15:33:53.312500,23.07
15:33:53.328125,-34.94
15:33:53.343750,-92.44
15:33:53.359375,-149.16
15:33:53.375000,-205.23
15:33:53.390625,-260.37
15:33:53.406250,-313.74
15:33:53.421875,-363.87
15:33:53.437500,-409.83
15:33:53.453125,-450.91
15:33:53.468750,-486.50
15:33:53.484375,-515.74
15:33:53.500000,-537.23
15:33:53.515625,-549.22
15:33:53.531250,-549.96
15:33:53.546875,-538.37
15:33:53.562500,-514.21
15:33:53.578125,-478.67
15:33:53.593750,-433.88
15:33:53.609375,-382.45
15:33:53.625000,-327.02
15:33:53.640625,-269.84
15:33:53.656250,-212.63
15:33:53.671875,-156.66
15:33:53.687500,-102.95
15:33:53.703125,-52.37
15:33:53.718750,-5.90
15:33:53.734375,35.58
15:33:53.750000,71.43
15:33:53.765625,101.35
15:33:53.781250,125.50
15:33:53.796875,144.38
15:33:53.812500,158.69
15:33:53.828125,169.15
15:33:53.843750,176.37
15:33:53.859375,180.75
15:33:53.875000,182.57
15:33:53.890625,182.07
15:33:53.906250,179.51
15:33:53.921875,175.23
15:33:53.937500,169.65
15:33:53.953125,163.18
15:33:53.968750,156.15
15:33:53.984375,148.81
15:33:54,141.30
15:33:54.015625,133.69
15:33:54.031250,126.02
15:33:54.046875,118.33
15:33:54.062500,110.69
15:33:54.078125,103.16
15:33:54.093750,95.80
15:33:54.109375,88.68
15:33:54.125000,81.83
15:33:54.140625,75.25
15:33:54.156250,68.95
15:33:54.171875,62.95
15:33:54.187500,57.25
15:33:54.203125,51.86
15:33:54.218750,46.78
15:33:54.234375,42.03
15:33:54.250000,37.59
15:33:54.265625,33.45
15:33:54.281250,29.61
15:33:54.296875,26.07
15:33:54.312500,22.81
15:33:54.328125,19.83
15:33:54.343750,17.11
15:33:54.359375,14.67
15:33:54.375000,12.48
15:33:54.390625,10.54
15:33:54.406250,8.83
15:33:54.421875,7.35
15:33:54.437500,6.07
15:33:54.453125,4.97
15:33:54.468750,4.05
15:33:54.484375,3.27
15:33:54.500000,2.62
15:33:54.515625,2.09
15:33:54.531250,1.65
15:33:54.546875,1.30
15:33:54.562500,1.01
15:33:54.578125,0.79
15:33:54.593750,0.61
15:33:54.609375,0.47
15:33:54.625000,0.37
15:33:54.640625,0.29
15:33:54.656250,0.23
15:33:54.671875,0.20
15:33:54.687500,0.17
15:33:54.703125,0.16
15:33:54.718750,0.16
15:33:54.734375,0.17
15:33:54.750000,0.19
15:33:54.765625,0.21
15:33:54.781250,0.24
15:33:54.796875,0.28
15:33:54.812500,0.32
15:33:54.828125,0.36
15:33:54.843750,0.40
15:33:54.859375,0.44
15:33:54.875000,0.49
15:33:54.890625,0.54
15:33:54.906250,0.58
15:33:54.921875,0.63
15:33:54.937500,0.69
15:33:54.953125,0.75
15:33:54.968750,0.81
15:33:54.984375,0.88
15:33:55,0.95
15:33:55.015625,1.03
15:33:55.031250,1.12
15:33:55.046875,1.22
15:33:55.062500,1.34
15:33:55.078125,1.46
15:33:55.093750,1.61
15:33:55.109375,1.77
15:33:55.125000,1.94
15:33:55.140625,2.14
15:33:55.156250,2.36
15:33:55.171875,2.60
15:33:55.187500,2.87
15:33:55.203125,3.16
15:33:55.218750,3.48
15:33:55.234375,3.83
15:33:55.250000,4.22
15:33:55.265625,4.63
15:33:55.281250,5.08
15:33:55.296875,5.56
15:33:55.312500,6.08
15:33:55.328125,6.64
15:33:55.343750,7.23
15:33:55.359375,7.86
15:33:55.375000,8.53
15:33:55.390625,9.24
15:33:55.406250,9.99
15:33:55.421875,10.78
15:33:55.437500,11.61
15:33:55.453125,12.47
15:33:55.468750,13.39
15:33:55.484375,14.36
15:33:55.500000,15.40
15:33:55.515625,16.50
15:33:55.531250,17.66
15:33:55.546875,18.85
15:33:55.562500,20.03
15:33:55.578125,21.14
15:33:55.593750,22.09
15:33:55.609375,22.78
15:33:55.625000,23.08
15:33:55.640625,22.89
15:33:55.656250,22.07
15:33:55.671875,20.55
15:33:55.687500,18.28
15:33:55.703125,15.28
15:33:55.718750,11.64
15:33:55.734375,7.43
15:33:55.750000,2.87
15:33:55.765625,-1.84
15:33:55.781250,-6.50
15:33:55.796875,-10.89
15:33:55.812500,-14.84
15:33:55.828125,-18.21
15:33:55.843750,-20.91
15:33:55.859375,-22.86
15:33:55.875000,-24.10
15:33:55.890625,-24.69
15:33:55.906250,-24.73
15:33:55.921875,-24.34
15:33:55.937500,-23.61
15:33:55.953125,-22.66
15:33:55.968750,-21.54
15:33:55.984375,-20.26
15:33:56,-18.84
15:33:56.015625,-17.31
15:33:56.031250,-15.72
15:33:56.046875,-14.08
15:33:56.062500,-12.41
15:33:56.078125,-10.63
15:33:56.093750,-8.86
15:33:56.109375,-7.08
15:33:56.125000,-5.21
15:33:56.140625,-3.21
15:33:56.156250,-1.06
15:33:56.171875,1.19
15:33:56.187500,3.56
15:33:56.203125,6.05
15:33:56.218750,8.76
15:33:56.234375,11.43
15:33:56.250000,14.09
15:33:56.265625,16.88
15:33:56.281250,19.93
15:33:56.296875,23.23
15:33:56.312500,26.73
15:33:56.328125,30.34
15:33:56.343750,34.13
15:33:56.359375,38.29
15:33:56.375000,42.48
15:33:56.390625,46.83
15:33:56.406250,51.53
15:33:56.421875,56.46
15:33:56.437500,61.11
15:33:56.453125,64.69
15:33:56.468750,66.43
15:33:56.484375,65.75
15:33:56.500000,62.53
15:33:56.515625,56.12
15:33:56.531250,46.69
15:33:56.546875,34.57
15:33:56.562500,19.88
15:33:56.578125,2.39
15:33:56.593750,-18.22
15:33:56.609375,-42.06
15:33:56.625000,-68.88
15:33:56.640625,-92.23
15:33:56.656250,-110.50
15:33:56.671875,-123.38
15:33:56.687500,-131.49
15:33:56.703125,-135.89
15:33:56.718750,-137.83
15:33:56.734375,-138.24
15:33:56.750000,-137.43
15:33:56.765625,-135.45
15:33:56.781250,-132.64
15:33:56.796875,-130.98
15:33:56.812500,-132.18
15:33:56.828125,-136.68
15:33:56.843750,-142.28
15:33:56.859375,-144.23
15:33:56.875000,-136.63
15:33:56.890625,-115.35
15:33:56.906250,-80.67
15:33:56.921875,-37.65
15:33:56.937500,5.33
15:33:56.953125,41.30
15:33:56.968750,66.95
15:33:56.984375,82.76
15:33:57,90.71
15:33:57.015625,91.69
15:33:57.031250,84.71
15:33:57.046875,67.88
15:33:57.062500,41.11
15:33:57.078125,7.51
15:33:57.093750,-26.64
15:33:57.109375,-54.88
15:33:57.125000,-73.91
15:33:57.140625,-84.99
15:33:57.156250,-92.35
15:33:57.171875,-99.78
15:33:57.187500,-107.71
15:33:57.203125,-112.37
15:33:57.218750,-107.97
15:33:57.234375,-90.44
15:33:57.250000,-60.28
15:33:57.265625,-22.83
15:33:57.281250,14.18
15:33:57.296875,44.06
15:33:57.312500,63.76
15:33:57.328125,74.10
15:33:57.343750,78.32
15:33:57.359375,79.82
15:33:57.375000,80.31
15:33:57.390625,79.89
15:33:57.406250,78.41
15:33:57.421875,76.82
15:33:57.437500,77.56
15:33:57.453125,83.78
15:33:57.468750,97.87
15:33:57.484375,117.81
15:33:57.500000,140.88
15:33:57.515625,163.77
15:33:57.531250,183.68
15:33:57.546875,199.05
15:33:57.562500,209.73
15:33:57.578125,216.80
15:33:57.593750,222.50
15:33:57.609375,229.84
15:33:57.625000,241.64
15:33:57.640625,259.33
15:33:57.656250,280.94
15:33:57.671875,300.73
15:33:57.687500,310.77
15:33:57.703125,303.99
15:33:57.718750,277.34
15:33:57.734375,233.22
15:33:57.750000,178.28
15:33:57.765625,120.13
15:33:57.781250,64.26
15:33:57.796875,12.01
15:33:57.812500,-38.28
15:33:57.828125,-88.36
15:33:57.843750,-137.41
15:33:57.859375,-181.33
15:33:57.875000,-214.51
15:33:57.890625,-232.85
15:33:57.906250,-236.08
15:33:57.921875,-227.93
15:33:57.937500,-214.55
15:33:57.953125,-201.69
15:33:57.968750,-192.44
15:33:57.984375,-186.46
15:33:58,-181.16
15:33:58.015625,-173.84
15:33:58.031250,-163.46
15:33:58.046875,-151.30
15:33:58.062500,-140.09
15:33:58.078125,-132.53
15:33:58.093750,-129.76
15:33:58.109375,-130.82
15:33:58.125000,-133.04
15:33:58.140625,-133.33
15:33:58.156250,-129.62
15:33:58.171875,-121.78
15:33:58.187500,-111.90
15:33:58.203125,-103.24
15:33:58.218750,-98.74
15:33:58.234375,-99.41
15:33:58.250000,-103.60
15:33:58.265625,-107.59
15:33:58.281250,-107.22
15:33:58.296875,-99.54
15:33:58.312500,-83.91
15:33:58.328125,-62.02
15:33:58.343750,-37.53
15:33:58.359375,-15.58
15:33:58.375000,-2.22
15:33:58.390625,-3.37
15:33:58.406250,-22.97
15:33:58.421875,-60.86
15:33:58.437500,-111.50
15:33:58.453125,-164.74
15:33:58.468750,-208.91
15:33:58.484375,-234.97
15:33:58.500000,-239.78
15:33:58.515625,-226.66
15:33:58.531250,-203.05
15:33:58.546875,-176.67
15:33:58.562500,-152.39
15:33:58.578125,-131.39
15:33:58.593750,-112.42
15:33:58.609375,-93.98
15:33:58.625000,-75.73
15:33:58.640625,-58.48
15:33:58.656250,-43.07
15:33:58.671875,-29.16
15:33:58.687500,-14.98
15:33:58.703125,2.01
15:33:58.718750,23.89
15:33:58.734375,51.25
15:33:58.750000,83.12
15:33:58.765625,117.74
15:33:58.781250,153.92
15:33:58.796875,191.59
15:33:58.812500,231.43
15:33:58.828125,273.40
15:33:58.843750,315.58
15:33:58.859375,353.87
15:33:58.875000,383.16
15:33:58.890625,399.21
15:33:58.906250,400.28
15:33:58.921875,387.59
15:33:58.937500,364.42
15:33:58.953125,334.62
15:33:58.968750,301.45
15:33:58.984375,267.35
15:33:59,234.48
15:33:59.015625,205.17
15:33:59.031250,181.77
15:33:59.046875,165.90
15:33:59.062500,157.53
15:33:59.078125,154.76
15:33:59.093750,154.44
15:33:59.109375,153.50
15:33:59.125000,150.07
15:33:59.140625,144.00
15:33:59.156250,136.36
15:33:59.171875,128.57
15:33:59.187500,121.28
15:33:59.203125,113.88
15:33:59.218750,104.67
15:33:59.234375,91.73
15:33:59.250000,73.89
15:33:59.265625,51.12
15:33:59.281250,24.33
15:33:59.296875,-5.39
15:33:59.312500,-37.23
15:33:59.328125,-70.71
15:33:59.343750,-104.97
15:33:59.359375,-138.48
15:33:59.375000,-168.87
15:33:59.390625,-193.44
15:33:59.406250,-209.94
15:33:59.421875,-217.27
15:33:59.437500,-215.86
15:33:59.453125,-207.58
15:33:59.468750,-195.10
15:33:59.484375,-180.74
15:33:59.500000,-166.33
15:33:59.515625,-153.10
15:33:59.531250,-141.66
15:33:59.546875,-132.15
15:33:59.562500,-124.29
15:33:59.578125,-117.83
15:33:59.593750,-112.88
15:33:59.609375,-109.79
15:33:59.625000,-108.43
15:33:59.640625,-108.48
15:33:59.656250,-109.60
15:33:59.671875,-111.67
15:33:59.687500,-114.42
15:33:59.703125,-116.96
15:33:59.718750,-117.48
15:33:59.734375,-113.30
15:33:59.750000,-101.37
15:33:59.765625,-78.51
15:33:59.781250,-43.60
15:33:59.796875,1.17
15:33:59.812500,50.56
15:33:59.828125,97.88
15:33:59.843750,137.42
15:33:59.859375,166.17
15:33:59.875000,184.13
15:33:59.890625,189.80
15:33:59.906250,184.43
15:33:59.921875,172.16
15:33:59.937500,158.61
15:33:59.953125,148.03
15:33:59.968750,141.82
15:33:59.984375,139.40
15:34:00,139.94
15:34:00.015625,142.54
15:34:00.031250,146.73
15:34:00.046875,152.67
15:34:00.062500,159.77
15:34:00.078125,166.29
15:34:00.093750,169.98
15:34:00.109375,169.23
15:34:00.125000,164.03
15:34:00.140625,156.09
15:34:00.156250,147.50
15:34:00.171875,139.49
15:34:00.187500,133.14
15:34:00.203125,128.27
15:34:00.218750,123.33
15:34:00.234375,116.11
15:34:00.250000,105.04
15:34:00.265625,90.28
15:34:00.281250,73.92
15:34:00.296875,57.95
15:34:00.312500,44.17
15:34:00.328125,33.63
15:34:00.343750,25.34
15:34:00.359375,16.30
15:34:00.375000,2.46
15:34:00.390625,-20.29
15:34:00.406250,-55.76
15:34:00.421875,-99.41
15:34:00.437500,-148.74
15:34:00.453125,-200.69
15:34:00.468750,-250.68
15:34:00.484375,-292.76
15:34:00.500000,-320.69
15:34:00.515625,-330.07
15:34:00.531250,-320.67
15:34:00.546875,-297.17
15:34:00.562500,-267.70
15:34:00.578125,-241.57
15:34:00.593750,-224.18
15:34:00.609375,-215.30
15:34:00.625000,-210.37
15:34:00.640625,-203.74
15:34:00.656250,-191.86
15:34:00.671875,-174.51
15:34:00.687500,-153.48
15:34:00.703125,-130.19
15:34:00.718750,-104.92
15:34:00.734375,-75.91
15:34:00.750000,-41.25
15:34:00.765625,-1.07
15:34:00.781250,41.54
15:34:00.796875,81.24
15:34:00.812500,112.15
15:34:00.828125,130.04
15:34:00.843750,133.72
15:34:00.859375,124.86
15:34:00.875000,107.96
15:34:00.890625,88.78
15:34:00.906250,72.34
15:34:00.921875,61.17
15:34:00.937500,54.62
15:34:00.953125,49.59
15:34:00.968750,42.53
15:34:00.984375,31.70
15:34:01,18.17
15:34:01.015625,5.78
15:34:01.031250,-0.76
15:34:01.046875,1.86
15:34:01.062500,14.12
15:34:01.078125,33.72
15:34:01.093750,56.77
15:34:01.109375,79.39
15:34:01.125000,98.73
15:34:01.140625,113.11
15:34:01.156250,121.84
15:34:01.171875,124.78
15:34:01.187500,122.39
15:34:01.203125,115.62
15:34:01.218750,106.00
15:34:01.234375,95.31
15:34:01.250000,85.25
15:34:01.265625,77.09
15:34:01.281250,71.46
15:34:01.296875,68.36
15:34:01.312500,67.12
15:34:01.328125,66.45
15:34:01.343750,64.47
15:34:01.359375,59.12
15:34:01.375000,48.76
15:34:01.390625,32.75
15:34:01.406250,11.78
15:34:01.421875,-12.35
15:34:01.437500,-37.26
15:34:01.453125,-60.81
15:34:01.468750,-81.83
15:34:01.484375,-100.35
15:34:01.500000,-117.39
15:34:01.515625,-134.33
15:34:01.531250,-152.24
15:34:01.546875,-171.28
15:34:01.562500,-190.68
15:34:01.578125,-209.10
15:34:01.593750,-225.30
15:34:01.609375,-238.73
15:34:01.625000,-249.88
15:34:01.640625,-260.15
15:34:01.656250,-271.61
15:34:01.671875,-286.64
15:34:01.687500,-307.55
15:34:01.703125,-336.03
15:34:01.718750,-372.31
15:34:01.734375,-414.31
15:34:01.750000,-457.31
15:34:01.765625,-494.62
15:34:01.781250,-519.32
15:34:01.796875,-526.49
15:34:01.812500,-514.93
15:34:01.828125,-487.52
15:34:01.843750,-449.94
15:34:01.859375,-408.46
15:34:01.875000,-367.95
15:34:01.890625,-330.89
15:34:01.906250,-297.74
15:34:01.921875,-267.90
15:34:01.937500,-240.78
15:34:01.953125,-216.12
15:34:01.968750,-193.76
15:34:01.984375,-173.21
15:34:02,-153.52
15:34:02.015625,-133.64
15:34:02.031250,-112.89
15:34:02.046875,-91.43
15:34:02.062500,-70.27
15:34:02.078125,-50.88
15:34:02.093750,-34.51
15:34:02.109375,-21.78
15:34:02.125000,-12.41
15:34:02.140625,-5.46
15:34:02.156250,0.21
15:34:02.171875,5.51
15:34:02.187500,10.78
15:34:02.203125,15.91
15:34:02.218750,20.49
15:34:02.234375,24.22
15:34:02.250000,27.09
15:34:02.265625,29.36
15:34:02.281250,31.47
15:34:02.296875,33.73
15:34:02.312500,36.28
15:34:02.328125,38.98
15:34:02.343750,41.70
15:34:02.359375,44.36
15:34:02.375000,47.12
15:34:02.390625,50.28
15:34:02.406250,54.09
15:34:02.421875,58.66
15:34:02.437500,63.79
15:34:02.453125,69.25
15:34:02.468750,74.88
15:34:02.484375,80.90
15:34:02.500000,87.93
15:34:02.515625,96.78
15:34:02.531250,108.08
15:34:02.546875,121.98
15:34:02.562500,137.91
15:34:02.578125,154.92
15:34:02.593750,172.03
15:34:02.609375,188.68
15:34:02.625000,205.02
15:34:02.640625,221.77
15:34:02.656250,239.94
15:34:02.671875,260.55
15:34:02.687500,284.54
15:34:02.703125,312.64
15:34:02.718750,345.07
15:34:02.734375,380.89
15:34:02.750000,417.47
15:34:02.765625,450.52
15:34:02.781250,474.96
15:34:02.796875,486.47
15:34:02.812500,482.88
15:34:02.828125,464.64
15:34:02.843750,434.09
15:34:02.859375,394.08
15:34:02.875000,346.83
15:34:02.890625,293.79
15:34:02.906250,236.59
15:34:02.921875,178.14
15:34:02.937500,123.10
15:34:02.953125,77.07
15:34:02.968750,44.92
15:34:02.984375,29.04
15:34:03,28.61
15:34:03.015625,39.83
15:34:03.031250,57.24
15:34:03.046875,75.38
15:34:03.062500,90.14
15:34:03.078125,99.70
15:34:03.093750,104.68
15:34:03.109375,107.43
15:34:03.125000,111.00
15:34:03.140625,117.89
15:34:03.156250,129.20
15:34:03.171875,144.40
15:34:03.187500,161.73
15:34:03.203125,178.90
15:34:03.218750,193.68
15:34:03.234375,204.07
15:34:03.250000,208.45
15:34:03.265625,205.65
15:34:03.281250,195.31
15:34:03.296875,178.21
15:34:03.312500,156.43
15:34:03.328125,132.88
15:34:03.343750,110.59
15:34:03.359375,91.76
15:34:03.375000,77.23
15:34:03.390625,66.40
15:34:03.406250,57.64
15:34:03.421875,48.85
15:34:03.437500,37.93
15:34:03.453125,23.20
15:34:03.468750,3.60
15:34:03.484375,-21.32
15:34:03.500000,-51.38
15:34:03.515625,-85.84
15:34:03.531250,-123.61
15:34:03.546875,-163.24
15:34:03.562500,-203.06
15:34:03.578125,-241.28
15:34:03.593750,-276.02
15:34:03.609375,-305.60
15:34:03.625000,-328.65
15:34:03.640625,-344.20
15:34:03.656250,-351.63
15:34:03.671875,-350.70
15:34:03.687500,-341.51
15:34:03.703125,-324.68
15:34:03.718750,-301.32
15:34:03.734375,-272.98
15:34:03.750000,-241.31
15:34:03.765625,-207.83
15:34:03.781250,-173.88
15:34:03.796875,-140.86
15:34:03.812500,-110.49
15:34:03.828125,-84.71
15:34:03.843750,-65.21
15:34:03.859375,-52.54
15:34:03.875000,-45.63
15:34:03.890625,-41.83
15:34:03.906250,-37.84
15:34:03.921875,-30.92
15:34:03.937500,-19.77
15:34:03.953125,-4.91
15:34:03.968750,12.03
15:34:03.984375,29.16
15:34:04,45.19
15:34:04.015625,59.87
15:34:04.031250,74.05
15:34:04.046875,89.72
15:34:04.062500,109.43
15:34:04.078125,135.57
15:34:04.093750,169.14
15:34:04.109375,208.58
15:34:04.125000,249.17
15:34:04.140625,283.70
15:34:04.156250,304.10
15:34:04.171875,303.79
15:34:04.187500,279.68
15:34:04.203125,233.34
15:34:04.218750,170.95
15:34:04.234375,102.22
15:34:04.250000,38.49
15:34:04.265625,-9.49
15:34:04.281250,-34.01
15:34:04.296875,-32.27
15:34:04.312500,-7.06
15:34:04.328125,34.04
15:34:04.343750,80.85
15:34:04.359375,123.38
15:34:04.375000,154.39
15:34:04.390625,170.49
15:34:04.406250,172.17
15:34:04.421875,162.66
15:34:04.437500,146.62
15:34:04.453125,128.52
15:34:04.468750,111.42
15:34:04.484375,96.20
15:34:04.500000,81.51
15:34:04.515625,64.90
15:34:04.531250,44.37
15:34:04.546875,19.87
15:34:04.562500,-6.25
15:34:04.578125,-30.08
15:34:04.593750,-47.82
15:34:04.609375,-57.23
15:34:04.625000,-58.15
15:34:04.640625,-52.03
15:34:04.656250,-40.89
15:34:04.671875,-26.59
15:34:04.687500,-10.62
15:34:04.703125,5.59
15:34:04.718750,20.41
15:34:04.734375,32.21
15:34:04.750000,39.91
15:34:04.765625,43.47
15:34:04.781250,43.90
15:34:04.796875,42.72
15:34:04.812500,41.30
15:34:04.828125,40.27
15:34:04.843750,39.45
15:34:04.859375,38.10
15:34:04.875000,35.44
15:34:04.890625,30.98
15:34:04.906250,24.81
15:34:04.921875,17.44
15:34:04.937500,9.68
15:34:04.953125,2.47
15:34:04.968750,-3.29
15:34:04.984375,-6.78
15:34:05,-7.36
15:34:05.015625,-4.71
15:34:05.031250,0.82
15:34:05.046875,8.06
15:34:05.062500,15.13
15:34:05.078125,19.93
15:34:05.093750,20.92
15:34:05.109375,17.74
15:34:05.125000,11.57
15:34:05.140625,4.83
15:34:05.156250,0.30
15:34:05.171875,0.10
15:34:05.187500,4.95
15:34:05.203125,13.99
15:34:05.218750,25.13
15:34:05.234375,35.80
15:34:05.250000,43.62
15:34:05.265625,46.89
15:34:05.281250,44.71
15:34:05.296875,36.86
15:34:05.312500,23.63
15:34:05.328125,5.52
15:34:05.343750,-16.97
15:34:05.359375,-43.65
15:34:05.375000,-74.78
15:34:05.390625,-111.10
15:34:05.406250,-153.34
15:34:05.421875,-201.30
15:34:05.437500,-252.83
15:34:05.453125,-303.32
15:34:05.468750,-346.26
15:34:05.484375,-374.89
15:34:05.500000,-384.44
15:34:05.515625,-373.71
15:34:05.531250,-345.35
15:34:05.546875,-304.69
15:34:05.562500,-257.45
15:34:05.578125,-207.61
15:34:05.593750,-156.37
15:34:05.609375,-102.82
15:34:05.625000,-45.90
15:34:05.640625,13.51
15:34:05.656250,71.55
15:34:05.671875,122.10
15:34:05.687500,158.71
15:34:05.703125,176.79
15:34:05.718750,174.78
15:34:05.734375,154.26
15:34:05.750000,119.00
15:34:05.765625,73.91
15:34:05.781250,24.29
15:34:05.796875,-24.25
15:34:05.812500,-66.12
15:34:05.828125,-96.21
15:34:05.843750,-111.06
15:34:05.859375,-110.05
15:34:05.875000,-95.74
15:34:05.890625,-73.21
15:34:05.906250,-48.53
15:34:05.921875,-27.14
15:34:05.937500,-12.85
15:34:05.953125,-7.41
15:34:05.968750,-10.34
15:34:05.984375,-18.63
15:34:06,-27.16
15:34:06.015625,-30.01
15:34:06.031250,-22.73
15:34:06.046875,-4.58
15:34:06.062500,20.65
15:34:06.078125,45.94
15:34:06.093750,64.18
15:34:06.109375,71.48
15:34:06.125000,68.87
15:34:06.140625,61.39
15:34:06.156250,55.16
15:34:06.171875,54.26
15:34:06.187500,59.35
15:34:06.203125,68.44
15:34:06.218750,79.32
15:34:06.234375,91.50
15:34:06.250000,106.55
15:34:06.265625,126.58
15:34:06.281250,152.07
15:34:06.296875,180.76
15:34:06.312500,207.88
15:34:06.328125,228.00
15:34:06.343750,237.25
15:34:06.359375,234.70
15:34:06.375000,222.58
15:34:06.390625,205.09
15:34:06.406250,186.84
15:34:06.421875,171.53
15:34:06.437500,161.17
15:34:06.453125,155.96
15:34:06.468750,154.60
15:34:06.484375,154.86
15:34:06.500000,154.17
15:34:06.515625,150.33
15:34:06.531250,142.03
15:34:06.546875,129.00
15:34:06.562500,111.82
15:34:06.578125,91.44
15:34:06.593750,68.70
15:34:06.609375,44.37
15:34:06.625000,19.32
15:34:06.640625,-5.27
15:34:06.656250,-28.01
15:34:06.671875,-47.79
15:34:06.687500,-64.32
15:34:06.703125,-78.59
15:34:06.718750,-92.77
15:34:06.734375,-109.23
15:34:06.750000,-129.58
15:34:06.765625,-153.98
15:34:06.781250,-180.99
15:34:06.796875,-207.84
15:34:06.812500,-231.21
15:34:06.828125,-248.04
15:34:06.843750,-256.44
15:34:06.859375,-256.32
15:34:06.875000,-249.13
15:34:06.890625,-237.37
15:34:06.906250,-223.63
15:34:06.921875,-209.72
15:34:06.937500,-196.10
15:34:06.953125,-182.00
15:34:06.968750,-165.91
15:34:06.984375,-146.66
15:34:07,-124.49
15:34:07.015625,-100.66
15:34:07.031250,-77.14
15:34:07.046875,-55.94
15:34:07.062500,-38.39
15:34:07.078125,-24.71
15:34:07.093750,-14.24
15:34:07.109375,-5.67
15:34:07.125000,1.62
15:34:07.140625,6.38
15:34:07.156250,7.17
15:34:07.171875,3.47
15:34:07.187500,-3.54
15:34:07.203125,-10.52
15:34:07.218750,-12.69
15:34:07.234375,-5.68
15:34:07.250000,13.25
15:34:07.265625,42.70
15:34:07.281250,75.90
15:34:07.296875,105.18
15:34:07.312500,124.60
15:34:07.328125,130.87
15:34:07.343750,123.98
15:34:07.359375,106.70
15:34:07.375000,83.26
15:34:07.390625,59.54
15:34:07.406250,40.09
15:34:07.421875,25.15
15:34:07.437500,14.86
15:34:07.453125,10.04
15:34:07.468750,10.95
15:34:07.484375,17.72
15:34:07.500000,30.39
15:34:07.515625,48.70
15:34:07.531250,73.51
15:34:07.546875,103.69
15:34:07.562500,133.00
15:34:07.578125,156.24
15:34:07.593750,171.28
15:34:07.609375,177.95
15:34:07.625000,178.24
15:34:07.640625,175.30
15:34:07.656250,159.80
15:34:07.671875,127.56
15:34:07.687500,96.84
15:34:07.703125,71.97
15:34:07.718750,45.90
15:34:07.734375,15.36
15:34:07.750000,-21.52
15:34:07.765625,-65.57
15:34:07.781250,-116.54
15:34:07.796875,-172.71
15:34:07.812500,-228.53
15:34:07.828125,-277.42
15:34:07.843750,-316.11
15:34:07.859375,-341.21
15:34:07.875000,-349.98
15:34:07.890625,-343.02
15:34:07.906250,-323.19
15:34:07.921875,-294.14
15:34:07.937500,-259.09
15:34:07.953125,-219.19
15:34:07.968750,-176.22
15:34:07.984375,-135.71
15:34:08,-102.61
15:34:08.015625,-79.58
15:34:08.031250,-67.13
15:34:08.046875,-62.69
15:34:08.062500,-61.09
15:34:08.078125,-56.21
15:34:08.093750,-42.15
15:34:08.109375,-16.23
15:34:08.125000,18.79
15:34:08.140625,57.67
15:34:08.156250,94.39
15:34:08.171875,122.88
15:34:08.187500,138.43
15:34:08.203125,138.72
15:34:08.218750,123.97
15:34:08.234375,97.05
15:34:08.250000,62.26
15:34:08.265625,24.00
15:34:08.281250,-12.45
15:34:08.296875,-41.20
15:34:08.312500,-57.07
15:34:08.328125,-56.72
15:34:08.343750,-39.70
15:34:08.359375,-9.02
15:34:08.375000,29.57
15:34:08.390625,68.80
15:34:08.406250,101.59
15:34:08.421875,123.39
15:34:08.437500,133.10
15:34:08.453125,132.57
15:34:08.468750,125.23
15:34:08.484375,114.48
15:34:08.500000,102.56
15:34:08.515625,90.33
15:34:08.531250,77.76
15:34:08.546875,64.79
15:34:08.562500,51.79
15:34:08.578125,39.60
15:34:08.593750,29.04
15:34:08.609375,20.47
15:34:08.625000,13.61
15:34:08.640625,7.81
15:34:08.656250,2.48
15:34:08.671875,-2.61
15:34:08.687500,-7.34
15:34:08.703125,-11.60
15:34:08.718750,-15.60
15:34:08.734375,-19.95
15:34:08.750000,-25.26
15:34:08.765625,-31.69
15:34:08.781250,-38.57
15:34:08.796875,-44.51
15:34:08.812500,-47.90
15:34:08.828125,-47.58
15:34:08.843750,-43.38
15:34:08.859375,-36.09
15:34:08.875000,-26.94
15:34:08.890625,-16.90
15:34:08.906250,-6.07
15:34:08.921875,6.31
15:34:08.937500,21.21
15:34:08.953125,38.89
15:34:08.968750,58.17
15:34:08.984375,76.29
15:34:09,89.66
15:34:09.015625,95.03
15:34:09.031250,90.70
15:34:09.046875,77.16
15:34:09.062500,56.91
15:34:09.078125,33.54
15:34:09.093750,10.58
15:34:09.109375,-9.33
15:34:09.125000,-24.76
15:34:09.140625,-35.10
15:34:09.156250,-39.97
15:34:09.171875,-38.88
15:34:09.187500,-31.39
15:34:09.203125,-17.66
15:34:09.218750,0.93
15:34:09.234375,21.61
15:34:09.250000,40.75
15:34:09.265625,54.77
15:34:09.281250,61.22
15:34:09.296875,59.39
15:34:09.312500,50.41
15:34:09.328125,36.75
15:34:09.343750,21.47
15:34:09.359375,7.39
15:34:09.375000,-3.47
15:34:09.390625,-10.08
15:34:09.406250,-12.40
15:34:09.421875,-11.00
15:34:09.437500,-6.83
15:34:09.453125,-0.73
15:34:09.468750,6.67
15:34:09.484375,14.99
15:34:09.500000,24.03
15:34:09.515625,33.50
15:34:09.531250,42.96
15:34:09.546875,51.66
15:34:09.562500,58.63
15:34:09.578125,62.73
15:34:09.593750,62.95
15:34:09.609375,58.65
15:34:09.625000,49.88
15:34:09.640625,37.55
15:34:09.656250,23.36
15:34:09.671875,9.37
15:34:09.687500,-2.45
15:34:09.703125,-10.79
15:34:09.718750,-15.24
15:34:09.734375,-16.39
15:34:09.750000,-15.61
15:34:09.765625,-14.74
15:34:09.781250,-15.49
15:34:09.796875,-18.90
15:34:09.812500,-24.91
15:34:09.828125,-32.33
15:34:09.843750,-39.14
15:34:09.859375,-43.14
15:34:09.875000,-42.80
15:34:09.890625,-37.67
15:34:09.906250,-28.54
15:34:09.921875,-17.19
15:34:09.937500,-5.94
15:34:09.953125,2.86
15:34:09.968750,7.39
15:34:09.984375,6.54
15:34:10,0.26
15:34:10.015625,-10.34
15:34:10.031250,-23.11
15:34:10.046875,-35.39
15:34:10.062500,-44.89
15:34:10.078125,-50.41
15:34:10.093750,-52.17
15:34:10.109375,-51.32
15:34:10.125000,-49.14
15:34:10.140625,-46.25
15:34:10.156250,-42.40
15:34:10.171875,-36.98
15:34:10.187500,-29.90
15:34:10.203125,-22.12
15:34:10.218750,-15.54
15:34:10.234375,-12.28
15:34:10.250000,-13.75
15:34:10.265625,-20.12
15:34:10.281250,-30.23
15:34:10.296875,-42.03
15:34:10.312500,-53.22
15:34:10.328125,-61.70
15:34:10.343750,-65.89
15:34:10.359375,-64.92
15:34:10.375000,-58.83
15:34:10.390625,-48.64
15:34:10.406250,-36.12
15:34:10.421875,-23.48
15:34:10.437500,-12.88
15:34:10.453125,-5.93
15:34:10.468750,-3.41
15:34:10.484375,-5.05
15:34:10.500000,-9.57
15:34:10.515625,-14.98
15:34:10.531250,-19.21
15:34:10.546875,-20.90
15:34:10.562500,-20.18
15:34:10.578125,-18.70
15:34:10.593750,-18.97
15:34:10.609375,-23.01
15:34:10.625000,-31.20
15:34:10.640625,-41.98
15:34:10.656250,-52.56
15:34:10.671875,-60.19
15:34:10.687500,-63.35
15:34:10.703125,-62.09
15:34:10.718750,-57.60
15:34:10.734375,-51.46
15:34:10.750000,-45.17
15:34:10.765625,-40.01
15:34:10.781250,-37.13
15:34:10.796875,-37.38
15:34:10.812500,-41.04
15:34:10.828125,-47.37
15:34:10.843750,-54.85
15:34:10.859375,-61.89
15:34:10.875000,-67.66
15:34:10.890625,-72.65
15:34:10.906250,-78.18
15:34:10.921875,-85.31
15:34:10.937500,-93.83
15:34:10.953125,-101.78
15:34:10.968750,-106.24
15:34:10.984375,-104.49
15:34:11,-95.16
15:34:11.015625,-78.69
15:34:11.031250,-57.04
15:34:11.046875,-32.91
15:34:11.062500,-8.86
15:34:11.078125,13.09
15:34:11.093750,31.54
15:34:11.109375,45.49
15:34:11.125000,54.31
15:34:11.140625,57.78
15:34:11.156250,56.44
15:34:11.171875,51.78
15:34:11.187500,46.18
15:34:11.203125,42.36
15:34:11.218750,42.55
15:34:11.234375,47.64
15:34:11.250000,56.78
15:34:11.265625,67.56
15:34:11.281250,76.96
15:34:11.296875,82.35
15:34:11.312500,82.54
15:34:11.328125,77.98
15:34:11.343750,70.46
15:34:11.359375,62.41
15:34:11.375000,55.98
15:34:11.390625,52.46
15:34:11.406250,52.02
15:34:11.421875,53.82
15:34:11.437500,56.45
15:34:11.453125,58.49
15:34:11.468750,59.04
15:34:11.484375,57.86
15:34:11.500000,55.32
15:34:11.515625,52.01
15:34:11.531250,48.31
15:34:11.546875,44.27
15:34:11.562500,39.73
15:34:11.578125,34.64
15:34:11.593750,29.25
15:34:11.609375,24.10
15:34:11.625000,19.74
15:34:11.640625,16.35
15:34:11.656250,13.56
15:34:11.671875,10.64
15:34:11.687500,6.95
15:34:11.703125,2.51
15:34:11.718750,-1.78
15:34:11.734375,-4.37
15:34:11.750000,-3.73
15:34:11.765625,0.79
15:34:11.781250,8.50
15:34:11.796875,17.49
15:34:11.812500,25.34
15:34:11.828125,30.15
15:34:11.843750,31.22
15:34:11.859375,29.17
15:34:11.875000,25.31
15:34:11.890625,20.87
15:34:11.906250,16.54
15:34:11.921875,12.57
15:34:11.937500,9.23
15:34:11.953125,7.12
15:34:11.968750,6.91
15:34:11.984375,8.76
15:34:12,11.82
15:34:12.015625,14.41
15:34:12.031250,14.88
15:34:12.046875,12.57
15:34:12.062500,8.23
15:34:12.078125,3.71
15:34:12.093750,0.79
15:34:12.109375,0.38
15:34:12.125000,2.15
15:34:12.140625,5.00
15:34:12.156250,7.91
15:34:12.171875,10.56
15:34:12.187500,13.36
15:34:12.203125,16.92
15:34:12.218750,21.46
15:34:12.234375,26.47
15:34:12.250000,30.92
15:34:12.265625,33.80
15:34:12.281250,34.58
15:34:12.296875,33.52
15:34:12.312500,31.40
15:34:12.328125,29.14
15:34:12.343750,27.22
15:34:12.359375,25.48
15:34:12.375000,23.19
15:34:12.390625,19.45
15:34:12.406250,13.81
15:34:12.421875,6.57
15:34:12.437500,-1.14
15:34:12.453125,-7.77
15:34:12.468750,-11.99
15:34:12.484375,-13.25
15:34:12.500000,-11.96
15:34:12.515625,-9.26
15:34:12.531250,-6.54
15:34:12.546875,-4.82
15:34:12.562500,-4.48
15:34:12.578125,-5.25
15:34:12.593750,-6.53
15:34:12.609375,-7.79
15:34:12.625000,-8.83
15:34:12.640625,-9.87
15:34:12.656250,-11.33
15:34:12.671875,-13.50
15:34:12.687500,-16.32
15:34:12.703125,-19.36
15:34:12.718750,-22.02
15:34:12.734375,-23.81
15:34:12.750000,-24.66
15:34:12.765625,-24.88
15:34:12.781250,-25.17
15:34:12.796875,-26.27
15:34:12.812500,-28.70
15:34:12.828125,-32.56
15:34:12.843750,-37.50
15:34:12.859375,-42.87
15:34:12.875000,-48.00
15:34:12.890625,-52.40
15:34:12.906250,-55.95
15:34:12.921875,-58.82
15:34:12.937500,-61.30
15:34:12.953125,-63.62
15:34:12.968750,-65.76
15:34:12.984375,-67.50
15:34:13,-68.50
15:34:13.015625,-68.46
15:34:13.031250,-67.22
15:34:13.046875,-64.77
15:34:13.062500,-61.28
15:34:13.078125,-57.09
15:34:13.093750,-52.66
15:34:13.109375,-48.55
15:34:13.125000,-45.35
15:34:13.140625,-43.59
15:34:13.156250,-43.62
15:34:13.171875,-45.52
15:34:13.187500,-49.17
15:34:13.203125,-54.24
15:34:13.218750,-60.37
15:34:13.234375,-67.26
15:34:13.250000,-74.75
15:34:13.265625,-82.87
15:34:13.281250,-91.54
15:34:13.296875,-100.46
15:34:13.312500,-108.86
15:34:13.328125,-115.68
15:34:13.343750,-119.81
15:34:13.359375,-120.48
15:34:13.375000,-117.52
15:34:13.390625,-111.31
15:34:13.406250,-102.63
15:34:13.421875,-92.10
15:34:13.437500,-79.87
15:34:13.453125,-65.57
15:34:13.468750,-48.74
15:34:13.484375,-29.36
15:34:13.500000,-8.35
15:34:13.515625,12.36
15:34:13.531250,30.36
15:34:13.546875,43.52
15:34:13.562500,50.60
15:34:13.578125,51.59
15:34:13.593750,47.51
15:34:13.609375,39.84
15:34:13.625000,30.03
15:34:13.640625,19.05
15:34:13.656250,7.44
15:34:13.671875,-4.36
15:34:13.687500,-15.83
15:34:13.703125,-26.30
15:34:13.718750,-35.17
15:34:13.734375,-42.19
15:34:13.750000,-47.55
15:34:13.765625,-51.82
15:34:13.781250,-55.64
15:34:13.796875,-59.31
15:34:13.812500,-62.55
15:34:13.828125,-64.55
15:34:13.843750,-64.19
15:34:13.859375,-60.58
15:34:13.875000,-53.43
15:34:13.890625,-43.30
15:34:13.906250,-31.35
15:34:13.921875,-18.98
15:34:13.937500,-7.33
15:34:13.953125,2.97
15:34:13.968750,11.82
15:34:13.984375,19.62
15:34:14,27.12
15:34:14.015625,35.25
15:34:14.031250,44.89
15:34:14.046875,56.54
15:34:14.062500,69.95
15:34:14.078125,83.99
15:34:14.093750,96.88
15:34:14.109375,106.77
15:34:14.125000,112.47
15:34:14.140625,113.87
15:34:14.156250,111.96
15:34:14.171875,108.17
15:34:14.187500,103.77
15:34:14.203125,99.43
15:34:14.218750,95.28
15:34:14.234375,91.29
15:34:14.250000,87.76
15:34:14.265625,85.38
15:34:14.281250,84.84
15:34:14.296875,86.32
15:34:14.312500,89.06
15:34:14.328125,91.58
15:34:14.343750,92.09
15:34:14.359375,89.38
15:34:14.375000,83.41
15:34:14.390625,75.39
15:34:14.406250,67.35
15:34:14.421875,61.34
15:34:14.437500,58.60
15:34:14.453125,59.23
15:34:14.468750,62.24
15:34:14.484375,66.12
15:34:14.500000,69.32
15:34:14.515625,70.71
15:34:14.531250,69.65
15:34:14.546875,65.99
15:34:14.562500,60.04
15:34:14.578125,52.49
15:34:14.593750,44.38
15:34:14.609375,36.87
15:34:14.625000,30.97
15:34:14.640625,27.28
15:34:14.656250,25.91
15:34:14.671875,26.54
15:34:14.687500,28.67
15:34:14.703125,31.51
15:34:14.718750,33.82
15:34:14.734375,33.60
15:34:14.750000,28.21
15:34:14.765625,15.07
15:34:14.781250,-7.21
15:34:14.796875,-37.71
15:34:14.812500,-72.91
15:34:14.828125,-107.42
15:34:14.843750,-135.52
15:34:14.859375,-152.98
15:34:14.875000,-158.18
15:34:14.890625,-152.15
15:34:14.906250,-137.72
15:34:14.921875,-118.11
15:34:14.937500,-95.96
15:34:14.953125,-72.95
15:34:14.968750,-50.07
15:34:14.984375,-28.05
15:34:15,-7.50
15:34:15.015625,11.20
15:34:15.031250,28.17
15:34:15.046875,43.95
15:34:15.062500,59.11
15:34:15.078125,73.70
15:34:15.093750,86.80
15:34:15.109375,96.75
15:34:15.125000,101.83
15:34:15.140625,101.13
15:34:15.156250,95.16
15:34:15.171875,85.68
15:34:15.187500,75.05
15:34:15.203125,65.11
15:34:15.218750,56.40
15:34:15.234375,47.93
15:34:15.250000,37.74
15:34:15.265625,23.86
15:34:15.281250,5.26
15:34:15.296875,-17.73
15:34:15.312500,-43.57
15:34:15.328125,-70.42
15:34:15.343750,-96.93
15:34:15.359375,-122.50
15:34:15.375000,-146.92
15:34:15.390625,-169.51
15:34:15.406250,-188.61
15:34:15.421875,-201.67
15:34:15.437500,-206.17
15:34:15.453125,-200.75
15:34:15.468750,-185.78
15:34:15.484375,-163.20
15:34:15.500000,-135.69
15:34:15.515625,-105.79
15:34:15.531250,-75.43
15:34:15.546875,-45.94
15:34:15.562500,-18.34
15:34:15.578125,6.75
15:34:15.593750,29.27
15:34:15.609375,50.07
15:34:15.625000,70.76
15:34:15.640625,93.07
15:34:15.656250,117.95
15:34:15.671875,144.81
15:34:15.687500,171.48
15:34:15.703125,195.03
15:34:15.718750,212.77
15:34:15.734375,223.23
15:34:15.750000,226.54
15:34:15.765625,224.22
15:34:15.781250,218.52
15:34:15.796875,211.58
15:34:15.812500,204.83
15:34:15.828125,198.55
15:34:15.843750,191.75
15:34:15.859375,182.40
15:34:15.875000,167.83
15:34:15.890625,145.50
15:34:15.906250,113.85
15:34:15.921875,73.12
15:34:15.937500,25.71
15:34:15.953125,-23.95
15:34:15.968750,-70.31
15:34:15.984375,-107.85
15:34:16,-132.21
15:34:16.015625,-140.94
15:34:16.031250,-133.75
15:34:16.046875,-112.49
15:34:16.062500,-80.95
15:34:16.078125,-44.38
15:34:16.093750,-8.68
15:34:16.109375,20.82
15:34:16.125000,40.64
15:34:16.140625,49.92
15:34:16.156250,50.33
15:34:16.171875,45.09
15:34:16.187500,37.48
15:34:16.203125,29.66
15:34:16.218750,22.16
15:34:16.234375,14.36
15:34:16.250000,5.30
15:34:16.265625,-5.34
15:34:16.281250,-16.87
15:34:16.296875,-27.80
15:34:16.312500,-36.49
15:34:16.328125,-41.94
15:34:16.343750,-44.32
15:34:16.359375,-44.94
15:34:16.375000,-45.60
15:34:16.390625,-47.82
15:34:16.406250,-52.11
15:34:16.421875,-57.78
15:34:16.437500,-63.46
15:34:16.453125,-67.88
15:34:16.468750,-70.63
15:34:16.484375,-72.28
15:34:16.500000,-74.08
15:34:16.515625,-77.06
15:34:16.531250,-81.47
15:34:16.546875,-86.47
15:34:16.562500,-90.36
15:34:16.578125,-91.37
15:34:16.593750,-88.23
15:34:16.609375,-80.64
15:34:16.625000,-69.06
15:34:16.640625,-54.18
15:34:16.656250,-36.57
15:34:16.671875,-16.80
15:34:16.687500,3.98
15:34:16.703125,23.53
15:34:16.718750,38.45
15:34:16.734375,45.34
15:34:16.750000,42.42
15:34:16.765625,30.90
15:34:16.781250,14.99
15:34:16.796875,0.53
15:34:16.812500,-7.26
15:34:16.828125,-5.62
15:34:16.843750,5.18
15:34:16.859375,22.52
15:34:16.875000,42.81
15:34:16.890625,62.82
15:34:16.906250,80.21
15:34:16.921875,93.74
15:34:16.937500,103.11
15:34:16.953125,108.91
15:34:16.968750,112.47
15:34:16.984375,115.47
15:34:17,119.19
15:34:17.015625,123.83
15:34:17.031250,128.29
15:34:17.046875,130.54
15:34:17.062500,128.42
15:34:17.078125,120.56
15:34:17.093750,106.73
15:34:17.109375,87.85
15:34:17.125000,65.59
15:34:17.140625,42.01
15:34:17.156250,19.27
15:34:17.171875,-0.57
15:34:17.187500,-15.72
15:34:17.203125,-24.88
15:34:17.218750,-27.46
15:34:17.234375,-23.80
15:34:17.250000,-15.25
15:34:17.265625,-4.13
15:34:17.281250,6.63
15:34:17.296875,14.06
15:34:17.312500,15.91
15:34:17.328125,11.43
15:34:17.343750,1.78
15:34:17.359375,-10.26
15:34:17.375000,-21.28
15:34:17.390625,-28.44
15:34:17.406250,-30.55
15:34:17.421875,-28.20
15:34:17.437500,-23.11
15:34:17.453125,-17.08
15:34:17.468750,-11.13
15:34:17.484375,-5.42
15:34:17.500000,0.25
15:34:17.515625,5.76
15:34:17.531250,10.45
15:34:17.546875,13.46
15:34:17.562500,14.44
15:34:17.578125,14.03
15:34:17.593750,13.63
15:34:17.609375,14.63
15:34:17.625000,17.49
15:34:17.640625,21.29
15:34:17.656250,24.11
15:34:17.671875,24.00
15:34:17.687500,20.03
15:34:17.703125,12.77
15:34:17.718750,3.99
15:34:17.734375,-4.16
15:34:17.750000,-10.02
15:34:17.765625,-13.03
15:34:17.781250,-13.73
15:34:17.796875,-13.41
15:34:17.812500,-13.58
15:34:17.828125,-15.40
15:34:17.843750,-19.35
15:34:17.859375,-25.22
15:34:17.875000,-32.26
15:34:17.890625,-39.64
15:34:17.906250,-46.75
15:34:17.921875,-53.38
15:34:17.937500,-59.64
15:34:17.953125,-65.81
15:34:17.968750,-72.19
15:34:17.984375,-79.12
15:34:18,-86.74
15:34:18.015625,-94.84
15:34:18.031250,-102.50
15:34:18.046875,-108.03
15:34:18.062500,-109.23
15:34:18.078125,-104.18
15:34:18.093750,-92.08
15:34:18.109375,-73.85
15:34:18.125000,-52.07
15:34:18.140625,-30.15
15:34:18.156250,-11.21
15:34:18.171875,2.68
15:34:18.187500,10.91
15:34:18.203125,13.98
15:34:18.218750,13.03
15:34:18.234375,9.47
15:34:18.250000,4.70
15:34:18.265625,0.09
15:34:18.281250,-3.15
15:34:18.296875,-4.18
15:34:18.312500,-2.74
15:34:18.328125,0.79
15:34:18.343750,5.48
15:34:18.359375,10.15
15:34:18.375000,13.85
15:34:18.390625,16.25
15:34:18.406250,17.89
15:34:18.421875,19.92
15:34:18.437500,23.58
15:34:18.453125,29.61
15:34:18.468750,37.71
15:34:18.484375,46.57
15:34:18.500000,54.26
15:34:18.515625,58.82
15:34:18.531250,58.89
15:34:18.546875,54.00
15:34:18.562500,44.59
15:34:18.578125,31.85
15:34:18.593750,17.34
15:34:18.609375,2.76
15:34:18.625000,-10.44
15:34:18.640625,-21.25
15:34:18.656250,-29.36
15:34:18.671875,-35.11
15:34:18.687500,-39.35
15:34:18.703125,-42.99
15:34:18.718750,-46.50
15:34:18.734375,-49.77
15:34:18.750000,-52.21
15:34:18.765625,-53.23
15:34:18.781250,-52.51
15:34:18.796875,-50.23
15:34:18.812500,-46.97
15:34:18.828125,-43.35
15:34:18.843750,-39.96
15:34:18.859375,-37.22
15:34:18.875000,-35.42
15:34:18.890625,-34.66
15:34:18.906250,-34.71
15:34:18.921875,-34.88
15:34:18.937500,-34.12
15:34:18.953125,-31.36
15:34:18.968750,-26.00
15:34:18.984375,-18.18
15:34:19,-8.63
15:34:19.015625,1.85
15:34:19.031250,12.97
15:34:19.046875,24.97
15:34:19.062500,38.31
15:34:19.078125,53.05
15:34:19.093750,68.64
15:34:19.109375,84.18
15:34:19.125000,99.06
15:34:19.140625,113.37
15:34:19.156250,127.84
15:34:19.171875,143.07
15:34:19.187500,158.80
15:34:19.203125,173.66
15:34:19.218750,185.60
15:34:19.234375,192.80
15:34:19.250000,194.65
15:34:19.265625,191.89
15:34:19.281250,186.33
15:34:19.296875,180.16
15:34:19.312500,175.39
15:34:19.328125,173.47
15:34:19.343750,175.12
15:34:19.359375,180.19
15:34:19.375000,187.58
15:34:19.390625,195.35
15:34:19.406250,201.16
15:34:19.421875,202.89
15:34:19.437500,199.19
15:34:19.453125,189.75
15:34:19.468750,175.17
15:34:19.484375,156.52
15:34:19.500000,134.98
15:34:19.515625,111.65
15:34:19.531250,87.48
15:34:19.546875,63.38
15:34:19.562500,39.90
15:34:19.578125,17.07
15:34:19.593750,-5.84
15:34:19.609375,-30.09
15:34:19.625000,-56.76
15:34:19.640625,-85.96
15:34:19.656250,-116.41
15:34:19.671875,-145.76
15:34:19.687500,-171.32
15:34:19.703125,-191.12
15:34:19.718750,-204.56
15:34:19.734375,-212.37
15:34:19.750000,-216.03
15:34:19.765625,-216.92
15:34:19.781250,-215.85
15:34:19.796875,-212.99
15:34:19.812500,-208.20
15:34:19.828125,-201.36
15:34:19.843750,-192.38
15:34:19.859375,-181.01
15:34:19.875000,-166.88
15:34:19.890625,-149.77
15:34:19.906250,-130.34
15:34:19.921875,-110.41
15:34:19.937500,-92.70
15:34:19.953125,-79.78
15:34:19.968750,-72.83
15:34:19.984375,-70.94
15:34:20,-71.42
15:34:20.015625,-71.01
15:34:20.031250,-67.26
15:34:20.046875,-59.32
15:34:20.062500,-47.75
15:34:20.078125,-33.71
15:34:20.093750,-18.21
15:34:20.109375,-1.98
15:34:20.125000,14.18
15:34:20.140625,28.90
15:34:20.156250,40.36
15:34:20.171875,46.79
15:34:20.187500,47.41
15:34:20.203125,42.86
15:34:20.218750,34.99
15:34:20.234375,25.99
15:34:20.250000,17.46
15:34:20.265625,9.87
15:34:20.281250,2.75
15:34:20.296875,-4.58
15:34:20.312500,-12.28
15:34:20.328125,-19.71
15:34:20.343750,-25.68
15:34:20.359375,-29.17
15:34:20.375000,-29.88
15:34:20.390625,-28.58
15:34:20.406250,-26.85
15:34:20.421875,-26.46
15:34:20.437500,-28.70
15:34:20.453125,-33.76
15:34:20.468750,-40.69
15:34:20.484375,-47.84
15:34:20.500000,-53.50
15:34:20.515625,-56.59
15:34:20.531250,-56.96
15:34:20.546875,-55.23
15:34:20.562500,-52.33
15:34:20.578125,-49.05
15:34:20.593750,-45.75
15:34:20.609375,-42.64
15:34:20.625000,-39.99
15:34:20.640625,-38.37
15:34:20.656250,-38.36
15:34:20.671875,-39.95
15:34:20.687500,-42.15
15:34:20.703125,-42.99
15:34:20.718750,-40.26
15:34:20.734375,-32.56
15:34:20.750000,-20.09
15:34:20.765625,-4.66
15:34:20.781250,11.01
15:34:20.796875,24.55
15:34:20.812500,34.75
15:34:20.828125,41.82
15:34:20.843750,46.89
15:34:20.859375,51.25
15:34:20.875000,55.82
15:34:20.890625,60.93
15:34:20.906250,66.62
15:34:20.921875,72.84
15:34:20.937500,79.58
15:34:20.953125,86.79
15:34:20.968750,94.32
15:34:20.984375,101.84
15:34:21,108.93
15:34:21.015625,115.22
15:34:21.031250,120.39
15:34:21.046875,124.17
15:34:21.062500,126.35
15:34:21.078125,126.68
15:34:21.093750,124.90
15:34:21.109375,120.59
15:34:21.125000,113.33
15:34:21.140625,102.82
15:34:21.156250,89.27
15:34:21.171875,73.63
15:34:21.187500,57.50
15:34:21.203125,42.70
15:34:21.218750,30.50
15:34:21.234375,21.18
15:34:21.250000,14.01
15:34:21.265625,7.75
15:34:21.281250,1.42
15:34:21.296875,-5.24
15:34:21.312500,-11.79
15:34:21.328125,-17.55
15:34:21.343750,-22.08
15:34:21.359375,-25.46
15:34:21.375000,-28.11
15:34:21.390625,-30.43
15:34:21.406250,-32.62
15:34:21.421875,-34.65
15:34:21.437500,-36.55
15:34:21.453125,-38.57
15:34:21.468750,-41.17
15:34:21.484375,-44.79
15:34:21.500000,-49.73
15:34:21.515625,-55.88
15:34:21.531250,-62.76
15:34:21.546875,-69.55
15:34:21.562500,-75.21
15:34:21.578125,-78.75
15:34:21.593750,-79.48
15:34:21.609375,-77.30
15:34:21.625000,-72.78
15:34:21.640625,-66.96
15:34:21.656250,-60.97
15:34:21.671875,-55.67
15:34:21.687500,-51.37
15:34:21.703125,-47.95
15:34:21.718750,-45.13
15:34:21.734375,-42.75
15:34:21.750000,-41.02
15:34:21.765625,-40.33
15:34:21.781250,-40.97
15:34:21.796875,-42.90
15:34:21.812500,-45.65
15:34:21.828125,-48.55
15:34:21.843750,-50.92
15:34:21.859375,-52.40
15:34:21.875000,-52.96
15:34:21.890625,-52.91
15:34:21.906250,-52.70
15:34:21.921875,-52.77
15:34:21.937500,-53.41
15:34:21.953125,-54.68
15:34:21.968750,-56.50
15:34:21.984375,-58.73
15:34:22,-61.26
15:34:22.015625,-63.96
15:34:22.031250,-66.68
15:34:22.046875,-69.20
15:34:22.062500,-71.34
15:34:22.078125,-73.10
15:34:22.093750,-74.73
15:34:22.109375,-76.70
15:34:22.125000,-79.39
15:34:22.140625,-82.71
15:34:22.156250,-85.75
15:34:22.171875,-86.87
15:34:22.187500,-84.17
15:34:22.203125,-76.18
15:34:22.218750,-62.49
15:34:22.234375,-43.91
15:34:22.250000,-22.13
15:34:22.265625,0.99
15:34:22.281250,23.95
15:34:22.296875,45.84
15:34:22.312500,66.09
15:34:22.328125,84.14
15:34:22.343750,99.28
15:34:22.359375,110.74
15:34:22.375000,117.95
15:34:22.390625,120.90
15:34:22.406250,120.24
15:34:22.421875,117.05
15:34:22.437500,112.57
15:34:22.453125,107.84
15:34:22.468750,103.40
15:34:22.484375,99.32
15:34:22.500000,95.29
15:34:22.515625,90.86
15:34:22.531250,85.73
15:34:22.546875,79.96
15:34:22.562500,73.86
15:34:22.578125,67.87
15:34:22.593750,62.23
15:34:22.609375,56.88
15:34:22.625000,51.49
15:34:22.640625,45.69
15:34:22.656250,39.36
15:34:22.671875,32.65
15:34:22.687500,25.89
15:34:22.703125,19.34
15:34:22.718750,12.98
15:34:22.734375,6.63
15:34:22.750000,0.13
15:34:22.765625,-6.46
15:34:22.781250,-12.83
15:34:22.796875,-18.56
15:34:22.812500,-23.35
15:34:22.828125,-27.15
15:34:22.843750,-30.18
15:34:22.859375,-32.82
15:34:22.875000,-35.53
15:34:22.890625,-38.76
15:34:22.906250,-42.80
15:34:22.921875,-47.73
15:34:22.937500,-53.29
15:34:22.953125,-58.92
15:34:22.968750,-63.83
15:34:22.984375,-67.34
15:34:23,-69.12
15:34:23.015625,-69.33
15:34:23.031250,-68.47
15:34:23.046875,-67.15
15:34:23.062500,-65.87
15:34:23.078125,-65.00
15:34:23.093750,-64.89
15:34:23.109375,-66.05
15:34:23.125000,-68.98
15:34:23.140625,-73.82
15:34:23.156250,-79.97
15:34:23.171875,-86.10
15:34:23.187500,-90.55
15:34:23.203125,-92.02
15:34:23.218750,-90.10
15:34:23.234375,-85.30
15:34:23.250000,-78.58
15:34:23.265625,-70.78
15:34:23.281250,-62.22
15:34:23.296875,-52.87
15:34:23.312500,-42.81
15:34:23.328125,-32.63
15:34:23.343750,-23.41
15:34:23.359375,-16.18
15:34:23.375000,-11.28
15:34:23.390625,-8.13
15:34:23.406250,-5.51
15:34:23.421875,-2.22
15:34:23.437500,2.38
15:34:23.453125,8.12
15:34:23.468750,14.33
15:34:23.484375,20.26
15:34:23.500000,25.36
15:34:23.515625,29.34
15:34:23.531250,32.03
15:34:23.546875,33.33
15:34:23.562500,33.37
15:34:23.578125,32.63
15:34:23.593750,31.98
15:34:23.609375,32.38
15:34:23.625000,34.40
15:34:23.640625,37.90
15:34:23.656250,42.11
15:34:23.671875,46.09
15:34:23.687500,49.25
15:34:23.703125,51.66
15:34:23.718750,53.80
15:34:23.734375,56.14
15:34:23.750000,58.77
15:34:23.765625,61.34
15:34:23.781250,63.26
15:34:23.796875,64.15
15:34:23.812500,63.92
15:34:23.828125,62.77
15:34:23.843750,60.98
15:34:23.859375,58.75
15:34:23.875000,56.22
15:34:23.890625,53.54
15:34:23.906250,50.95
15:34:23.921875,48.68
15:34:23.937500,46.84
15:34:23.953125,45.34
15:34:23.968750,43.90
15:34:23.984375,42.24
15:34:24,40.21
15:34:24.015625,37.82
15:34:24.031250,35.33
15:34:24.046875,32.98
15:34:24.062500,30.98
15:34:24.078125,29.52
15:34:24.093750,28.75
15:34:24.109375,28.82
15:34:24.125000,29.72
15:34:24.140625,31.10
15:34:24.156250,32.31
15:34:24.171875,32.58
15:34:24.187500,31.42
15:34:24.203125,28.90
15:34:24.218750,25.59
15:34:24.234375,22.20
15:34:24.250000,19.15
15:34:24.265625,16.38
15:34:24.281250,13.43
15:34:24.296875,9.95
15:34:24.312500,6.01
15:34:24.328125,2.18
15:34:24.343750,-0.82
15:34:24.359375,-2.66
15:34:24.375000,-3.72
15:34:24.390625,-4.91
15:34:24.406250,-7.15
15:34:24.421875,-10.89
15:34:24.437500,-15.85
15:34:24.453125,-21.21
15:34:24.468750,-26.14
15:34:24.484375,-30.10
15:34:24.500000,-33.05
15:34:24.515625,-35.32
15:34:24.531250,-37.34
15:34:24.546875,-39.41
15:34:24.562500,-41.50
15:34:24.578125,-43.34
15:34:24.593750,-44.45
15:34:24.609375,-44.31
15:34:24.625000,-42.52
15:34:24.640625,-38.95
15:34:24.656250,-33.88
15:34:24.671875,-27.97
15:34:24.687500,-22.20
15:34:24.703125,-17.71
15:34:24.718750,-15.54
15:34:24.734375,-16.42
15:34:24.750000,-20.58
15:34:24.765625,-27.54
15:34:24.781250,-36.12
15:34:24.796875,-44.68
15:34:24.812500,-51.72
15:34:24.828125,-56.41
15:34:24.843750,-58.95
15:34:24.859375,-60.25
15:34:24.875000,-61.27
15:34:24.890625,-62.37
15:34:24.906250,-62.64
15:34:24.921875,-60.05
15:34:24.937500,-52.17
15:34:24.953125,-36.98
15:34:24.968750,-13.91
15:34:24.984375,15.65
15:34:25,48.43
15:34:25.015625,80.39
15:34:25.031250,107.96
15:34:25.046875,129.28
15:34:25.062500,144.65
15:34:25.078125,156.14
15:34:25.093750,166.52
15:34:25.109375,178.04
15:34:25.125000,191.45
15:34:25.140625,205.73
15:34:25.156250,218.47
15:34:25.171875,226.62
15:34:25.187500,227.36
15:34:25.203125,218.69
15:34:25.218750,199.90
15:34:25.234375,171.78
15:34:25.250000,136.58
15:34:25.265625,97.55
15:34:25.281250,58.31
15:34:25.296875,22.16
15:34:25.312500,-8.47
15:34:25.328125,-32.24
15:34:25.343750,-48.83
15:34:25.359375,-58.76
15:34:25.375000,-63.24
15:34:25.390625,-64.15
15:34:25.406250,-63.43
15:34:25.421875,-62.73
15:34:25.437500,-63.01
15:34:25.453125,-64.43
15:34:25.468750,-66.42
15:34:25.484375,-68.12
15:34:25.500000,-68.87
15:34:25.515625,-68.46
15:34:25.531250,-67.25
15:34:25.546875,-65.85
15:34:25.562500,-64.88
15:34:25.578125,-64.58
15:34:25.593750,-64.71
15:34:25.609375,-64.68
15:34:25.625000,-63.78
15:34:25.640625,-61.55
15:34:25.656250,-57.98
15:34:25.671875,-53.50
15:34:25.687500,-48.74
15:34:25.703125,-44.34
15:34:25.718750,-40.68
15:34:25.734375,-37.77
15:34:25.750000,-35.38
15:34:25.765625,-33.13
15:34:25.781250,-30.74
15:34:25.796875,-28.14
15:34:25.812500,-25.45
15:34:25.828125,-22.92
15:34:25.843750,-20.84
15:34:25.859375,-19.44
15:34:25.875000,-18.76
15:34:25.890625,-18.75
15:34:25.906250,-19.26
15:34:25.921875,-20.16
15:34:25.937500,-21.30
15:34:25.953125,-22.51
15:34:25.968750,-23.53
15:34:25.984375,-24.05
15:34:26,-23.75
15:34:26.015625,-22.44
15:34:26.031250,-20.19
15:34:26.046875,-17.40
15:34:26.062500,-14.72
15:34:26.078125,-13.00
15:34:26.093750,-12.97
15:34:26.109375,-15.14
15:34:26.125000,-19.54
15:34:26.140625,-25.72
15:34:26.156250,-32.86
15:34:26.171875,-39.98
15:34:26.187500,-46.22
15:34:26.203125,-51.06
15:34:26.218750,-54.39
15:34:26.234375,-56.43
15:34:26.250000,-57.55
15:34:26.265625,-58.14
15:34:26.281250,-58.48
15:34:26.296875,-58.81
15:34:26.312500,-59.30
15:34:26.328125,-59.98
15:34:26.343750,-60.68
15:34:26.359375,-61.02
15:34:26.375000,-60.51
15:34:26.390625,-58.72
15:34:26.406250,-55.47
15:34:26.421875,-50.99
15:34:26.437500,-45.75
15:34:26.453125,-40.32
15:34:26.468750,-35.12
15:34:26.484375,-30.32
15:34:26.500000,-25.86
15:34:26.515625,-21.63
15:34:26.531250,-17.56
15:34:26.546875,-13.73
15:34:26.562500,-10.29
15:34:26.578125,-7.33
15:34:26.593750,-4.81
15:34:26.609375,-2.61
15:34:26.625000,-0.57
15:34:26.640625,1.36
15:34:26.656250,3.10
15:34:26.671875,4.46
15:34:26.687500,5.28
15:34:26.703125,5.54
15:34:26.718750,5.37
15:34:26.734375,5.06
15:34:26.750000,4.90
15:34:26.765625,5.07
15:34:26.781250,5.58
15:34:26.796875,6.26
15:34:26.812500,6.83
15:34:26.828125,7.02
15:34:26.843750,6.60
15:34:26.859375,5.40
15:34:26.875000,3.36
15:34:26.890625,0.49
15:34:26.906250,-3.05
15:34:26.921875,-7.01
15:34:26.937500,-11.05
15:34:26.953125,-14.78
15:34:26.968750,-17.78
15:34:26.984375,-19.75
15:34:27,-20.47
15:34:27.015625,-19.91
15:34:27.031250,-18.21
15:34:27.046875,-15.71
15:34:27.062500,-12.81
15:34:27.078125,-9.92
15:34:27.093750,-7.39
15:34:27.109375,-5.37
15:34:27.125000,-3.81
15:34:27.140625,-2.51
15:34:27.156250,-1.21
15:34:27.171875,0.30
15:34:27.187500,2.04
15:34:27.203125,3.84
15:34:27.218750,5.39
15:34:27.234375,6.40
15:34:27.250000,6.80
15:34:27.265625,6.78
15:34:27.281250,6.73
15:34:27.296875,7.06
15:34:27.312500,7.95
15:34:27.328125,9.26
15:34:27.343750,10.56
15:34:27.359375,11.43
15:34:27.375000,11.64
15:34:27.390625,11.24
15:34:27.406250,10.52
15:34:27.421875,9.69
15:34:27.437500,8.84
15:34:27.453125,7.77
15:34:27.468750,6.26
15:34:27.484375,4.22
15:34:27.500000,1.82
15:34:27.515625,-0.53
15:34:27.531250,-2.38
15:34:27.546875,-3.56
15:34:27.562500,-4.24
15:34:27.578125,-4.89
15:34:27.593750,-6.05
15:34:27.609375,-8.02
15:34:27.625000,-10.57
15:34:27.640625,-13.07
15:34:27.656250,-14.62
15:34:27.671875,-14.49
15:34:27.687500,-12.37
15:34:27.703125,-8.50
15:34:27.718750,-3.51
15:34:27.734375,1.73
15:34:27.750000,6.39
15:34:27.765625,9.88
15:34:27.781250,11.87
15:34:27.796875,12.44
15:34:27.812500,12.08
15:34:27.828125,11.60
15:34:27.843750,11.90
15:34:27.859375,13.48
15:34:27.875000,15.98
15:34:27.890625,17.98
15:34:27.906250,17.37
15:34:27.921875,12.45
15:34:27.937500,3.10
15:34:27.953125,-8.42
15:34:27.968750,-17.99
15:34:27.984375,-20.97
15:34:28,-14.15
15:34:28.015625,2.96
15:34:28.031250,28.11
15:34:28.046875,57.36
15:34:28.062500,86.67
15:34:28.078125,113.00
15:34:28.093750,134.68
15:34:28.109375,151.10
15:34:28.125000,162.35
15:34:28.140625,169.04
15:34:28.156250,172.16
15:34:28.171875,172.70
15:34:28.187500,170.90
15:34:28.203125,165.81
15:34:28.218750,155.52
15:34:28.234375,138.30
15:34:28.250000,114.11
15:34:28.265625,85.25
15:34:28.281250,55.94
15:34:28.296875,30.82
15:34:28.312500,13.23
15:34:28.328125,4.07
15:34:28.343750,1.51
15:34:28.359375,1.64
15:34:28.375000,-0.31
15:34:28.390625,-8.40
15:34:28.406250,-24.72
15:34:28.421875,-48.36
15:34:28.437500,-75.69
15:34:28.453125,-101.75
15:34:28.468750,-122.47
15:34:28.484375,-136.57
15:34:28.500000,-146.07
15:34:28.515625,-155.11
15:34:28.531250,-167.78
15:34:28.546875,-186.26
15:34:28.562500,-210.07
15:34:28.578125,-236.69
15:34:28.593750,-262.74
15:34:28.609375,-285.09
15:34:28.625000,-301.37
15:34:28.640625,-310.02
15:34:28.656250,-310.52
15:34:28.671875,-303.47
15:34:28.687500,-290.78
15:34:28.703125,-275.22
15:34:28.718750,-259.75
15:34:28.734375,-246.75
15:34:28.750000,-237.52
15:34:28.765625,-232.23
15:34:28.781250,-230.13
15:34:28.796875,-229.79
15:34:28.812500,-229.37
15:34:28.828125,-226.86
15:34:28.843750,-220.45
15:34:28.859375,-209.11
15:34:28.875000,-192.89
15:34:28.890625,-172.86
15:34:28.906250,-150.83
15:34:28.921875,-128.71
15:34:28.937500,-108.06
15:34:28.953125,-89.73
15:34:28.968750,-74.02
15:34:28.984375,-60.87
15:34:29,-50.28
15:34:29.015625,-42.35
15:34:29.031250,-37.45
15:34:29.046875,-35.76
15:34:29.062500,-37.38
15:34:29.078125,-42.20
15:34:29.093750,-49.84
15:34:29.109375,-59.61
15:34:29.125000,-70.29
15:34:29.140625,-80.44
15:34:29.156250,-88.71
15:34:29.171875,-94.03
15:34:29.187500,-95.59
15:34:29.203125,-93.18
15:34:29.218750,-87.14
15:34:29.234375,-78.26
15:34:29.250000,-67.51
15:34:29.265625,-55.39
15:34:29.281250,-41.94
15:34:29.296875,-26.92
15:34:29.312500,-9.97
15:34:29.328125,9.66
15:34:29.343750,32.18
15:34:29.359375,57.01
15:34:29.375000,83.01
15:34:29.390625,108.58
15:34:29.406250,133.12
15:34:29.421875,156.69
15:34:29.437500,179.79
15:34:29.453125,203.18
15:34:29.468750,229.16
15:34:29.484375,259.76
15:34:29.500000,295.93
15:34:29.515625,336.98
15:34:29.531250,379.64
15:34:29.546875,420.78
15:34:29.562500,456.43
15:34:29.578125,482.38
15:34:29.593750,495.82
15:34:29.609375,499.45
15:34:29.625000,497.92
15:34:29.640625,495.60
15:34:29.656250,494.66
15:34:29.671875,493.07
15:34:29.687500,490.57
15:34:29.703125,486.73
15:34:29.718750,480.90
15:34:29.734375,473.01
15:34:29.750000,467.93
15:34:29.765625,469.19
15:34:29.781250,476.76
15:34:29.796875,486.82
15:34:29.812500,491.56
15:34:29.828125,490.01
15:34:29.843750,484.16
15:34:29.859375,476.25
15:34:29.875000,468.22
15:34:29.890625,466.15
15:34:29.906250,473.08
15:34:29.921875,487.49
15:34:29.937500,504.16
15:34:29.953125,513.84
15:34:29.968750,516.57
15:34:29.984375,515.79
15:34:30,514.40
15:34:30.015625,475.09
15:34:30.031250,377.17
15:34:30.046875,225.22
15:34:30.062500,49.17
15:34:30.078125,-91.09
15:34:30.093750,-192.70
15:34:30.109375,-264.39
15:34:30.125000,-315.10
15:34:30.140625,-357.22
15:34:30.156250,-395.58
15:34:30.171875,-427.12
15:34:30.187500,-450.06
15:34:30.203125,-466.69
15:34:30.218750,-483.34
15:34:30.234375,-509.93
15:34:30.250000,-545.07
15:34:30.265625,-580.77
15:34:30.281250,-606.88
15:34:30.296875,-613.47
15:34:30.312500,-590.81
15:34:30.328125,-536.51
15:34:30.343750,-456.46
15:34:30.359375,-362.91
15:34:30.375000,-271.25
15:34:30.390625,-187.55
15:34:30.406250,-112.63
15:34:30.421875,-46.91
15:34:30.437500,9.26
15:34:30.453125,57.49
15:34:30.468750,99.04
15:34:30.484375,135.68
15:34:30.500000,167.89
15:34:30.515625,193.89
15:34:30.531250,214.47
15:34:30.546875,229.10
15:34:30.562500,233.39
15:34:30.578125,223.50
15:34:30.593750,199.20
15:34:30.609375,163.01
15:34:30.625000,120.36
15:34:30.640625,74.79
15:34:30.656250,28.10
15:34:30.671875,-16.57
15:34:30.687500,-56.98
15:34:30.703125,-94.99
15:34:30.718750,-132.47
15:34:30.734375,-170.55
15:34:30.750000,-210.77
15:34:30.765625,-252.77
15:34:30.781250,-299.04
15:34:30.796875,-351.34
15:34:30.812500,-407.70
15:34:30.828125,-462.93
15:34:30.843750,-512.49
15:34:30.859375,-549.13
15:34:30.875000,-565.29
15:34:30.890625,-558.13
15:34:30.906250,-528.49
15:34:30.921875,-486.66
15:34:30.937500,-444.71
15:34:30.953125,-410.51
15:34:30.968750,-361.27
15:34:30.984375,-283.39
15:34:31,-176.66
15:34:31.015625,-56.25
15:34:31.031250,37.63
15:34:31.046875,95.72
15:34:31.062500,116.19
15:34:31.078125,101.12
15:34:31.093750,61.28
15:34:31.109375,5.10
15:34:31.125000,-63.19
15:34:31.140625,-138.53
15:34:31.156250,-200.83
15:34:31.171875,-231.27
15:34:31.187500,-217.80
15:34:31.203125,-167.57
15:34:31.218750,-98.55
15:34:31.234375,-28.27
15:34:31.250000,31.95
15:34:31.265625,75.91
15:34:31.281250,103.58
15:34:31.296875,117.99
15:34:31.312500,120.64
15:34:31.328125,114.29
15:34:31.343750,99.58
15:34:31.359375,79.57
15:34:31.375000,60.96
15:34:31.390625,50.51
15:34:31.406250,50.82
15:34:31.421875,60.70
15:34:31.437500,76.00
15:34:31.453125,90.31
15:34:31.468750,99.34
15:34:31.484375,101.83
15:34:31.500000,100.55
15:34:31.515625,101.65
15:34:31.531250,110.72
15:34:31.546875,129.85
15:34:31.562500,157.76
15:34:31.578125,190.45
15:34:31.593750,221.07
15:34:31.609375,242.67
15:34:31.625000,248.70
15:34:31.640625,235.70
15:34:31.656250,205.95
15:34:31.671875,167.03
15:34:31.687500,130.28
15:34:31.703125,107.36
15:34:31.718750,105.77
15:34:31.734375,124.75
15:34:31.750000,155.74
15:34:31.765625,186.33
15:34:31.781250,201.71
15:34:31.796875,193.57
15:34:31.812500,161.62
15:34:31.828125,113.15
15:34:31.843750,59.51
15:34:31.859375,11.50
15:34:31.875000,-23.98
15:34:31.890625,-45.04
15:34:31.906250,-52.90
15:34:31.921875,-50.21
15:34:31.937500,-39.29
15:34:31.953125,-23.16
15:34:31.968750,-6.01
15:34:31.984375,8.36
15:34:32,17.74
15:34:32.015625,21.52
15:34:32.031250,19.06
15:34:32.046875,10.29
15:34:32.062500,-3.64
15:34:32.078125,-19.69
15:34:32.093750,-34.62
15:34:32.109375,-46.18
15:34:32.125000,-54.11
15:34:32.140625,-62.38
15:34:32.156250,-76.64
15:34:32.171875,-102.46
15:34:32.187500,-141.20
15:34:32.203125,-188.59
15:34:32.218750,-234.98
15:34:32.234375,-269.09
15:34:32.250000,-281.81
15:34:32.265625,-269.68
15:34:32.281250,-236.29
15:34:32.296875,-186.39
15:34:32.312500,-130.86
15:34:32.328125,-80.02
15:34:32.343750,-39.29
15:34:32.359375,-7.64
15:34:32.375000,20.24
15:34:32.390625,51.70
15:34:32.406250,92.67
15:34:32.421875,145.11
15:34:32.437500,205.15
15:34:32.453125,263.21
15:34:32.468750,307.42
15:34:32.484375,328.18
15:34:32.500000,320.66
15:34:32.515625,284.64
15:34:32.531250,225.11
15:34:32.546875,150.84
15:34:32.562500,73.98
15:34:32.578125,7.02
15:34:32.593750,-40.06
15:34:32.609375,-61.93
15:34:32.625000,-59.08
15:34:32.640625,-39.98
15:34:32.656250,-21.28
15:34:32.671875,-20.95
15:34:32.687500,-51.55
15:34:32.703125,-112.32
15:34:32.718750,-191.05
15:34:32.734375,-270.19
15:34:32.750000,-334.27
15:34:32.765625,-373.74
15:34:32.781250,-380.03
15:34:32.796875,-355.54
15:34:32.812500,-312.42
15:34:32.828125,-267.04
15:34:32.843750,-227.77
15:34:32.859375,-198.24
15:34:32.875000,-175.10
15:34:32.890625,-155.70
15:34:32.906250,-136.10
15:34:32.921875,-110.69
15:34:32.937500,-75.05
15:34:32.953125,-24.77
15:34:32.968750,40.38
15:34:32.984375,119.58
15:34:33,206.03
15:34:33.015625,286.61
15:34:33.031250,333.99
15:34:33.046875,327.81
15:34:33.062500,267.10
15:34:33.078125,172.77
15:34:33.093750,92.77
15:34:33.109375,47.71
15:34:33.125000,42.81
15:34:33.140625,72.48
15:34:33.156250,119.71
15:34:33.171875,169.28
15:34:33.187500,211.87
15:34:33.203125,243.70
15:34:33.218750,262.86
15:34:33.234375,269.52
15:34:33.250000,261.16
15:34:33.265625,239.24
15:34:33.281250,207.58
15:34:33.296875,171.39
15:34:33.312500,136.41
15:34:33.328125,107.81
15:34:33.343750,87.98
15:34:33.359375,63.65
15:34:33.375000,26.15
15:34:33.390625,-27.94
15:34:33.406250,-91.56
15:34:33.421875,-154.38
15:34:33.437500,-209.34
15:34:33.453125,-253.61
15:34:33.468750,-286.66
15:34:33.484375,-307.53
15:34:33.500000,-318.01
15:34:33.515625,-318.31
15:34:33.531250,-311.00
15:34:33.546875,-298.43
15:34:33.562500,-283.34
15:34:33.578125,-268.15
15:34:33.593750,-253.24
15:34:33.609375,-238.85
15:34:33.625000,-223.53
15:34:33.640625,-205.99
15:34:33.656250,-184.29
15:34:33.671875,-158.84
15:34:33.687500,-131.10
15:34:33.703125,-103.50
15:34:33.718750,-78.51
15:34:33.734375,-57.39
15:34:33.750000,-39.93
15:34:33.765625,-24.59
15:34:33.781250,-9.82
15:34:33.796875,6.32
15:34:33.812500,24.11
15:34:33.828125,42.48
15:34:33.843750,59.40
15:34:33.859375,72.78
15:34:33.875000,81.53
15:34:33.890625,85.96
15:34:33.906250,87.94
15:34:33.921875,89.83
15:34:33.937500,94.35
15:34:33.953125,102.95
15:34:33.968750,115.20
15:34:33.984375,128.75
15:34:34,139.86
15:34:34.015625,144.51
15:34:34.031250,139.55
15:34:34.046875,124.09
15:34:34.062500,100.03
15:34:34.078125,72.14
15:34:34.093750,46.41
15:34:34.109375,28.02
15:34:34.125000,19.53
15:34:34.140625,20.15
15:34:34.156250,26.57
15:34:34.171875,34.74
15:34:34.187500,41.79
15:34:34.203125,46.87
15:34:34.218750,50.91
15:34:34.234375,55.62
15:34:34.250000,62.40
15:34:34.265625,71.94
15:34:34.281250,84.17
15:34:34.296875,98.44
15:34:34.312500,113.47
15:34:34.328125,127.09
15:34:34.343750,136.58
15:34:34.359375,139.64
15:34:34.375000,135.44
15:34:34.390625,125.27
15:34:34.406250,112.02
15:34:34.421875,98.72
15:34:34.437500,87.21
15:34:34.453125,77.67
15:34:34.468750,69.42
15:34:34.484375,62.21
15:34:34.500000,57.00
15:34:34.515625,55.65
15:34:34.531250,59.57
15:34:34.546875,68.42
15:34:34.562500,79.81
15:34:34.578125,90.24
15:34:34.593750,96.76
15:34:34.609375,98.26
15:34:34.625000,95.62
15:34:34.640625,90.75
15:34:34.656250,85.26
15:34:34.671875,79.58
15:34:34.687500,73.12
15:34:34.703125,64.93
15:34:34.718750,54.71
15:34:34.734375,43.09
15:34:34.750000,31.38
15:34:34.765625,20.80
15:34:34.781250,11.84
15:34:34.796875,4.20
15:34:34.812500,-2.78
15:34:34.828125,-9.40
15:34:34.843750,-15.21
15:34:34.859375,-19.13
15:34:34.875000,-19.96
15:34:34.890625,-17.10
15:34:34.906250,-10.82
15:34:34.921875,-2.12
15:34:34.937500,7.74
15:34:34.953125,17.69
15:34:34.968750,27.05
15:34:34.984375,35.37
15:34:35,42.20
15:34:35.015625,46.89
15:34:35.031250,48.71
15:34:35.046875,47.01
15:34:35.062500,41.49
15:34:35.078125,32.25
15:34:35.093750,19.82
15:34:35.109375,5.06
15:34:35.125000,-11.01
15:34:35.140625,-27.33
15:34:35.156250,-42.82
15:34:35.171875,-56.43
15:34:35.187500,-66.99
15:34:35.203125,-73.24
15:34:35.218750,-74.07
15:34:35.234375,-68.99
15:34:35.250000,-58.61
15:34:35.265625,-44.78
15:34:35.281250,-30.22
15:34:35.296875,-17.62
15:34:35.312500,-8.69
15:34:35.328125,-3.61
15:34:35.343750,-1.25
15:34:35.359375,0.07
15:34:35.375000,1.66
15:34:35.390625,3.99
15:34:35.406250,6.80
15:34:35.421875,9.61
15:34:35.437500,12.23
15:34:35.453125,14.85
15:34:35.468750,17.84
15:34:35.484375,21.33
15:34:35.500000,25.06
15:34:35.515625,28.44
15:34:35.531250,30.87
15:34:35.546875,32.07
15:34:35.562500,32.18
15:34:35.578125,31.69
15:34:35.593750,31.13
15:34:35.609375,30.76
15:34:35.625000,30.40
15:34:35.640625,29.50
15:34:35.656250,27.27
15:34:35.671875,23.10
15:34:35.687500,16.68
15:34:35.703125,8.19
15:34:35.718750,-1.69
15:34:35.734375,-12.02
15:34:35.750000,-21.78
15:34:35.765625,-30.12
15:34:35.781250,-36.58
15:34:35.796875,-41.22
15:34:35.812500,-44.54
15:34:35.828125,-47.22
15:34:35.843750,-49.76
15:34:35.859375,-52.14
15:34:35.875000,-53.79
15:34:35.890625,-53.77
15:34:35.906250,-51.30
15:34:35.921875,-46.21
15:34:35.937500,-39.34
15:34:35.953125,-32.44
15:34:35.968750,-27.71
15:34:35.984375,-27.28
15:34:36,-32.59
15:34:36.015625,-44.06
15:34:36.031250,-61.03
15:34:36.046875,-81.71
15:34:36.062500,-103.35
15:34:36.078125,-122.42
15:34:36.093750,-135.08
15:34:36.109375,-137.98
15:34:36.125000,-129.27
15:34:36.140625,-109.35
15:34:36.156250,-81.05
15:34:36.171875,-48.91
15:34:36.187500,-17.86
15:34:36.203125,8.08
15:34:36.218750,26.72
15:34:36.234375,37.69
15:34:36.250000,41.83
15:34:36.265625,40.47
15:34:36.281250,35.00
15:34:36.296875,26.88
15:34:36.312500,17.92
15:34:36.328125,10.31
15:34:36.343750,6.31
15:34:36.359375,7.49
15:34:36.375000,14.14
15:34:36.390625,24.99
15:34:36.406250,37.63
15:34:36.421875,49.37
15:34:36.437500,58.07
15:34:36.453125,62.69
15:34:36.468750,63.30
15:34:36.484375,60.73
15:34:36.500000,56.10
15:34:36.515625,50.58
15:34:36.531250,45.25
15:34:36.546875,41.12
15:34:36.562500,39.00
15:34:36.578125,39.37
15:34:36.593750,42.17
15:34:36.609375,46.82
15:34:36.625000,52.32
15:34:36.640625,57.60
15:34:36.656250,61.81
15:34:36.671875,64.39
15:34:36.687500,65.24
15:34:36.703125,64.63
15:34:36.718750,63.16
15:34:36.734375,61.66
15:34:36.750000,61.03
15:34:36.765625,61.86
15:34:36.781250,64.21
15:34:36.796875,67.46
15:34:36.812500,70.50
15:34:36.828125,72.08
15:34:36.843750,71.23
15:34:36.859375,67.42
15:34:36.875000,60.62
15:34:36.890625,51.19
15:34:36.906250,39.78
15:34:36.921875,27.30
15:34:36.937500,14.79
15:34:36.953125,3.32
15:34:36.968750,-6.31
15:34:36.984375,-13.78
15:34:37,-19.35
15:34:37.015625,-23.69
15:34:37.031250,-27.52
15:34:37.046875,-31.39
15:34:37.062500,-35.42
15:34:37.078125,-39.39
15:34:37.093750,-42.87
15:34:37.109375,-45.43
15:34:37.125000,-46.80
15:34:37.140625,-46.93
15:34:37.156250,-46.17
15:34:37.171875,-45.25
15:34:37.187500,-45.18
15:34:37.203125,-47.02
15:34:37.218750,-51.54
15:34:37.234375,-58.90
15:34:37.250000,-68.61
15:34:37.265625,-79.66
15:34:37.281250,-90.92
15:34:37.296875,-101.54
15:34:37.312500,-111.02
15:34:37.328125,-119.32
15:34:37.343750,-126.45
15:34:37.359375,-132.28
15:34:37.375000,-136.48
15:34:37.390625,-138.71
15:34:37.406250,-138.96
15:34:37.421875,-138.00
15:34:37.437500,-137.25
15:34:37.453125,-138.33
15:34:37.468750,-142.11
15:34:37.484375,-147.81
15:34:37.500000,-152.76
15:34:37.515625,-152.92
15:34:37.531250,-144.06
15:34:37.546875,-123.13
15:34:37.562500,-89.22
15:34:37.578125,-43.86
15:34:37.593750,9.19
15:34:37.609375,64.63
15:34:37.625000,116.49
15:34:37.640625,159.18
15:34:37.656250,188.57
15:34:37.671875,202.89
15:34:37.687500,203.06
15:34:37.703125,192.20
15:34:37.718750,174.56
15:34:37.734375,154.17
15:34:37.750000,133.90
15:34:37.765625,115.26
15:34:37.781250,98.78
15:34:37.796875,84.58
15:34:37.812500,72.63
15:34:37.828125,62.68
15:34:37.843750,54.03
15:34:37.859375,45.67
15:34:37.875000,36.62
15:34:37.890625,26.46
15:34:37.906250,15.55
15:34:37.921875,4.83
15:34:37.937500,-4.56
15:34:37.953125,-11.88
15:34:37.968750,-17.00
15:34:37.984375,-20.37
15:34:38,-22.65
15:34:38.015625,-24.35
15:34:38.031250,-25.68
15:34:38.046875,-26.53
15:34:38.062500,-26.70
15:34:38.078125,-26.18
15:34:38.093750,-25.27
15:34:38.109375,-24.60
15:34:38.125000,-24.91
15:34:38.140625,-26.80
15:34:38.156250,-30.43
15:34:38.171875,-35.35
15:34:38.187500,-40.58
15:34:38.203125,-44.95
15:34:38.218750,-47.43
15:34:38.234375,-47.59
15:34:38.250000,-45.65
15:34:38.265625,-42.44
15:34:38.281250,-39.06
15:34:38.296875,-36.47
15:34:38.312500,-35.19
15:34:38.328125,-35.10
15:34:38.343750,-35.55
15:34:38.359375,-35.60
15:34:38.375000,-34.30
15:34:38.390625,-31.03
15:34:38.406250,-25.59
15:34:38.421875,-18.33
15:34:38.437500,-9.93
15:34:38.453125,-1.24
15:34:38.468750,6.87
15:34:38.484375,13.71
15:34:38.500000,18.77
15:34:38.515625,21.72
15:34:38.531250,22.38
15:34:38.546875,20.75
15:34:38.562500,17.05
15:34:38.578125,11.62
15:34:38.593750,4.85
15:34:38.609375,-2.97
15:34:38.625000,-11.62
15:34:38.640625,-20.89
15:34:38.656250,-30.40
15:34:38.671875,-39.47
15:34:38.687500,-47.18
15:34:38.703125,-52.61
15:34:38.718750,-55.22
15:34:38.734375,-55.10
15:34:38.750000,-53.04
15:34:38.765625,-50.15
15:34:38.781250,-47.45
15:34:38.796875,-45.42
15:34:38.812500,-43.88
15:34:38.828125,-42.13
15:34:38.843750,-39.32
15:34:38.859375,-34.76
15:34:38.875000,-28.13
15:34:38.890625,-19.52
15:34:38.906250,-9.42
15:34:38.921875,1.42
15:34:38.937500,12.07
15:34:38.953125,21.60
15:34:38.968750,29.23
15:34:38.984375,34.50
15:34:39,37.40
15:34:39.015625,38.29
15:34:39.031250,37.76
15:34:39.046875,36.46
15:34:39.062500,34.95
15:34:39.078125,33.66
15:34:39.093750,32.87
15:34:39.109375,32.57
15:34:39.125000,32.44
15:34:39.140625,31.79
15:34:39.156250,29.79
15:34:39.171875,25.88
15:34:39.187500,20.06
15:34:39.203125,13.00
15:34:39.218750,5.79
15:34:39.234375,-0.57
15:34:39.250000,-5.52
15:34:39.265625,-9.08
15:34:39.281250,-11.67
15:34:39.296875,-13.80
15:34:39.312500,-15.73
15:34:39.328125,-17.49
15:34:39.343750,-18.82
15:34:39.359375,-19.37
15:34:39.375000,-18.78
15:34:39.390625,-16.77
15:34:39.406250,-13.28
15:34:39.421875,-8.60
15:34:39.437500,-3.51
15:34:39.453125,0.93
15:34:39.468750,3.63
15:34:39.484375,3.95
15:34:39.500000,2.04
15:34:39.515625,-1.32
15:34:39.531250,-5.02
15:34:39.546875,-8.10
15:34:39.562500,-10.08
15:34:39.578125,-10.93
15:34:39.593750,-10.84
15:34:39.609375,-9.93
15:34:39.625000,-8.17
15:34:39.640625,-5.48
15:34:39.656250,-1.97
15:34:39.671875,1.93
15:34:39.687500,5.58
15:34:39.703125,8.39
15:34:39.718750,10.16
15:34:39.734375,11.12
15:34:39.750000,11.73
15:34:39.765625,12.27
15:34:39.781250,12.61
15:34:39.796875,12.20
15:34:39.812500,10.43
15:34:39.828125,7.09
15:34:39.843750,2.57
15:34:39.859375,-2.27
15:34:39.875000,-6.45
15:34:39.890625,-9.31
15:34:39.906250,-10.70
15:34:39.921875,-10.83
15:34:39.937500,-9.99
15:34:39.953125,-8.41
15:34:39.968750,-6.22
15:34:39.984375,-3.53
15:34:40,-0.56
15:34:40.015625,2.44
15:34:40.031250,5.32
15:34:40.046875,8.21
15:34:40.062500,11.44
15:34:40.078125,15.36
15:34:40.093750,19.99
15:34:40.109375,24.92
15:34:40.125000,29.34
15:34:40.140625,32.42
15:34:40.156250,33.63
15:34:40.171875,33.01
15:34:40.187500,31.10
15:34:40.203125,28.68
15:34:40.218750,26.46
15:34:40.234375,24.89
15:34:40.250000,23.91
15:34:40.265625,23.09
15:34:40.281250,21.64
15:34:40.296875,18.58
15:34:40.312500,12.96
15:34:40.328125,4.18
15:34:40.343750,-7.72
15:34:40.359375,-21.85
15:34:40.375000,-36.57
15:34:40.390625,-49.79
15:34:40.406250,-59.59
15:34:40.421875,-64.79
15:34:40.437500,-65.37
15:34:40.453125,-62.48
15:34:40.468750,-58.05
15:34:40.484375,-54.14
15:34:40.500000,-52.26
15:34:40.515625,-52.91
15:34:40.531250,-55.42
15:34:40.546875,-58.24
15:34:40.562500,-59.50
15:34:40.578125,-57.64
15:34:40.593750,-51.93
15:34:40.609375,-42.73
15:34:40.625000,-31.35
15:34:40.640625,-19.69
15:34:40.656250,-9.66
15:34:40.671875,-2.64
15:34:40.687500,0.89
15:34:40.703125,1.37
15:34:40.718750,-0.04
15:34:40.734375,-1.93
15:34:40.750000,-3.18
15:34:40.765625,-3.27
15:34:40.781250,-2.26
15:34:40.796875,-0.59
15:34:40.812500,1.24
15:34:40.828125,3.01
15:34:40.843750,4.73
15:34:40.859375,6.58
15:34:40.875000,8.63
15:34:40.890625,10.77
15:34:40.906250,12.80
15:34:40.921875,14.58
15:34:40.937500,16.10
15:34:40.953125,17.46
15:34:40.968750,18.67
15:34:40.984375,19.52
15:34:41,19.60
15:34:41.015625,18.48
15:34:41.031250,15.99
15:34:41.046875,12.51
15:34:41.062500,8.81
15:34:41.078125,5.80
15:34:41.093750,4.09
15:34:41.109375,3.78
15:34:41.125000,4.39
15:34:41.140625,5.06
15:34:41.156250,5.02
15:34:41.171875,3.81
15:34:41.187500,1.55
15:34:41.203125,-1.20
15:34:41.218750,-3.62
15:34:41.234375,-4.92
15:34:41.250000,-4.63
15:34:41.265625,-2.72
15:34:41.281250,0.48
15:34:41.296875,4.40
15:34:41.312500,8.50
15:34:41.328125,12.38
15:34:41.343750,15.84
15:34:41.359375,18.78
15:34:41.375000,21.10
15:34:41.390625,22.69
15:34:41.406250,23.45
15:34:41.421875,23.34
15:34:41.437500,22.43
15:34:41.453125,20.91
15:34:41.468750,18.99
15:34:41.484375,16.80
15:34:41.500000,14.39
15:34:41.515625,11.68
15:34:41.531250,8.53
15:34:41.546875,4.84
15:34:41.562500,0.64
15:34:41.578125,-3.89
15:34:41.593750,-8.51
15:34:41.609375,-12.99
15:34:41.625000,-17.30
15:34:41.640625,-21.54
15:34:41.656250,-25.87
15:34:41.671875,-30.28
15:34:41.687500,-34.47
15:34:41.703125,-37.79
15:34:41.718750,-39.53
15:34:41.734375,-39.27
15:34:41.750000,-37.08
15:34:41.765625,-33.53
15:34:41.781250,-29.42
15:34:41.796875,-25.41
15:34:41.812500,-21.69
15:34:41.828125,-18.00
15:34:41.843750,-13.99
15:34:41.859375,-9.46
15:34:41.875000,-4.59
15:34:41.890625,0.16
15:34:41.906250,4.43
15:34:41.921875,8.12
15:34:41.937500,11.53
15:34:41.953125,15.09
15:34:41.968750,19.02
15:34:41.984375,23.14
15:34:42,26.93
15:34:42.015625,29.86
15:34:42.031250,31.68
15:34:42.046875,32.55
15:34:42.062500,32.89
15:34:42.078125,33.10
15:34:42.093750,33.31
15:34:42.109375,33.43
15:34:42.125000,33.27
15:34:42.140625,32.74
15:34:42.156250,31.93
15:34:42.171875,30.99
15:34:42.187500,30.00
15:34:42.203125,28.89
15:34:42.218750,27.51
15:34:42.234375,25.79
15:34:42.250000,23.82
15:34:42.265625,21.81
15:34:42.281250,19.97
15:34:42.296875,18.38
15:34:42.312500,16.92
15:34:42.328125,15.41
15:34:42.343750,13.65
15:34:42.359375,11.59
15:34:42.375000,9.20
15:34:42.390625,6.56
15:34:42.406250,3.75
15:34:42.421875,0.95
15:34:42.437500,-1.60
15:34:42.453125,-3.61
15:34:42.468750,-4.78
15:34:42.484375,-4.96
15:34:42.500000,-4.23
15:34:42.515625,-2.86
15:34:42.531250,-1.25
15:34:42.546875,0.19
15:34:42.562500,1.19
15:34:42.578125,1.68
15:34:42.593750,1.79
15:34:42.609375,1.76
15:34:42.625000,1.83
15:34:42.640625,2.18
15:34:42.656250,2.84
15:34:42.671875,3.73
15:34:42.687500,4.73
15:34:42.703125,5.70
15:34:42.718750,6.64
15:34:42.734375,7.58
15:34:42.750000,8.51
15:34:42.765625,9.34
15:34:42.781250,9.84
15:34:42.796875,9.71
15:34:42.812500,8.71
15:34:42.828125,6.76
15:34:42.843750,3.99
15:34:42.859375,0.72
15:34:42.875000,-2.62
15:34:42.890625,-5.62
15:34:42.906250,-7.96
15:34:42.921875,-9.50
15:34:42.937500,-10.24
15:34:42.953125,-10.43
15:34:42.968750,-10.40
15:34:42.984375,-10.51
15:34:43,-11.04
15:34:43.015625,-12.08
15:34:43.031250,-13.50
15:34:43.046875,-15.03
15:34:43.062500,-16.32
15:34:43.078125,-17.08
15:34:43.093750,-17.16
15:34:43.109375,-16.55
15:34:43.125000,-15.38
15:34:43.140625,-13.88
15:34:43.156250,-12.37
15:34:43.171875,-11.18
15:34:43.187500,-10.57
15:34:43.203125,-10.69
15:34:43.218750,-11.43
15:34:43.234375,-12.53
15:34:43.250000,-13.58
15:34:43.265625,-14.21
15:34:43.281250,-14.19
15:34:43.296875,-13.50
15:34:43.312500,-12.35
15:34:43.328125,-11.06
15:34:43.343750,-9.94
15:34:43.359375,-9.23
15:34:43.375000,-9.11
15:34:43.390625,-9.71
15:34:43.406250,-11.14
15:34:43.421875,-13.36
15:34:43.437500,-16.08
15:34:43.453125,-18.59
15:34:43.468750,-19.90
15:34:43.484375,-19.02
15:34:43.500000,-15.35
15:34:43.515625,-9.06
15:34:43.531250,-1.08
15:34:43.546875,7.14
15:34:43.562500,14.19
15:34:43.578125,19.14
15:34:43.593750,21.83
15:34:43.609375,22.73
15:34:43.625000,22.69
15:34:43.640625,22.49
15:34:43.656250,22.57
15:34:43.671875,22.99
15:34:43.687500,23.55
15:34:43.703125,24.00
15:34:43.718750,24.26
15:34:43.734375,24.43
15:34:43.750000,24.70
15:34:43.765625,25.26
15:34:43.781250,26.11
15:34:43.796875,27.11
15:34:43.812500,27.90
15:34:43.828125,28.10
15:34:43.843750,27.40
15:34:43.859375,25.66
15:34:43.875000,23.05
15:34:43.890625,20.01
15:34:43.906250,17.13
15:34:43.921875,14.97
15:34:43.937500,13.86
15:34:43.953125,13.79
15:34:43.968750,14.47
15:34:43.984375,15.47
15:34:44,16.42
15:34:44.015625,17.17
15:34:44.031250,17.75
15:34:44.046875,18.34
15:34:44.062500,19.11
15:34:44.078125,20.07
15:34:44.093750,21.06
15:34:44.109375,21.75
15:34:44.125000,21.70
15:34:44.140625,20.50
15:34:44.156250,17.84
15:34:44.171875,13.68
15:34:44.187500,8.18
15:34:44.203125,1.73
15:34:44.218750,-5.19
15:34:44.234375,-12.16
15:34:44.250000,-18.82
15:34:44.265625,-24.83
15:34:44.281250,-29.82
15:34:44.296875,-33.32
15:34:44.312500,-34.90
15:34:44.328125,-34.40
15:34:44.343750,-32.04
15:34:44.359375,-28.54
15:34:44.375000,-24.86
15:34:44.390625,-22.02
15:34:44.406250,-20.72
15:34:44.421875,-21.24
15:34:44.437500,-23.39
15:34:44.453125,-26.66
15:34:44.468750,-30.33
15:34:44.484375,-33.53
15:34:44.500000,-35.28
15:34:44.515625,-34.54
15:34:44.531250,-30.50
15:34:44.546875,-22.98
15:34:44.562500,-12.63
15:34:44.578125,-0.99
15:34:44.593750,9.98
15:34:44.609375,18.54
15:34:44.625000,23.76
15:34:44.640625,25.64
15:34:44.656250,24.96
15:34:44.671875,22.65
15:34:44.687500,19.44
15:34:44.703125,15.62
15:34:44.718750,11.27
15:34:44.734375,6.59
15:34:44.750000,2.07
15:34:44.765625,-1.57
15:34:44.781250,-3.69
15:34:44.796875,-4.07
15:34:44.812500,-3.00
15:34:44.828125,-1.12
15:34:44.843750,0.94
15:34:44.859375,2.81
15:34:44.875000,4.42
15:34:44.890625,5.90
15:34:44.906250,7.30
15:34:44.921875,8.49
15:34:44.937500,9.20
15:34:44.953125,9.15
15:34:44.968750,8.27
15:34:44.984375,6.68
15:34:45,4.71
15:34:45.015625,2.71
15:34:45.031250,0.91
15:34:45.046875,-0.63
15:34:45.062500,-2.00
15:34:45.078125,-3.40
15:34:45.093750,-5.05
15:34:45.109375,-7.11
15:34:45.125000,-9.64
15:34:45.140625,-12.51
15:34:45.156250,-15.36
15:34:45.171875,-17.72
15:34:45.187500,-19.13
15:34:45.203125,-19.41
15:34:45.218750,-18.83
15:34:45.234375,-18.14
15:34:45.250000,-18.28
15:34:45.265625,-19.97
15:34:45.281250,-23.31
15:34:45.296875,-27.61
15:34:45.312500,-31.44
15:34:45.328125,-33.16
15:34:45.343750,-31.46
15:34:45.359375,-25.76
15:34:45.375000,-16.42
15:34:45.390625,-4.51
15:34:45.406250,8.57
15:34:45.421875,21.53
15:34:45.437500,33.45
15:34:45.453125,43.90
15:34:45.468750,52.73
15:34:45.484375,59.90
15:34:45.500000,65.32
15:34:45.515625,68.77
15:34:45.531250,70.11
15:34:45.546875,69.39
15:34:45.562500,66.90
15:34:45.578125,63.08
15:34:45.593750,58.39
15:34:45.609375,53.18
15:34:45.625000,47.67
15:34:45.640625,42.16
15:34:45.656250,37.03
15:34:45.671875,32.73
15:34:45.687500,29.46
15:34:45.703125,26.99
15:34:45.718750,24.63
15:34:45.734375,21.46
15:34:45.750000,16.86
15:34:45.765625,10.91
15:34:45.781250,4.40
15:34:45.796875,-1.52
15:34:45.812500,-5.89
15:34:45.828125,-8.39
15:34:45.843750,-9.35
15:34:45.859375,-9.53
15:34:45.875000,-9.59
15:34:45.890625,-9.90
15:34:45.906250,-10.48
15:34:45.921875,-11.24
15:34:45.937500,-12.31
15:34:45.953125,-13.99
15:34:45.968750,-16.72
15:34:45.984375,-20.72
15:34:46,-25.77
15:34:46.015625,-31.33
15:34:46.031250,-36.66
15:34:46.046875,-41.14
15:34:46.062500,-44.41
15:34:46.078125,-46.40
15:34:46.093750,-47.21
15:34:46.109375,-47.13
15:34:46.125000,-46.53
15:34:46.140625,-45.91
15:34:46.156250,-45.88
15:34:46.171875,-47.00
15:34:46.187500,-49.60
15:34:46.203125,-53.53
15:34:46.218750,-58.19
15:34:46.234375,-62.68
15:34:46.250000,-66.08
15:34:46.265625,-67.74
15:34:46.281250,-67.41
15:34:46.296875,-65.19
15:34:46.312500,-61.33
15:34:46.328125,-56.03
15:34:46.343750,-49.27
15:34:46.359375,-40.80
15:34:46.375000,-30.33
15:34:46.390625,-17.75
15:34:46.406250,-3.40
15:34:46.421875,11.87
15:34:46.437500,26.66
15:34:46.453125,39.39
15:34:46.468750,48.71
15:34:46.484375,53.81
15:34:46.500000,54.73
15:34:46.515625,52.26
15:34:46.531250,47.68
15:34:46.546875,42.38
15:34:46.562500,37.42
15:34:46.578125,33.37
15:34:46.593750,30.27
15:34:46.609375,27.82
15:34:46.625000,25.69
15:34:46.640625,23.69
15:34:46.656250,21.80
15:34:46.671875,20.15
15:34:46.687500,18.80
15:34:46.703125,17.64
15:34:46.718750,16.45
15:34:46.734375,15.05
15:34:46.750000,13.45
15:34:46.765625,11.90
15:34:46.781250,10.77
15:34:46.796875,10.34
15:34:46.812500,10.67
15:34:46.828125,11.51
15:34:46.843750,12.41
15:34:46.859375,12.99
15:34:46.875000,13.03
15:34:46.890625,12.59
15:34:46.906250,11.86
15:34:46.921875,11.03
15:34:46.937500,10.19
15:34:46.953125,9.31
15:34:46.968750,8.30
15:34:46.984375,7.07
15:34:47,5.65
15:34:47.015625,4.09
15:34:47.031250,2.45
15:34:47.046875,0.71
15:34:47.062500,-1.27
15:34:47.078125,-3.69
15:34:47.093750,-6.70
15:34:47.109375,-10.26
15:34:47.125000,-13.97
15:34:47.140625,-17.17
15:34:47.156250,-19.06
15:34:47.171875,-19.06
15:34:47.187500,-16.93
15:34:47.203125,-12.98
15:34:47.218750,-7.78
15:34:47.234375,-1.94
15:34:47.250000,4.19
15:34:47.265625,10.56
15:34:47.281250,17.28
15:34:47.296875,24.31
15:34:47.312500,31.26
15:34:47.328125,37.41
15:34:47.343750,41.93
15:34:47.359375,44.19
15:34:47.375000,43.97
15:34:47.390625,41.51
15:34:47.406250,37.48
15:34:47.421875,32.84
15:34:47.437500,28.70
15:34:47.453125,26.12
15:34:47.468750,25.84
15:34:47.484375,28.06
15:34:47.500000,32.37
15:34:47.515625,37.79
15:34:47.531250,43.24
15:34:47.546875,47.87
15:34:47.562500,51.41
15:34:47.578125,54.19
15:34:47.593750,56.92
15:34:47.609375,60.22
15:34:47.625000,64.34
15:34:47.640625,69.03
15:34:47.656250,73.79
15:34:47.671875,78.19
15:34:47.687500,82.01
15:34:47.703125,85.24
15:34:47.718750,88.00
15:34:47.734375,90.38
15:34:47.750000,92.57
15:34:47.765625,95.01
15:34:47.781250,98.36
15:34:47.796875,103.19
15:34:47.812500,109.49
15:34:47.828125,116.32
15:34:47.843750,121.96
15:34:47.859375,124.52
15:34:47.875000,122.63
15:34:47.890625,115.76
15:34:47.906250,104.06
15:34:47.921875,87.95
15:34:47.937500,67.80
15:34:47.953125,44.13
15:34:47.968750,17.77
15:34:47.984375,-9.88
15:34:48,-37.15
15:34:48.015625,-62.45
15:34:48.031250,-84.63
15:34:48.046875,-102.95
15:34:48.062500,-116.86
15:34:48.078125,-125.75
15:34:48.093750,-129.04
15:34:48.109375,-126.67
15:34:48.125000,-119.43
15:34:48.140625,-109.01
15:34:48.156250,-97.57
15:34:48.171875,-87.02
15:34:48.187500,-78.50
15:34:48.203125,-72.37
15:34:48.218750,-68.42
15:34:48.234375,-66.22
15:34:48.250000,-65.37
15:34:48.265625,-65.46
15:34:48.281250,-65.98
15:34:48.296875,-66.44
15:34:48.312500,-66.38
15:34:48.328125,-65.47
15:34:48.343750,-63.71
15:34:48.359375,-61.28
15:34:48.375000,-58.54
15:34:48.390625,-55.88
15:34:48.406250,-53.55
15:34:48.421875,-51.60
15:34:48.437500,-49.86
15:34:48.453125,-48.03
15:34:48.468750,-45.75
15:34:48.484375,-42.83
15:34:48.500000,-39.30
15:34:48.515625,-35.43
15:34:48.531250,-31.64
15:34:48.546875,-28.39
15:34:48.562500,-26.01
15:34:48.578125,-24.57
15:34:48.593750,-23.88
15:34:48.609375,-23.50
15:34:48.625000,-22.95
15:34:48.640625,-21.82
15:34:48.656250,-19.86
15:34:48.671875,-17.07
15:34:48.687500,-13.62
15:34:48.703125,-9.83
15:34:48.718750,-6.08
15:34:48.734375,-2.74
15:34:48.750000,-0.03
15:34:48.765625,1.93
15:34:48.781250,3.15
15:34:48.796875,3.70
15:34:48.812500,3.60
15:34:48.828125,2.87
15:34:48.843750,1.51
15:34:48.859375,-0.44
15:34:48.875000,-2.85
15:34:48.890625,-5.49
15:34:48.906250,-8.06
15:34:48.921875,-10.31
15:34:48.937500,-12.11
15:34:48.953125,-13.45
15:34:48.968750,-14.45
15:34:48.984375,-15.25
15:34:49,-15.96
15:34:49.015625,-16.63
15:34:49.031250,-17.24
15:34:49.046875,-17.77
15:34:49.062500,-18.23
15:34:49.078125,-18.65
15:34:49.093750,-19.02
15:34:49.109375,-19.27
15:34:49.125000,-19.29
15:34:49.140625,-18.92
15:34:49.156250,-18.08
15:34:49.171875,-16.86
15:34:49.187500,-15.45
15:34:49.203125,-14.18
15:34:49.218750,-13.32
15:34:49.234375,-13.05
15:34:49.250000,-13.33
15:34:49.265625,-13.96
15:34:49.281250,-14.68
15:34:49.296875,-15.26
15:34:49.312500,-15.56
15:34:49.328125,-15.58
15:34:49.343750,-15.36
15:34:49.359375,-14.99
15:34:49.375000,-14.57
15:34:49.390625,-14.17
15:34:49.406250,-13.95
15:34:49.421875,-14.02
15:34:49.437500,-14.53
15:34:49.453125,-15.54
15:34:49.468750,-16.93
15:34:49.484375,-18.52
15:34:49.500000,-20.04
15:34:49.515625,-21.26
15:34:49.531250,-22.12
15:34:49.546875,-22.59
15:34:49.562500,-22.76
15:34:49.578125,-22.70
15:34:49.593750,-22.44
15:34:49.609375,-21.99
15:34:49.625000,-21.43
15:34:49.640625,-20.85
15:34:49.656250,-20.40
15:34:49.671875,-20.18
15:34:49.687500,-20.19
15:34:49.703125,-20.28
15:34:49.718750,-20.29
15:34:49.734375,-20.09
15:34:49.750000,-19.62
15:34:49.765625,-18.91
15:34:49.781250,-18.03
15:34:49.796875,-16.97
15:34:49.812500,-15.64
15:34:49.828125,-13.91
15:34:49.843750,-11.64
15:34:49.859375,-8.73
15:34:49.875000,-5.11
15:34:49.890625,-0.73
15:34:49.906250,4.34
15:34:49.921875,9.94
15:34:49.937500,15.71
15:34:49.953125,21.11
15:34:49.968750,25.51
15:34:49.984375,28.42
15:34:50,29.60
15:34:50.015625,29.15
15:34:50.031250,27.54
15:34:50.046875,25.39
15:34:50.062500,23.40
15:34:50.078125,22.16
15:34:50.093750,22.05
15:34:50.109375,23.19
15:34:50.125000,25.47
15:34:50.140625,28.55
15:34:50.156250,31.96
15:34:50.171875,35.24
15:34:50.187500,38.13
15:34:50.203125,40.66
15:34:50.218750,43.15
15:34:50.234375,46.08
15:34:50.250000,49.73
15:34:50.265625,53.96
15:34:50.281250,58.03
15:34:50.296875,60.74
15:34:50.312500,60.78
15:34:50.328125,57.10
15:34:50.343750,49.28
15:34:50.359375,37.62
15:34:50.375000,23.08
15:34:50.390625,6.97
15:34:50.406250,-9.33
15:34:50.421875,-24.64
15:34:50.437500,-38.09
15:34:50.453125,-49.27
15:34:50.468750,-58.21
15:34:50.484375,-65.43
15:34:50.500000,-71.77
15:34:50.515625,-78.04
15:34:50.531250,-84.55
15:34:50.546875,-90.83
15:34:50.562500,-95.61
15:34:50.578125,-97.25
15:34:50.593750,-94.51
15:34:50.609375,-87.30
15:34:50.625000,-77.02
15:34:50.640625,-66.24
15:34:50.656250,-57.84
15:34:50.671875,-53.99
15:34:50.687500,-55.49
15:34:50.703125,-61.69
15:34:50.718750,-70.86
15:34:50.734375,-80.89
15:34:50.750000,-89.69
15:34:50.765625,-95.48
15:34:50.781250,-96.91
15:34:50.796875,-93.24
15:34:50.812500,-84.48
15:34:50.828125,-71.50
15:34:50.843750,-55.74
15:34:50.859375,-38.78
15:34:50.875000,-21.74
15:34:50.890625,-5.08
15:34:50.906250,11.22
15:34:50.921875,27.12
15:34:50.937500,42.07
15:34:50.953125,54.88
15:34:50.968750,64.15
15:34:50.984375,68.83
15:34:51,68.72
15:34:51.015625,64.51
15:34:51.031250,57.47
15:34:51.046875,49.00
15:34:51.062500,40.29
15:34:51.078125,32.18
15:34:51.093750,25.34
15:34:51.109375,20.39
15:34:51.125000,17.77
15:34:51.140625,17.66
15:34:51.156250,19.74
15:34:51.171875,23.14
15:34:51.187500,26.79
15:34:51.203125,29.70
15:34:51.218750,31.37
15:34:51.234375,31.84
15:34:51.250000,31.64
15:34:51.265625,31.40
15:34:51.281250,31.56
15:34:51.296875,32.20
15:34:51.312500,32.99
15:34:51.328125,33.36
15:34:51.343750,32.56
15:34:51.359375,29.96
15:34:51.375000,25.21
15:34:51.390625,18.44
15:34:51.406250,10.35
15:34:51.421875,2.11
15:34:51.437500,-4.96
15:34:51.453125,-9.84
15:34:51.468750,-12.03
15:34:51.484375,-11.80
15:34:51.500000,-9.94
15:34:51.515625,-7.46
15:34:51.531250,-5.24
15:34:51.546875,-3.77
15:34:51.562500,-3.03
15:34:51.578125,-2.63
15:34:51.593750,-1.97
15:34:51.609375,-0.45
15:34:51.625000,2.41
15:34:51.640625,6.92
15:34:51.656250,13.22
15:34:51.671875,21.26
15:34:51.687500,30.62
15:34:51.703125,40.49
15:34:51.718750,49.64
15:34:51.734375,56.78
15:34:51.750000,61.03
15:34:51.765625,62.36
15:34:51.781250,61.76
15:34:51.796875,60.84
15:34:51.812500,61.20
15:34:51.828125,63.77
15:34:51.843750,68.49
15:34:51.859375,74.40
15:34:51.875000,80.22
15:34:51.890625,84.82
15:34:51.906250,87.55
15:34:51.921875,88.26
15:34:51.937500,87.12
15:34:51.953125,84.42
15:34:51.968750,80.49
15:34:51.984375,75.70
15:34:52,70.42
15:34:52.015625,64.98
15:34:52.031250,59.56
15:34:52.046875,54.06
15:34:52.062500,48.21
15:34:52.078125,41.66
15:34:52.093750,34.14
15:34:52.109375,25.69
15:34:52.125000,16.64
15:34:52.140625,7.53
15:34:52.156250,-1.06
15:34:52.171875,-8.79
15:34:52.187500,-15.69
15:34:52.203125,-22.09
15:34:52.218750,-28.54
15:34:52.234375,-35.57
15:34:52.250000,-43.42
15:34:52.265625,-51.82
15:34:52.281250,-59.88
15:34:52.296875,-66.22
15:34:52.312500,-69.41
15:34:52.328125,-68.43
15:34:52.343750,-63.21
15:34:52.359375,-54.73
15:34:52.375000,-44.65
15:34:52.390625,-34.67
15:34:52.406250,-25.87
15:34:52.421875,-18.52
15:34:52.437500,-12.13
15:34:52.453125,-6.03
15:34:52.468750,0.22
15:34:52.484375,6.63
15:34:52.500000,12.77
15:34:52.515625,18.15
15:34:52.531250,22.43
15:34:52.546875,25.57
15:34:52.562500,27.73
15:34:52.578125,29.06
15:34:52.593750,29.55
15:34:52.609375,28.94
15:34:52.625000,26.84
15:34:52.640625,23.03
15:34:52.656250,17.61
15:34:52.671875,10.99
15:34:52.687500,3.71
15:34:52.703125,-3.79
15:34:52.718750,-11.23
15:34:52.734375,-18.47
15:34:52.750000,-25.39
15:34:52.765625,-31.84
15:34:52.781250,-37.79
15:34:52.796875,-43.43
15:34:52.812500,-49.06
15:34:52.828125,-54.90
15:34:52.843750,-60.65
15:34:52.859375,-65.39
15:34:52.875000,-67.76
15:34:52.890625,-66.59
15:34:52.906250,-61.31
15:34:52.921875,-52.23
15:34:52.937500,-40.28
15:34:52.953125,-26.72
15:34:52.968750,-12.84
15:34:52.984375,0.08
15:34:53,10.77
15:34:53.015625,18.04
15:34:53.031250,21.07
15:34:53.046875,19.65
15:34:53.062500,14.24
15:34:53.078125,5.82
15:34:53.093750,-4.42
15:34:53.109375,-15.33
15:34:53.125000,-25.85
15:34:53.140625,-35.11
15:34:53.156250,-42.52
15:34:53.171875,-47.85
15:34:53.187500,-51.37
15:34:53.203125,-53.81
15:34:53.218750,-55.96
15:34:53.234375,-58.34
15:34:53.250000,-60.88
15:34:53.265625,-62.89
15:34:53.281250,-63.47
15:34:53.296875,-61.94
15:34:53.312500,-58.18
15:34:53.328125,-52.67
15:34:53.343750,-46.36
15:34:53.359375,-40.27
15:34:53.375000,-35.15
15:34:53.390625,-31.36
15:34:53.406250,-28.80
15:34:53.421875,-27.08
15:34:53.437500,-25.63
15:34:53.453125,-23.98
15:34:53.468750,-21.80
15:34:53.484375,-19.01
15:34:53.500000,-15.71
15:34:53.515625,-12.19
15:34:53.531250,-8.80
15:34:53.546875,-5.97
15:34:53.562500,-4.34
15:34:53.578125,-4.64
15:34:53.593750,-7.50
15:34:53.609375,-13.04
15:34:53.625000,-20.45
15:34:53.640625,-27.95
15:34:53.656250,-33.28
15:34:53.671875,-34.58
15:34:53.687500,-31.19
15:34:53.703125,-23.95
15:34:53.718750,-14.68
15:34:53.734375,-5.36
15:34:53.750000,2.72
15:34:53.765625,9.08
15:34:53.781250,13.95
15:34:53.796875,17.78
15:34:53.812500,20.99
15:34:53.828125,23.99
15:34:53.843750,27.22
15:34:53.859375,31.15
15:34:53.875000,35.98
15:34:53.890625,41.42
15:34:53.906250,46.67
15:34:53.921875,50.76
15:34:53.937500,53.10
15:34:53.953125,53.85
15:34:53.968750,53.96
15:34:53.984375,54.79
15:34:54,57.59
15:34:54.015625,63.05
15:34:54.031250,71.02
15:34:54.046875,80.48
15:34:54.062500,89.79
15:34:54.078125,97.06
15:34:54.093750,100.89
15:34:54.109375,100.91
15:34:54.125000,97.97
15:34:54.140625,93.89
15:34:54.156250,90.55
15:34:54.171875,89.04
15:34:54.187500,89.11
15:34:54.203125,89.23
15:34:54.218750,87.38
15:34:54.234375,81.96
15:34:54.250000,72.49
15:34:54.265625,59.87
15:34:54.281250,45.93
15:34:54.296875,32.64
15:34:54.312500,21.47
15:34:54.328125,12.88
15:34:54.343750,6.60
15:34:54.359375,2.02
15:34:54.375000,-1.33
15:34:54.390625,-3.59
15:34:54.406250,-4.84
15:34:54.421875,-5.43
15:34:54.437500,-6.30
15:34:54.453125,-8.68
15:34:54.468750,-13.64
15:34:54.484375,-21.38
15:34:54.500000,-31.04
15:34:54.515625,-40.90
15:34:54.531250,-49.09
15:34:54.546875,-54.33
15:34:54.562500,-56.38
15:34:54.578125,-55.92
15:34:54.593750,-54.11
15:34:54.609375,-51.96
15:34:54.625000,-49.95
15:34:54.640625,-48.01
15:34:54.656250,-45.68
15:34:54.671875,-42.48
15:34:54.687500,-38.15
15:34:54.703125,-32.83
15:34:54.718750,-26.97
15:34:54.734375,-21.23
15:34:54.750000,-16.21
15:34:54.765625,-12.32
15:34:54.781250,-9.67
15:34:54.796875,-8.08
15:34:54.812500,-7.12
15:34:54.828125,-6.28
15:34:54.843750,-5.02
15:34:54.859375,-2.96
15:34:54.875000,0.19
15:34:54.890625,4.47
15:34:54.906250,9.75
15:34:54.921875,15.55
15:34:54.937500,21.16
15:34:54.953125,25.68
15:34:54.968750,28.32
15:34:54.984375,28.74
15:34:55,27.26
15:34:55.015625,24.89
15:34:55.031250,22.87
15:34:55.046875,22.24
15:34:55.062500,23.39
15:34:55.078125,25.89
15:34:55.093750,28.62
15:34:55.109375,30.10
15:34:55.125000,28.87
15:34:55.140625,23.77
15:34:55.156250,14.28
15:34:55.171875,0.92
15:34:55.187500,-14.49
15:34:55.203125,-28.87
15:34:55.218750,-38.69
15:34:55.234375,-41.21
15:34:55.250000,-35.69
15:34:55.265625,-23.87
15:34:55.281250,-9.31
15:34:55.296875,4.08
15:34:55.312500,13.69
15:34:55.328125,19.06
15:34:55.343750,21.65
15:34:55.359375,23.65
15:34:55.375000,26.69
15:34:55.390625,31.05
15:34:55.406250,35.81
15:34:55.421875,39.56
15:34:55.437500,41.16
15:34:55.453125,40.13
15:34:55.468750,36.49
15:34:55.484375,30.37
15:34:55.500000,21.66
15:34:55.515625,10.26
15:34:55.531250,-3.59
15:34:55.546875,-18.84
15:34:55.562500,-33.59
15:34:55.578125,-45.51
15:34:55.593750,-52.72
15:34:55.609375,-54.55
15:34:55.625000,-51.92
15:34:55.640625,-47.00
15:34:55.656250,-42.46
15:34:55.671875,-40.54
15:34:55.687500,-42.35
15:34:55.703125,-47.88
15:34:55.718750,-56.20
15:34:55.734375,-65.93
15:34:55.750000,-75.55
15:34:55.765625,-83.44
15:34:55.781250,-87.81
15:34:55.796875,-86.84
15:34:55.812500,-79.05
15:34:55.828125,-63.99
15:34:55.843750,-42.66
15:34:55.859375,-17.64
15:34:55.875000,7.45
15:34:55.890625,28.88
15:34:55.906250,43.90
15:34:55.921875,51.42
15:34:55.937500,52.08
15:34:55.953125,47.84
15:34:55.968750,41.16
15:34:55.984375,34.32
15:34:56,28.95
15:34:56.015625,25.85
15:34:56.031250,25.12
15:34:56.046875,26.37
15:34:56.062500,28.86
15:34:56.078125,31.77
15:34:56.093750,34.38
15:34:56.109375,36.24
15:34:56.125000,37.24
15:34:56.140625,37.56
15:34:56.156250,37.43
15:34:56.171875,37.09
15:34:56.187500,36.73
15:34:56.203125,36.53
15:34:56.218750,36.70
15:34:56.234375,37.39
15:34:56.250000,38.58
15:34:56.265625,39.86
15:34:56.281250,40.55
15:34:56.296875,39.82
15:34:56.312500,37.08
15:34:56.328125,32.25
15:34:56.343750,25.85
15:34:56.359375,18.81
15:34:56.375000,12.11
15:34:56.390625,6.55
15:34:56.406250,2.53
15:34:56.421875,0.22
15:34:56.437500,-0.40
15:34:56.453125,0.47
15:34:56.468750,2.33
15:34:56.484375,4.20
15:34:56.500000,4.61
15:34:56.515625,1.80
15:34:56.531250,-5.73
15:34:56.546875,-18.70
15:34:56.562500,-36.56
15:34:56.578125,-57.44
15:34:56.593750,-78.44
15:34:56.609375,-96.38
15:34:56.625000,-108.57
15:34:56.640625,-113.62
15:34:56.656250,-111.69
15:34:56.671875,-104.37
15:34:56.687500,-94.11
15:34:56.703125,-83.32
15:34:56.718750,-73.62
15:34:56.734375,-65.34
15:34:56.750000,-57.61
15:34:56.765625,-48.85
15:34:56.781250,-37.57
15:34:56.796875,-23.07
15:34:56.812500,-5.77
15:34:56.828125,12.82
15:34:56.843750,30.64
15:34:56.859375,45.63
15:34:56.875000,56.12
15:34:56.890625,61.13
15:34:56.906250,60.28
15:34:56.921875,53.92
15:34:56.937500,43.07
15:34:56.953125,29.41
15:34:56.968750,15.07
15:34:56.984375,2.24
15:34:57,-7.39
15:34:57.015625,-13.03
15:34:57.031250,-14.81
15:34:57.046875,-13.25
15:34:57.062500,-8.65
15:34:57.078125,-0.71
15:34:57.093750,11.04
15:34:57.109375,26.30
15:34:57.125000,43.33
15:34:57.140625,58.96
15:34:57.156250,69.85
15:34:57.171875,74.09
15:34:57.187500,72.27
15:34:57.203125,67.21
15:34:57.218750,62.58
15:34:57.234375,61.09
15:34:57.250000,63.16
15:34:57.265625,66.60
15:34:57.281250,67.51
15:34:57.296875,62.07
15:34:57.312500,48.35
15:34:57.328125,27.32
15:34:57.343750,2.64
15:34:57.359375,-20.68
15:34:57.375000,-38.33
15:34:57.390625,-48.45
15:34:57.406250,-52.30
15:34:57.421875,-53.36
15:34:57.437500,-55.35
15:34:57.453125,-60.31
15:34:57.468750,-67.79
15:34:57.484375,-75.50
15:34:57.500000,-80.98
15:34:57.515625,-83.09
15:34:57.531250,-82.44
15:34:57.546875,-80.47
15:34:57.562500,-78.31
15:34:57.578125,-75.95
15:34:57.593750,-72.48
15:34:57.609375,-66.92
15:34:57.625000,-58.89
15:34:57.640625,-48.81
15:34:57.656250,-37.58
15:34:57.671875,-25.97
15:34:57.687500,-14.24
15:34:57.703125,-2.25
15:34:57.718750,10.17
15:34:57.734375,22.68
15:34:57.750000,34.24
15:34:57.765625,43.17
15:34:57.781250,47.58
15:34:57.796875,46.05
15:34:57.812500,38.41
15:34:57.828125,26.14
15:34:57.843750,12.06
15:34:57.859375,-0.62
15:34:57.875000,-9.50
15:34:57.890625,-13.97
15:34:57.906250,-15.40
15:34:57.921875,-16.39
15:34:57.937500,-19.46
15:34:57.953125,-25.82
15:34:57.968750,-34.88
15:34:57.984375,-44.56
15:34:58,-52.26
15:34:58.015625,-55.98
15:34:58.031250,-54.96
15:34:58.046875,-49.81
15:34:58.062500,-41.87
15:34:58.078125,-32.52
15:34:58.093750,-22.63
15:34:58.109375,-12.46
15:34:58.125000,-2.04
15:34:58.140625,8.41
15:34:58.156250,18.15
15:34:58.171875,26.17
15:34:58.187500,31.70
15:34:58.203125,34.67
15:34:58.218750,35.82
15:34:58.234375,36.29
15:34:58.250000,37.00
15:34:58.265625,38.24
15:34:58.281250,39.66
15:34:58.296875,40.73
15:34:58.312500,41.25
15:34:58.328125,41.48
15:34:58.343750,41.91
15:34:58.359375,42.81
15:34:58.375000,43.90
15:34:58.390625,44.39
15:34:58.406250,43.25
15:34:58.421875,39.62
15:34:58.437500,33.21
15:34:58.453125,24.37
15:34:58.468750,13.98
15:34:58.484375,3.09
15:34:58.500000,-7.38
15:34:58.515625,-17.05
15:34:58.531250,-26.10
15:34:58.546875,-35.18
15:34:58.562500,-44.86
15:34:58.578125,-55.20
15:34:58.593750,-65.40
15:34:58.609375,-73.84
15:34:58.625000,-78.68
15:34:58.640625,-78.48
15:34:58.656250,-72.85
15:34:58.671875,-62.53
15:34:58.687500,-49.19
15:34:58.703125,-34.85
15:34:58.718750,-21.40
15:34:58.734375,-10.22
15:34:58.750000,-2.09
15:34:58.765625,2.66
15:34:58.781250,4.10
15:34:58.796875,2.58
15:34:58.812500,-1.26
15:34:58.828125,-6.48
15:34:58.843750,-11.94
15:34:58.859375,-16.51
15:34:58.875000,-19.32
15:34:58.890625,-19.92
15:34:58.906250,-18.44
15:34:58.921875,-15.48
15:34:58.937500,-12.00
15:34:58.953125,-8.89
15:34:58.968750,-6.71
15:34:58.984375,-5.52
15:34:59,-4.89
15:34:59.015625,-4.20
15:34:59.031250,-3.03
15:34:59.046875,-1.43
15:34:59.062500,0.08
15:34:59.078125,0.84
15:34:59.093750,0.45
15:34:59.109375,-0.95
15:34:59.125000,-2.66
15:34:59.140625,-3.73
15:34:59.156250,-3.43
15:34:59.171875,-1.51
15:34:59.187500,1.70
15:34:59.203125,5.50
15:34:59.218750,9.05
15:34:59.234375,11.55
15:34:59.250000,12.27
15:34:59.265625,10.61
15:34:59.281250,6.26
15:34:59.296875,-0.61
15:34:59.312500,-9.18
15:34:59.328125,-18.10
15:34:59.343750,-25.76
15:34:59.359375,-30.80
15:34:59.375000,-32.48
15:34:59.390625,-30.87
15:34:59.406250,-26.64
15:34:59.421875,-20.81
15:34:59.437500,-14.45
15:34:59.453125,-8.43
15:34:59.468750,-3.38
15:34:59.484375,0.34
15:34:59.500000,2.72
15:34:59.515625,4.14
15:34:59.531250,5.27
15:34:59.546875,6.91
15:34:59.562500,9.60
15:34:59.578125,13.33
15:34:59.593750,17.53
15:34:59.609375,21.33
15:34:59.625000,24.00
15:34:59.640625,25.29
15:34:59.656250,25.61
15:34:59.671875,25.75
15:34:59.687500,26.44
15:34:59.703125,27.98
15:34:59.718750,30.08
15:34:59.734375,32.05
15:34:59.750000,33.10
15:34:59.765625,32.56
15:34:59.781250,30.05
15:34:59.796875,25.42
15:34:59.812500,18.87
15:34:59.828125,10.98
15:34:59.843750,2.86
15:34:59.859375,-4.06
15:34:59.875000,-8.35
15:34:59.890625,-9.27
15:34:59.906250,-7.10
15:34:59.921875,-3.09
15:34:59.937500,1.19
15:34:59.953125,4.80
15:34:59.968750,8.04
15:34:59.984375,12.26
15:35:00,18.93
15:35:00.015625,28.61
15:35:00.031250,40.25
15:35:00.046875,51.57
15:35:00.062500,60.08
15:35:00.078125,64.22
15:35:00.093750,63.86
15:35:00.109375,60.10
15:35:00.125000,54.50
15:35:00.140625,48.28
15:35:00.156250,42.09
15:35:00.171875,35.93
15:35:00.187500,29.37
15:35:00.203125,21.79
15:35:00.218750,12.60
15:35:00.234375,1.44
15:35:00.250000,-11.26
15:35:00.265625,-24.08
15:35:00.281250,-34.74
15:35:00.296875,-40.95
15:35:00.312500,-41.60
15:35:00.328125,-37.47
15:35:00.343750,-31.05
15:35:00.359375,-25.30
15:35:00.375000,-22.09
15:35:00.390625,-21.22
15:35:00.406250,-20.69
15:35:00.421875,-17.94
15:35:00.437500,-11.40
15:35:00.453125,-1.36
15:35:00.468750,10.23
15:35:00.484375,21.04
15:35:00.500000,29.44
15:35:00.515625,35.32
15:35:00.531250,39.74
15:35:00.546875,44.05
15:35:00.562500,48.84
15:35:00.578125,53.64
15:35:00.593750,57.13
15:35:00.609375,57.91
15:35:00.625000,55.31
15:35:00.640625,49.81
15:35:00.656250,42.85
15:35:00.671875,36.16
15:35:00.687500,30.89
15:35:00.703125,27.16
15:35:00.718750,24.21
15:35:00.734375,20.94
15:35:00.750000,16.41
15:35:00.765625,10.15
15:35:00.781250,2.03
15:35:00.796875,-7.74
15:35:00.812500,-18.59
15:35:00.828125,-29.20
15:35:00.843750,-37.35
15:35:00.859375,-40.29
15:35:00.875000,-35.67
15:35:00.890625,-22.64
15:35:00.906250,-2.57
15:35:00.921875,21.28
15:35:00.937500,45.03
15:35:00.953125,65.64
15:35:00.968750,81.69
15:35:00.984375,93.29
15:35:01,101.12
15:35:01.015625,105.57
15:35:01.031250,106.52
15:35:01.046875,103.70
15:35:01.062500,97.12
15:35:01.078125,87.18
15:35:01.093750,74.40
15:35:01.109375,59.06
15:35:01.125000,41.18
15:35:01.140625,20.94
15:35:01.156250,-0.86
15:35:01.171875,-22.62
15:35:01.187500,-42.32
15:35:01.203125,-58.34
15:35:01.218750,-70.10
15:35:01.234375,-78.18
15:35:01.250000,-83.85
15:35:01.265625,-88.19
15:35:01.281250,-91.56
15:35:01.296875,-93.53
15:35:01.312500,-93.45
15:35:01.328125,-90.90
15:35:01.343750,-86.04
15:35:01.359375,-79.45
15:35:01.375000,-71.63
15:35:01.390625,-62.76
15:35:01.406250,-52.50
15:35:01.421875,-40.41
15:35:01.437500,-26.30
15:35:01.453125,-10.59
15:35:01.468750,5.70
15:35:01.484375,21.22
15:35:01.500000,34.75
15:35:01.515625,45.71
15:35:01.531250,54.26
15:35:01.546875,61.20
15:35:01.562500,67.52
15:35:01.578125,73.96
15:35:01.593750,80.77
15:35:01.609375,87.60
15:35:01.625000,93.72
15:35:01.640625,98.40
15:35:01.656250,101.25
15:35:01.671875,102.42
15:35:01.687500,102.51
15:35:01.703125,102.35
15:35:01.718750,102.67
15:35:01.734375,103.77
15:35:01.750000,105.42
15:35:01.765625,106.95
15:35:01.781250,107.47
15:35:01.796875,106.28
15:35:01.812500,103.02
15:35:01.828125,97.94
15:35:01.843750,91.77
15:35:01.859375,85.49
15:35:01.875000,79.97
15:35:01.890625,75.48
15:35:01.906250,71.37
15:35:01.921875,66.00
15:35:01.937500,57.19
15:35:01.953125,42.88
15:35:01.968750,21.98
15:35:01.984375,-5.11
15:35:02,-36.54
15:35:02.015625,-69.56
15:35:02.031250,-101.46
15:35:02.046875,-130.52
15:35:02.062500,-156.50
15:35:02.078125,-180.59
15:35:02.093750,-204.64
15:35:02.109375,-230.12
15:35:02.125000,-257.05
15:35:02.140625,-283.26
15:35:02.156250,-304.51
15:35:02.171875,-315.44
15:35:02.187500,-311.29
15:35:02.203125,-289.83
15:35:02.218750,-252.75
15:35:02.234375,-205.78
15:35:02.250000,-157.28
15:35:02.265625,-115.62
15:35:02.281250,-86.57
15:35:02.296875,-71.72
15:35:02.312500,-68.55
15:35:02.328125,-71.93
15:35:02.343750,-76.38
15:35:02.359375,-77.77
15:35:02.375000,-74.05
15:35:02.390625,-64.75
15:35:02.406250,-50.18
15:35:02.421875,-30.72
15:35:02.437500,-6.92
15:35:02.453125,19.98
15:35:02.468750,47.66
15:35:02.484375,72.98
15:35:02.500000,92.88
15:35:02.515625,105.56
15:35:02.531250,111.21
15:35:02.546875,111.82
15:35:02.562500,110.14
15:35:02.578125,108.30
15:35:02.593750,106.97
15:35:02.609375,105.27
15:35:02.625000,101.58
15:35:02.640625,94.78
15:35:02.656250,85.04
15:35:02.671875,74.00
15:35:02.687500,63.89
15:35:02.703125,56.44
15:35:02.718750,52.00
15:35:02.734375,49.47
15:35:02.750000,46.95
15:35:02.765625,42.84
15:35:02.781250,36.65
15:35:02.796875,29.25
15:35:02.812500,22.27
15:35:02.828125,17.24
15:35:02.843750,14.79
15:35:02.859375,14.46
15:35:02.875000,15.08
15:35:02.890625,15.55
15:35:02.906250,15.41
15:35:02.921875,15.01
15:35:02.937500,15.16
15:35:02.953125,16.58
15:35:02.968750,19.50
15:35:02.984375,23.53
15:35:03,27.96
15:35:03.015625,32.17
15:35:03.031250,35.87
15:35:03.046875,39.22
15:35:03.062500,42.61
15:35:03.078125,46.28
15:35:03.093750,50.20
15:35:03.109375,53.92
15:35:03.125000,56.77
15:35:03.140625,58.23
15:35:03.156250,58.08
15:35:03.171875,56.51
15:35:03.187500,54.00
15:35:03.203125,51.12
15:35:03.218750,48.35
15:35:03.234375,45.96
15:35:03.250000,44.08
15:35:03.265625,42.71
15:35:03.281250,41.77
15:35:03.296875,41.06
15:35:03.312500,40.27
15:35:03.328125,39.00
15:35:03.343750,36.94
15:35:03.359375,34.01
15:35:03.375000,30.49
15:35:03.390625,26.90
15:35:03.406250,23.83
15:35:03.421875,21.66
15:35:03.437500,20.52
15:35:03.453125,20.39
15:35:03.468750,21.31
15:35:03.484375,23.51
15:35:03.500000,27.32
15:35:03.515625,32.88
15:35:03.531250,39.85
15:35:03.546875,47.36
15:35:03.562500,54.26
15:35:03.578125,59.49
15:35:03.593750,62.51
15:35:03.609375,63.42
15:35:03.625000,62.85
15:35:03.640625,61.68
15:35:03.656250,60.70
15:35:03.671875,60.42
15:35:03.687500,60.95
15:35:03.703125,62.02
15:35:03.718750,63.08
15:35:03.734375,63.43
15:35:03.750000,62.61
15:35:03.765625,60.68
15:35:03.781250,58.34
15:35:03.796875,56.78
15:35:03.812500,57.05
15:35:03.828125,59.55
15:35:03.843750,63.58
15:35:03.859375,67.48
15:35:03.875000,69.15
15:35:03.890625,66.65
15:35:03.906250,58.73
15:35:03.921875,44.94
15:35:03.937500,25.48
15:35:03.953125,1.14
15:35:03.968750,-26.65
15:35:03.984375,-55.64
15:35:04,-82.75
15:35:04.015625,-104.63
15:35:04.031250,-118.56
15:35:04.046875,-123.52
15:35:04.062500,-120.57
15:35:04.078125,-112.50
15:35:04.093750,-102.53
15:35:04.109375,-93.11
15:35:04.125000,-85.12
15:35:04.140625,-78.01
15:35:04.156250,-70.76
15:35:04.171875,-62.81
15:35:04.187500,-54.48
15:35:04.203125,-46.80
15:35:04.218750,-40.69
15:35:04.234375,-36.45
15:35:04.250000,-33.55
15:35:04.265625,-30.97
15:35:04.281250,-27.79
15:35:04.296875,-23.52
15:35:04.312500,-18.28
15:35:04.328125,-12.56
15:35:04.343750,-7.00
15:35:04.359375,-2.19
15:35:04.375000,1.39
15:35:04.390625,3.44
15:35:04.406250,3.93
15:35:04.421875,3.03
15:35:04.437500,1.16
15:35:04.453125,-1.03
15:35:04.468750,-2.83
15:35:04.484375,-3.63
15:35:04.500000,-3.06
15:35:04.515625,-1.13
15:35:04.531250,1.72
15:35:04.546875,4.73
15:35:04.562500,6.93
15:35:04.578125,7.48
15:35:04.593750,5.95
15:35:04.609375,2.36
15:35:04.625000,-2.86
15:35:04.640625,-9.06
15:35:04.656250,-15.63
15:35:04.671875,-22.12
15:35:04.687500,-28.22
15:35:04.703125,-33.69
15:35:04.718750,-38.24
15:35:04.734375,-41.58
15:35:04.750000,-43.55
15:35:04.765625,-44.15
15:35:04.781250,-43.61
15:35:04.796875,-42.33
15:35:04.812500,-40.76
15:35:04.828125,-39.34
15:35:04.843750,-38.34
15:35:04.859375,-37.81
15:35:04.875000,-37.48
15:35:04.890625,-36.91
15:35:04.906250,-35.58
15:35:04.921875,-33.17
15:35:04.937500,-29.72
15:35:04.953125,-25.58
15:35:04.968750,-21.35
15:35:04.984375,-17.50
15:35:05,-14.17
15:35:05.015625,-11.14
15:35:05.031250,-7.99
15:35:05.046875,-4.20
15:35:05.062500,0.80
15:35:05.078125,7.50
15:35:05.093750,16.26
15:35:05.109375,26.97
15:35:05.125000,38.76
15:35:05.140625,49.97
15:35:05.156250,58.56
15:35:05.171875,62.86
15:35:05.187500,62.31
15:35:05.203125,57.66
15:35:05.218750,50.58
15:35:05.234375,42.81
15:35:05.250000,35.41
15:35:05.265625,28.52
15:35:05.281250,21.68
15:35:05.296875,14.40
15:35:05.312500,6.58
15:35:05.328125,-1.50
15:35:05.343750,-9.49
15:35:05.359375,-17.27
15:35:05.375000,-25.01
15:35:05.390625,-32.96
15:35:05.406250,-41.17
15:35:05.421875,-49.43
15:35:05.437500,-57.34
15:35:05.453125,-64.58
15:35:05.468750,-71.09
15:35:05.484375,-77.04
15:35:05.500000,-82.69
15:35:05.515625,-88.21
15:35:05.531250,-93.55
15:35:05.546875,-98.42
15:35:05.562500,-102.36
15:35:05.578125,-104.80
15:35:05.593750,-105.21
15:35:05.609375,-103.18
15:35:05.625000,-98.61
15:35:05.640625,-91.75
15:35:05.656250,-83.18
15:35:05.671875,-73.67
15:35:05.687500,-63.96
15:35:05.703125,-54.61
15:35:05.718750,-45.89
15:35:05.734375,-37.94
15:35:05.750000,-30.87
15:35:05.765625,-24.73
15:35:05.781250,-19.46
15:35:05.796875,-14.86
15:35:05.812500,-10.57
15:35:05.828125,-6.19
15:35:05.843750,-1.38
15:35:05.859375,4.02
15:35:05.875000,10.07
15:35:05.890625,16.73
15:35:05.906250,23.79
15:35:05.921875,30.89
15:35:05.937500,37.46
15:35:05.953125,42.75
15:35:05.968750,46.04
15:35:05.984375,46.85
15:35:06,45.09
15:35:06.015625,40.90
15:35:06.031250,34.52
15:35:06.046875,26.03
15:35:06.062500,15.43
15:35:06.078125,2.74
15:35:06.093750,-11.73
15:35:06.109375,-27.24
15:35:06.125000,-42.74
15:35:06.140625,-57.15
15:35:06.156250,-69.58
15:35:06.171875,-79.51
15:35:06.187500,-86.79
15:35:06.203125,-91.54
15:35:06.218750,-94.12
15:35:06.234375,-95.09
15:35:06.250000,-95.13
15:35:06.265625,-94.73
15:35:06.281250,-93.95
15:35:06.296875,-92.15
15:35:06.312500,-88.19
15:35:06.328125,-80.92
15:35:06.343750,-69.80
15:35:06.359375,-55.36
15:35:06.375000,-39.12
15:35:06.390625,-23.06
15:35:06.406250,-8.86
15:35:06.421875,2.64
15:35:06.437500,11.54
15:35:06.453125,18.48
15:35:06.468750,24.21
15:35:06.484375,29.16
15:35:06.500000,33.46
15:35:06.515625,37.16
15:35:06.531250,40.50
15:35:06.546875,44.00
15:35:06.562500,48.30
15:35:06.578125,53.82
15:35:06.593750,60.49
15:35:06.609375,67.64
15:35:06.625000,74.18
15:35:06.640625,78.93
15:35:06.656250,81.10
15:35:06.671875,80.60
15:35:06.687500,77.99
15:35:06.703125,74.24
15:35:06.718750,70.27
15:35:06.734375,66.57
15:35:06.750000,63.08
15:35:06.765625,59.38
15:35:06.781250,55.06
15:35:06.796875,49.92
15:35:06.812500,44.14
15:35:06.828125,38.07
15:35:06.843750,32.04
15:35:06.859375,26.10
15:35:06.875000,20.11
15:35:06.890625,13.80
15:35:06.906250,7.02
15:35:06.921875,-0.16
15:35:06.937500,-7.42
15:35:06.953125,-14.39
15:35:06.968750,-20.76
15:35:06.984375,-26.35
15:35:07,-31.07
15:35:07.015625,-34.82
15:35:07.031250,-37.37
15:35:07.046875,-38.52
15:35:07.062500,-38.10
15:35:07.078125,-36.28
15:35:07.093750,-33.53
15:35:07.109375,-30.54
15:35:07.125000,-27.92
15:35:07.140625,-26.04
15:35:07.156250,-24.94
15:35:07.171875,-24.41
15:35:07.187500,-24.19
15:35:07.203125,-24.05
15:35:07.218750,-23.86
15:35:07.234375,-23.59
15:35:07.250000,-23.18
15:35:07.265625,-22.54
15:35:07.281250,-21.65
15:35:07.296875,-20.40
15:35:07.312500,-18.79
15:35:07.328125,-16.96
15:35:07.343750,-15.21
15:35:07.359375,-14.03
15:35:07.375000,-13.91
15:35:07.390625,-15.14
15:35:07.406250,-17.57
15:35:07.421875,-20.57
15:35:07.437500,-23.21
15:35:07.453125,-24.53
15:35:07.468750,-23.93
15:35:07.484375,-21.37
15:35:07.500000,-17.32
15:35:07.515625,-12.57
15:35:07.531250,-7.88
15:35:07.546875,-3.86
15:35:07.562500,-0.84
15:35:07.578125,1.05
15:35:07.593750,1.86
15:35:07.609375,1.80
15:35:07.625000,1.14
15:35:07.640625,0.24
15:35:07.656250,-0.62
15:35:07.671875,-1.21
15:35:07.687500,-1.45
15:35:07.703125,-1.35
15:35:07.718750,-1.01
15:35:07.734375,-0.63
15:35:07.750000,-0.33
15:35:07.765625,-0.08
15:35:07.781250,0.43
15:35:07.796875,1.79
15:35:07.812500,4.55
15:35:07.828125,8.99
15:35:07.843750,14.79
15:35:07.859375,21.05
15:35:07.875000,26.56
15:35:07.890625,30.31
15:35:07.906250,31.99
15:35:07.921875,32.07
15:35:07.937500,31.68
15:35:07.953125,32.07
15:35:07.968750,34.12
15:35:07.984375,38.07
15:35:08,43.48
15:35:08.015625,49.39
15:35:08.031250,54.74
15:35:08.046875,58.60
15:35:08.062500,60.51
15:35:08.078125,60.60
15:35:08.093750,59.56
15:35:08.109375,58.30
15:35:08.125000,57.56
15:35:08.140625,57.54
15:35:08.156250,57.80
15:35:08.171875,57.50
15:35:08.187500,55.83
15:35:08.203125,52.38
15:35:08.218750,47.28
15:35:08.234375,40.94
15:35:08.250000,33.79
15:35:08.265625,26.03
15:35:08.281250,17.57
15:35:08.296875,8.11
15:35:08.312500,-2.57
15:35:08.328125,-14.38
15:35:08.343750,-26.98
15:35:08.359375,-39.80
15:35:08.375000,-52.26
15:35:08.390625,-63.97
15:35:08.406250,-74.77
15:35:08.421875,-84.67
15:35:08.437500,-93.57
15:35:08.453125,-101.16
15:35:08.468750,-106.90
15:35:08.484375,-110.24
15:35:08.500000,-110.99
15:35:08.515625,-109.52
15:35:08.531250,-106.69
15:35:08.546875,-103.51
15:35:08.562500,-100.69
15:35:08.578125,-98.34
15:35:08.593750,-96.09
15:35:08.609375,-93.37
15:35:08.625000,-89.77
15:35:08.640625,-85.11
15:35:08.656250,-79.26
15:35:08.671875,-71.88
15:35:08.687500,-62.40
15:35:08.703125,-50.25
15:35:08.718750,-35.31
15:35:08.734375,-18.26
15:35:08.750000,-0.50
15:35:08.765625,16.34
15:35:08.781250,30.91
15:35:08.796875,42.53
15:35:08.812500,51.12
15:35:08.828125,56.92
15:35:08.843750,60.19
15:35:08.859375,61.27
15:35:08.875000,60.80
15:35:08.890625,59.76
15:35:08.906250,59.30
15:35:08.921875,60.01
15:35:08.937500,61.51
15:35:08.953125,62.48
15:35:08.968750,61.28
15:35:08.984375,57.00
15:35:09,50.00
15:35:09.015625,41.90
15:35:09.031250,34.77
15:35:09.046875,30.14
15:35:09.062500,28.60
15:35:09.078125,29.87
15:35:09.093750,33.31
15:35:09.109375,38.45
15:35:09.125000,45.05
15:35:09.140625,52.81
15:35:09.156250,61.04
15:35:09.171875,68.72
15:35:09.187500,74.66
15:35:09.203125,77.90
15:35:09.218750,78.00
15:35:09.234375,75.05
15:35:09.250000,69.51
15:35:09.265625,62.04
15:35:09.281250,53.36
15:35:09.296875,44.20
15:35:09.312500,35.24
15:35:09.328125,26.94
15:35:09.343750,19.51
15:35:09.359375,12.86
15:35:09.375000,6.58
15:35:09.390625,0.16
15:35:09.406250,-7.00
15:35:09.421875,-15.36
15:35:09.437500,-25.13
15:35:09.453125,-36.17
15:35:09.468750,-47.91
15:35:09.484375,-59.43
15:35:09.500000,-69.85
15:35:09.515625,-78.55
15:35:09.531250,-85.43
15:35:09.546875,-90.88
15:35:09.562500,-95.48
15:35:09.578125,-99.61
15:35:09.593750,-103.10
15:35:09.609375,-105.10
15:35:09.625000,-104.19
15:35:09.640625,-98.99
15:35:09.656250,-88.82
15:35:09.671875,-74.25
15:35:09.687500,-57.22
15:35:09.703125,-40.44
15:35:09.718750,-26.57
15:35:09.734375,-17.17
15:35:09.750000,-12.23
15:35:09.765625,-10.18
15:35:09.781250,-8.75
15:35:09.796875,-5.94
15:35:09.812500,-0.65
15:35:09.828125,7.03
15:35:09.843750,16.31
15:35:09.859375,26.32
15:35:09.875000,36.35
15:35:09.890625,45.83
15:35:09.906250,54.05
15:35:09.921875,60.22
15:35:09.937500,63.73
15:35:09.953125,64.65
15:35:09.968750,63.92
15:35:09.984375,63.05
15:35:10,63.48
15:35:10.015625,65.87
15:35:10.031250,69.80
15:35:10.046875,74.09
15:35:10.062500,77.49
15:35:10.078125,79.20
15:35:10.093750,79.09
15:35:10.109375,77.46
15:35:10.125000,74.76
15:35:10.140625,71.32
15:35:10.156250,67.43
15:35:10.171875,63.41
15:35:10.187500,59.68
15:35:10.203125,56.72
15:35:10.218750,54.77
15:35:10.234375,53.80
15:35:10.250000,53.45
15:35:10.265625,53.17
15:35:10.281250,52.39
15:35:10.296875,50.72
15:35:10.312500,48.03
15:35:10.328125,44.46
15:35:10.343750,40.39
15:35:10.359375,36.33
15:35:10.375000,32.86
15:35:10.390625,30.58
15:35:10.406250,30.02
15:35:10.421875,31.51
15:35:10.437500,35.04
15:35:10.453125,40.31
15:35:10.468750,46.67
15:35:10.484375,53.33
15:35:10.500000,59.59
15:35:10.515625,64.99
15:35:10.531250,69.42
15:35:10.546875,73.10
15:35:10.562500,76.50
15:35:10.578125,80.03
15:35:10.593750,83.85
15:35:10.609375,87.49
15:35:10.625000,89.85
15:35:10.640625,89.32
15:35:10.656250,84.35
15:35:10.671875,74.09
15:35:10.687500,58.94
15:35:10.703125,40.52
15:35:10.718750,21.16
15:35:10.734375,3.04
15:35:10.750000,-12.58
15:35:10.765625,-25.60
15:35:10.781250,-36.78
15:35:10.796875,-47.12
15:35:10.812500,-57.32
15:35:10.828125,-67.44
15:35:10.843750,-77.00
15:35:10.859375,-85.28
15:35:10.875000,-91.69
15:35:10.890625,-96.03
15:35:10.906250,-98.51
15:35:10.921875,-99.65
15:35:10.937500,-100.04
15:35:10.953125,-100.12
15:35:10.968750,-100.08
15:35:10.984375,-99.89
15:35:11,-99.49
15:35:11.015625,-98.88
15:35:11.031250,-98.23
15:35:11.046875,-97.73
15:35:11.062500,-97.43
15:35:11.078125,-97.12
15:35:11.093750,-96.41
15:35:11.109375,-94.86
15:35:11.125000,-92.24
15:35:11.140625,-88.58
15:35:11.156250,-84.19
15:35:11.171875,-79.50
15:35:11.187500,-74.95
15:35:11.203125,-70.90
15:35:11.218750,-67.70
15:35:11.234375,-65.63
15:35:11.250000,-64.92
15:35:11.265625,-65.55
15:35:11.281250,-67.22
15:35:11.296875,-69.29
15:35:11.312500,-70.97
15:35:11.328125,-71.45
15:35:11.343750,-70.04
15:35:11.359375,-66.24
15:35:11.375000,-59.68
15:35:11.390625,-50.23
15:35:11.406250,-38.04
15:35:11.421875,-23.64
15:35:11.437500,-7.88
15:35:11.453125,8.24
15:35:11.468750,23.92
15:35:11.484375,38.85
15:35:11.500000,53.24
15:35:11.515625,67.58
15:35:11.531250,82.18
15:35:11.546875,96.74
15:35:11.562500,110.25
15:35:11.578125,121.19
15:35:11.593750,128.05
15:35:11.609375,129.84
15:35:11.625000,126.38
15:35:11.640625,118.33
15:35:11.656250,106.89
15:35:11.671875,93.54
15:35:11.687500,79.64
15:35:11.703125,66.31
15:35:11.718750,54.33
15:35:11.734375,44.21
15:35:11.750000,36.19
15:35:11.765625,30.41
15:35:11.781250,26.78
15:35:11.796875,24.98
15:35:11.812500,24.30
15:35:11.828125,23.67
15:35:11.843750,22.04
15:35:11.859375,18.89
15:35:11.875000,14.57
15:35:11.890625,10.20
15:35:11.906250,7.19
15:35:11.921875,6.40
15:35:11.937500,7.64
15:35:11.953125,9.77
15:35:11.968750,11.30
15:35:11.984375,11.31
15:35:12,9.88
15:35:12.015625,7.89
15:35:12.031250,6.07
15:35:12.046875,4.18
15:35:12.062500,0.94
15:35:12.078125,-5.09
15:35:12.093750,-14.26
15:35:12.109375,-25.20
15:35:12.125000,-35.52
15:35:12.140625,-43.24
15:35:12.156250,-48.11
15:35:12.171875,-51.45
15:35:12.187500,-54.74
15:35:12.203125,-57.90
15:35:12.218750,-58.63
15:35:12.234375,-53.50
15:35:12.250000,-40.38
15:35:12.265625,-20.33
15:35:12.281250,2.15
15:35:12.296875,21.02
15:35:12.312500,31.38
15:35:12.328125,31.61
15:35:12.343750,23.65
15:35:12.359375,11.47
15:35:12.375000,-1.12
15:35:12.390625,-11.98
15:35:12.406250,-20.78
15:35:12.421875,-28.07
15:35:12.437500,-34.27
15:35:12.453125,-39.18
15:35:12.468750,-42.37
15:35:12.484375,-43.87
15:35:12.500000,-44.60
15:35:12.515625,-45.97
15:35:12.531250,-49.11
15:35:12.546875,-53.94
15:35:12.562500,-59.01
15:35:12.578125,-62.06
15:35:12.593750,-61.18
15:35:12.609375,-55.84
15:35:12.625000,-47.21
15:35:12.640625,-37.42
15:35:12.656250,-28.58
15:35:12.671875,-21.83
15:35:12.687500,-17.26
15:35:12.703125,-14.47
15:35:12.718750,-13.20
15:35:12.734375,-13.64
15:35:12.750000,-16.09
15:35:12.765625,-20.59
15:35:12.781250,-26.61
15:35:12.796875,-33.13
15:35:12.812500,-39.10
15:35:12.828125,-43.87
15:35:12.843750,-47.34
15:35:12.859375,-49.89
15:35:12.875000,-52.11
15:35:12.890625,-54.58
15:35:12.906250,-57.68
15:35:12.921875,-61.51
15:35:12.937500,-65.87
15:35:12.953125,-70.35
15:35:12.968750,-74.33
15:35:12.984375,-76.98
15:35:13,-77.17
15:35:13.015625,-73.46
15:35:13.031250,-64.39
15:35:13.046875,-49.09
15:35:13.062500,-27.97
15:35:13.078125,-2.97
15:35:13.093750,22.86
15:35:13.109375,46.25
15:35:13.125000,64.81
15:35:13.140625,77.65
15:35:13.156250,85.20
15:35:13.171875,88.60
15:35:13.187500,88.94
15:35:13.203125,86.96
15:35:13.218750,83.14
15:35:13.234375,77.99
15:35:13.250000,72.28
15:35:13.265625,66.82
15:35:13.281250,62.10
15:35:13.296875,58.03
15:35:13.312500,54.13
15:35:13.328125,49.99
15:35:13.343750,45.58
15:35:13.359375,41.37
15:35:13.375000,37.88
15:35:13.390625,35.17
15:35:13.406250,32.45
15:35:13.421875,28.38
15:35:13.437500,21.68
15:35:13.453125,12.15
15:35:13.468750,1.02
15:35:13.484375,-9.34
15:35:13.500000,-16.48
15:35:13.515625,-19.04
15:35:13.531250,-17.56
15:35:13.546875,-14.24
15:35:13.562500,-11.85
15:35:13.578125,-12.43
15:35:13.593750,-16.36
15:35:13.609375,-22.23
15:35:13.625000,-27.63
15:35:13.640625,-30.16
15:35:13.656250,-28.53
15:35:13.671875,-23.08
15:35:13.687500,-15.65
15:35:13.703125,-8.73
15:35:13.718750,-4.44
15:35:13.734375,-3.65
15:35:13.750000,-5.58
15:35:13.765625,-8.14
15:35:13.781250,-8.89
15:35:13.796875,-6.16
15:35:13.812500,0.24
15:35:13.828125,9.02
15:35:13.843750,18.06
15:35:13.859375,25.38
15:35:13.875000,29.98
15:35:13.890625,32.03
15:35:13.906250,32.57
15:35:13.921875,32.73
15:35:13.937500,32.99
15:35:13.953125,33.02
15:35:13.968750,31.94
15:35:13.984375,29.03
15:35:14,24.33
15:35:14.015625,18.80
15:35:14.031250,13.97
15:35:14.046875,10.98
15:35:14.062500,10.05
15:35:14.078125,10.33
15:35:14.093750,10.52
15:35:14.109375,9.67
15:35:14.125000,7.71
15:35:14.140625,5.23
15:35:14.156250,2.83
15:35:14.171875,0.63
15:35:14.187500,-1.78
15:35:14.203125,-4.73
15:35:14.218750,-7.98
15:35:14.234375,-10.72
15:35:14.250000,-12.02
15:35:14.265625,-11.67
15:35:14.281250,-10.39
15:35:14.296875,-9.55
15:35:14.312500,-10.36
15:35:14.328125,-13.24
15:35:14.343750,-17.65
15:35:14.359375,-22.50
15:35:14.375000,-26.77
15:35:14.390625,-29.90
15:35:14.406250,-31.82
15:35:14.421875,-32.57
15:35:14.437500,-32.03
15:35:14.453125,-29.87
15:35:14.468750,-25.96
15:35:14.484375,-20.81
15:35:14.500000,-15.54
15:35:14.515625,-11.58
15:35:14.531250,-10.22
15:35:14.546875,-12.16
15:35:14.562500,-17.40
15:35:14.578125,-25.29
15:35:14.593750,-34.77
15:35:14.609375,-44.46
15:35:14.625000,-52.72
15:35:14.640625,-57.86
15:35:14.656250,-58.46
15:35:14.671875,-54.22
15:35:14.687500,-46.47
15:35:14.703125,-38.03
15:35:14.718750,-32.12
15:35:14.734375,-30.79
15:35:14.750000,-33.62
15:35:14.765625,-38.00
15:35:14.781250,-40.86
15:35:14.796875,-40.81
15:35:14.812500,-39.09
15:35:14.828125,-38.74
15:35:14.843750,-42.66
15:35:14.859375,-51.74
15:35:14.875000,-64.35
15:35:14.890625,-77.44
15:35:14.906250,-88.27
15:35:14.921875,-95.45
15:35:14.937500,-98.76
15:35:14.953125,-98.10
15:35:14.968750,-92.93
15:35:14.984375,-82.44
15:35:15,-66.39
15:35:15.015625,-45.54
15:35:15.031250,-21.44
15:35:15.046875,4.23
15:35:15.062500,29.89
15:35:15.078125,53.82
15:35:15.093750,73.68
15:35:15.109375,86.60
15:35:15.125000,90.33
15:35:15.140625,84.58
15:35:15.156250,71.63
15:35:15.171875,55.51
15:35:15.187500,40.20
15:35:15.203125,27.86
15:35:15.218750,18.06
15:35:15.234375,8.75
15:35:15.250000,-1.97
15:35:15.265625,-14.18
15:35:15.281250,-25.59
15:35:15.296875,-32.20
15:35:15.312500,-29.88
15:35:15.328125,-16.00
15:35:15.343750,9.43
15:35:15.359375,43.62
15:35:15.375000,82.11
15:35:15.390625,120.21
15:35:15.406250,154.34
15:35:15.421875,182.51
15:35:15.437500,203.69
15:35:15.453125,217.04
15:35:15.468750,221.54
15:35:15.484375,216.78
15:35:15.500000,204.14
15:35:15.515625,187.26
15:35:15.531250,171.14
15:35:15.546875,159.96
15:35:15.562500,154.99
15:35:15.578125,154.25
15:35:15.593750,153.92
15:35:15.609375,150.84
15:35:15.625000,144.29
15:35:15.640625,135.95
15:35:15.656250,128.26
