1563399108.00
64.000000
-0.00
-0.00
-0.00
-0.00
-0.00
-0.00
-0.00
-0.00
-0.00
-0.00
0.00
0.01
0.01
-0.00
-0.03
-0.05
-0.05
0.00
0.13
0.36
0.66
1.01
1.37
1.72
2.06
2.40
2.79
3.24
3.80
4.42
5.06
5.66
6.20
6.68
7.15
7.68
8.31
9.14
10.09
11.04
11.88
12.56
13.14
13.76
14.65
15.96
17.91
20.32
22.90
25.38
27.58
29.57
31.68
34.32
37.81
42.54
48.15
54.10
59.83
64.97
69.58
74.14
79.34
85.71
93.76
103.00
112.62
121.73
129.77
136.75
143.30
150.75
157.77
166.64
177.95
191.79
206.97
220.57
228.25
225.36
208.53
176.87
132.76
80.05
23.07
-34.94
-92.44
-149.16
-205.23
-260.37
-313.74
-363.87
-409.83
-450.91
-486.50
-515.74
-537.23
-549.22
-549.96
-538.37
-514.21
-478.67
-433.88
-382.45
-327.02
-269.84
-212.63
-156.66
-102.95
-52.37
-5.90
35.58
71.43
101.35
125.50
144.38
158.69
169.15
176.37
180.75
182.57
182.07
179.51
175.23
169.65
163.18
156.15
148.81
141.30
133.69
126.02
118.33
110.69
103.16
95.80
88.68
81.83
75.25
68.95
62.95
57.25
51.86
46.78
42.03
37.59
33.45
29.61
26.07
22.81
19.83
17.11
14.67
12.48
10.54
8.83
7.35
6.07
4.97
4.05
3.27
2.62
2.09
1.65
1.30
1.01
0.79
0.61
0.47
0.37
0.29
0.23
0.19
0.16
0.15
0.14
0.15
0.17
0.19
0.22
0.25
0.29
0.33
0.37
0.41
0.46
0.51
0.55
0.61
0.66
0.72
0.78
0.85
0.93
1.01
1.10
1.20
1.31
1.44
1.59
1.77
1.97
2.17
2.37
2.54
2.69
2.85
3.06
3.33
3.69
4.13
4.62
5.11
5.58
6.04
6.50
7.02
7.62
8.34
9.16
10.03
10.88
11.67
12.40
13.13
13.95
14.96
16.20
17.57
18.94
20.04
20.71
20.85
20.52
19.86
19.01
17.99
16.59
14.46
11.22
6.63
0.82
-5.70
-12.21
-18.00
-22.65
-26.17
-28.99
-31.73
-34.86
-38.47
-42.18
-45.33
-47.38
-48.09
-47.79
-47.16
-47.00
-47.99
-50.62
-55.07
-61.16
-67.89
-73.30
-74.78
-70.00
-58.23
-41.05
-22.15
-5.82
4.74
8.71
7.56
3.92
0.02
-3.18
-5.82
-8.23
-10.06
-10.54
-9.12
-6.25
-3.60
-3.38
-7.20
-15.39
-26.75
-38.76
-48.77
-54.53
-54.45
-47.65
-34.13
-15.09
6.93
28.20
45.07
54.59
55.75
49.88
40.05
29.83
22.15
18.70
17.47
17.39
17.62
17.86
18.26
19.10
20.34
21.50
21.83
20.83
18.92
16.90
15.70
16.04
18.03
21.11
24.36
26.83
27.87
27.46
25.75
22.98
19.39
15.31
11.11
7.23
4.06
1.82
0.62
0.21
0.25
0.56
1.17
2.21
3.59
4.85
5.21
4.11
1.56
-1.53
-3.58
-3.00
1.05
8.18
16.85
25.04
30.98
33.75
33.34
30.39
25.74
20.11
14.02
7.79
1.77
-3.63
-7.98
-10.94
-12.38
-12.40
-11.30
-9.41
-6.89
-3.75
0.07
4.56
9.48
14.39
18.76
22.16
24.47
25.82
26.57
27.17
28.00
29.32
31.26
33.74
36.52
39.21
41.35
42.61
42.91
42.33
41.13
39.52
37.56
35.11
31.89
27.75
22.72
17.22
11.90
7.47
4.49
3.08
2.94
3.38
3.59
2.97
1.33
-1.09
-3.76
-6.09
-7.69
-8.34
-7.97
-6.53
-4.01
-0.54
3.58
7.79
11.36
13.63
14.23
13.19
10.92
8.02
5.06
2.38
0.15
-1.64
-3.01
-3.90
-4.15
-3.64
-2.31
-0.36
1.78
3.55
4.40
3.95
2.11
-0.88
-4.49
-8.08
-11.01
-12.79
-13.31
-12.75
-11.56
-10.23
-9.12
-8.33
-7.69
-6.97
-5.96
-4.65
-3.23
-1.98
-1.10
-0.68
-0.59
-0.69
-0.87
-1.17
-1.72
-2.64
-3.92
-5.31
-6.46
-7.00
-6.77
-5.88
-4.66
-3.56
-2.92
-2.84
-3.19
-3.67
-3.96
-3.77
-2.92
-1.25
1.23
4.30
7.40
9.65
10.08
7.93
2.97
-4.41
-13.31
-22.68
-31.69
-39.87
-47.17
-53.69
-59.52
-64.64
-68.85
-71.93
-73.73
-74.25
-73.60
-71.96
-69.48
-66.23
-62.22
-57.42
-51.92
-45.99
-39.96
-34.17
-28.75
-23.66
-18.75
-13.96
-9.47
-5.79
-3.58
-3.46
-5.75
-10.42
-17.02
-24.84
-33.05
-40.88
-47.71
-53.15
-57.11
-59.74
-61.42
-62.59
-63.66
-64.88
-66.18
-67.13
-67.04
-65.08
-60.58
-53.30
-43.52
-32.06
-20.03
-8.52
1.59
9.83
16.03
20.28
22.81
23.87
23.80
23.03
22.08
21.52
21.81
23.18
25.55
28.56
31.69
34.38
36.26
37.23
37.32
36.42
34.37
30.89
26.02
19.97
12.99
5.45
-2.21
-9.59
-16.45
-22.72
-28.51
-33.83
-38.71
-43.23
-47.48
-51.21
-54.32
-57.03
-59.71
-62.66
-65.25
-66.39
-64.99
-60.30
-51.18
-37.54
-20.67
-2.82
13.21
26.50
36.98
45.00
51.35
59.01
69.93
83.92
98.91
111.26
120.59
127.64
133.34
138.89
148.32
163.90
184.55
206.46
223.65
235.27
242.03
244.55
243.80
244.66
250.47
261.28
274.57
285.30
294.69
304.97
317.24
302.59
246.02
154.57
52.30
-21.62
-72.22
-109.87
-142.11
-178.32
-218.88
-255.77
-281.10
-291.66
-289.95
-283.88
-276.31
-268.08
-259.15
-247.92
-229.94
-202.95
-168.65
-132.01
-100.28
-75.33
-56.84
-43.93
-35.00
-26.85
-17.47
-6.96
2.68
7.90
8.25
4.45
-2.26
-9.88
-15.48
-17.00
-14.15
-8.45
-2.83
1.28
3.49
4.22
4.57
5.76
8.19
11.13
13.12
12.63
9.32
3.88
-2.48
-8.46
-13.32
-16.97
-19.93
-22.86
-26.33
-30.55
-35.39
-40.52
-45.49
-49.86
-53.07
-54.56
-53.76
-50.29
-44.16
-35.69
-25.52
-14.27
-2.39
9.90
22.50
35.12
47.08
57.37
64.89
68.90
69.36
66.97
62.88
58.29
54.11
50.79
48.47
47.12
46.70
47.22
48.65
50.89
53.64
56.43
58.58
59.38
58.28
55.11
50.25
44.54
39.04
34.55
31.32
28.98
26.80
23.98
20.00
14.71
8.31
1.39
-5.17
-10.19
-12.45
-11.11
-6.17
1.36
9.66
16.78
21.32
22.95
22.32
20.63
19.01
18.12
18.15
19.03
20.67
23.04
26.16
29.80
33.50
36.53
38.18
37.96
35.91
32.59
28.92
25.88
24.17
23.91
24.69
25.74
26.32
26.05
25.03
23.70
22.50
21.61
20.86
19.88
18.41
16.49
14.56
13.16
12.66
13.06
13.98
14.83
15.15
14.68
13.38
11.38
8.79
5.75
2.41
-1.14
-4.80
-8.65
-12.84
-17.55
-22.79
-28.38
-33.88
-38.80
-42.74
-45.50
-47.02
-47.37
-46.56
-44.56
-41.27
-36.61
-30.56
-23.26
-15.09
-6.69
1.12
7.49
11.87
14.16
14.79
14.50
13.99
13.70
13.68
13.71
13.55
13.02
12.08
10.74
8.96
6.65
3.90
0.94
-1.73
-3.51
-3.99
-3.18
-1.60
-0.12
0.32
-0.85
-3.64
-7.41
-11.16
-13.92
-14.99
-14.15
-11.45
-7.16
-1.68
4.26
9.55
12.77
12.63
8.66
1.59
-6.76
-14.18
-19.03
-20.91
-20.69
-19.94
-20.05
-21.61
-24.31
-27.38
-30.14
-32.39
-34.38
-36.45
-38.71
-40.95
-42.74
-43.76
-44.06
-43.98
-44.06
-44.69
-45.98
-47.70
-49.40
-50.48
-50.21
-47.86
-42.83
-34.91
-24.43
-12.36
-0.09
10.88
19.39
24.85
27.26
27.15
25.32
22.70
20.17
18.48
18.08
19.03
20.99
23.38
25.48
26.64
26.32
24.23
20.40
15.26
9.56
4.26
0.14
-2.45
-3.74
-4.38
-5.11
-6.36
-8.07
-9.80
-11.05
-11.56
-11.44
-11.06
-10.85
-11.03
-11.60
-12.43
-13.36
-14.41
-15.72
-17.36
-19.24
-20.99
-22.07
-22.09
-21.01
-19.24
-17.49
-16.40
-16.20
-16.60
-16.91
-16.41
-14.68
-11.81
-8.31
-4.80
-1.73
0.75
2.77
4.51
6.12
7.60
8.90
9.95
10.69
11.09
11.01
10.31
8.82
6.50
3.49
0.10
-3.22
-6.03
-7.95
-8.84
-8.78
-8.17
-7.62
-7.79
-9.08
-11.48
-14.53
-17.47
-19.53
-20.19
-19.28
-16.88
-13.20
-8.50
-3.15
2.34
7.24
10.83
12.61
12.44
10.68
7.93
4.75
1.44
-2.06
-5.95
-10.33
-14.97
-19.31
-22.72
-24.77
-25.46
-25.16
-24.42
-23.66
-22.93
-21.95
-20.22
-17.28
-12.97
-7.54
-1.60
3.92
8.05
9.98
9.34
6.30
1.56
-3.88
-8.94
-12.86
-15.25
-16.16
-15.88
-14.79
-13.19
-11.28
-9.24
-7.28
-5.68
-4.69
-4.39
-4.59
-4.85
-4.57
-3.26
-0.63
3.34
8.49
14.52
21.07
27.54
33.14
36.90
38.00
36.12
31.56
25.14
17.90
10.68
3.94
-2.14
-7.50
-11.98
-15.32
-17.36
-18.17
-18.08
-17.52
-16.80
-16.02
-15.09
-14.04
-13.06
-12.56
-12.94
-14.35
-16.53
-18.95
-21.05
-22.48
-23.22
-23.44
-23.26
-22.62
-21.32
-19.27
-16.67
-14.08
-12.19
-11.51
-12.07
-13.43
-14.81
-15.43
-14.80
-12.76
-9.48
-5.26
-0.42
4.90
10.70
17.16
24.50
32.85
42.18
52.20
62.46
72.34
81.18
88.25
92.78
93.95
91.14
84.03
72.88
58.57
42.51
26.24
11.14
-1.90
-12.55
-20.95
-27.40
-32.24
-35.68
-37.87
-38.97
-39.23
-38.96
-38.48
-37.97
-37.43
-36.75
-35.74
-34.20
-32.05
-29.30
-26.06
-22.54
-19.02
-15.73
-12.88
-10.58
-8.86
-7.70
-7.03
-6.81
-6.94
-7.31
-7.70
-7.87
-7.56
-6.67
-5.30
-3.75
-2.48
-1.85
-2.02
-2.84
-3.97
-5.04
-5.88
-6.53
-7.14
-7.88
-8.70
-9.47
-9.95
-10.06
-9.80
-9.27
-8.60
-7.78
-6.71
-5.28
-3.48
-1.46
0.48
1.98
2.77
2.75
1.97
0.56
-1.30
-3.51
-5.96
-8.53
-11.00
-13.07
-14.53
-15.25
-15.36
-15.06
-14.56
-13.94
-13.19
-12.30
-11.33
-10.45
-9.83
-9.56
-9.57
-9.68
-9.65
-9.33
-8.71
-7.87
-6.96
-6.15
-5.59
-5.43
-5.79
-6.77
-8.36
-10.40
-12.66
-14.88
-16.79
-18.24
-19.22
-19.83
-20.24
-20.62
-21.05
-21.50
-21.82
-21.81
-21.30
-20.15
-18.31
-15.77
-12.58
-8.85
-4.77
-0.61
3.35
6.84
9.76
12.14
14.11
15.75
17.08
18.03
18.56
18.76
18.82
19.00
19.51
20.40
21.54
22.76
23.92
24.89
25.51
25.51
24.50
22.15
18.41
13.66
8.59
3.96
0.30
-2.29
-4.12
-5.66
-7.29
-9.15
-11.09
-12.87
-14.23
-15.01
-15.09
-14.32
-12.47
-9.34
-4.77
1.22
8.39
16.27
24.21
31.42
37.11
40.63
41.58
39.99
36.37
31.64
26.98
23.48
21.97
22.81
25.82
30.36
35.42
39.87
42.59
42.71
39.78
33.82
25.36
15.33
4.90
-4.77
-12.75
-18.48
-21.84
-23.08
-22.65
-21.05
-18.68
-15.84
-12.80
-9.93
-7.61
-6.29
-6.20
-7.37
-9.61
-12.57
-15.88
-19.17
-22.07
-24.23
-25.32
-25.20
-23.89
-21.72
-19.15
-16.73
-14.84
-13.65
-13.04
-12.69
-12.19
-11.19
-9.49
-7.14
-4.41
-1.72
0.60
2.33
3.48
4.14
4.41
4.41
4.26
4.19
4.47
5.37
6.96
9.10
11.41
13.42
14.77
15.33
15.11
14.23
12.85
11.06
9.03
6.95
5.02
3.38
2.10
1.15
0.45
-0.10
-0.62
-1.24
-2.09
-3.29
-4.93
-7.01
-9.48
-12.21
-15.05
-17.81
-20.29
-22.29
-23.66
-24.30
-24.18
-23.24
-21.37
-18.36
-13.96
-7.96
-0.38
8.50
18.04
27.42
35.72
42.18
46.32
48.09
47.81
46.10
43.72
41.40
39.61
38.48
37.77
36.96
35.46
32.85
29.06
24.44
19.59
15.12
11.46
8.62
6.36
4.33
2.27
0.07
-2.22
-4.50
-6.68
-8.72
-10.55
-12.05
-13.03
-13.25
-12.61
-11.18
-9.21
-7.12
-5.30
-4.08
-3.65
-4.05
-5.23
-7.03
-9.27
-11.72
-14.09
-16.09
-17.41
-17.87
-17.46
-16.29
-14.54
-12.41
-9.98
-7.29
-4.33
-1.19
1.97
4.90
7.38
9.20
10.19
10.25
9.25
7.14
3.96
-0.05
-4.49
-8.83
-12.59
-15.39
-17.08
-17.75
-17.62
-16.92
-15.86
-14.46
-12.68
-10.47
-7.91
-5.24
-2.80
-0.87
0.45
1.27
1.82
2.31
2.80
3.17
3.24
2.83
1.92
0.72
-0.47
-1.32
-1.60
-1.32
-0.74
-0.26
-0.26
-0.85
-1.85
-2.81
-3.29
-3.04
-2.14
-0.86
0.45
1.59
2.49
3.20
3.79
4.25
4.53
4.61
4.51
4.32
4.14
4.05
4.05
4.09
4.05
3.75
3.05
1.98
0.78
-0.11
-0.20
0.78
2.76
5.37
8.05
10.34
12.00
13.03
13.63
14.04
14.53
15.30
16.37
17.54
18.36
18.24
16.73
13.76
9.79
5.63
2.07
-0.40
-1.79
-2.48
-2.97
-3.63
-4.58
-5.79
-7.22
-8.90
-10.91
-13.28
-15.84
-18.25
-20.12
-21.14
-21.25
-20.63
-19.55
-18.18
-16.50
-14.25
-11.15
-7.06
-2.11
3.31
8.78
13.96
18.74
23.16
27.38
31.47
35.43
39.05
42.00
43.90
44.39
43.27
40.56
36.50
31.42
25.63
19.28
12.39
4.85
-3.49
-12.77
-23.09
-34.39
-46.27
-57.93
-68.24
-76.10
-80.95
-83.10
-83.64
-83.92
-84.79
-86.06
-86.52
-84.57
-78.99
-69.53
-56.95
-42.55
-27.61
-12.99
0.83
13.52
24.65
33.66
40.05
43.75
45.18
45.23
44.85
44.76
45.12
45.61
45.63
44.68
42.63
39.87
37.08
34.87
33.52
32.79
32.12
30.96
28.99
26.28
23.14
19.94
16.89
14.04
11.34
8.73
6.28
4.07
2.22
0.74
-0.49
-1.63
-2.95
-4.63
-6.69
-8.93
-10.95
-12.29
-12.54
-11.53
-9.32
-6.17
-2.44
1.52
5.42
9.02
12.15
14.65
16.38
17.21
17.13
16.24
14.81
13.17
11.65
10.44
9.55
8.93
8.54
8.47
8.89
9.92
11.52
13.49
15.55
17.50
19.25
20.77
22.03
22.86
23.09
22.60
21.50
20.11
18.89
18.24
18.42
19.44
20.99
22.47
23.03
21.73
17.82
11.05
1.77
-9.14
-20.57
-31.46
-41.02
-48.75
-54.38
-57.77
-58.88
-57.87
-55.13
-51.33
-47.14
-43.20
-39.81
-36.97
-34.41
-31.81
-28.91
-25.62
-22.03
-18.31
-14.70
-11.40
-8.55
-6.29
-4.73
-3.93
-3.86
-4.36
-5.16
-6.00
-6.73
-7.33
-7.90
-8.52
-9.18
-9.72
-9.93
-9.55
-8.49
-6.85
-4.90
-3.02
-1.49
-0.41
0.32
0.98
1.84
2.97
4.27
5.45
6.29
6.74
7.02
7.47
8.34
9.69
11.29
12.81
14.01
14.82
15.45
16.17
17.27
18.88
21.06
23.88
27.37
31.51
35.96
40.00
42.57
42.63
39.56
33.48
25.36
16.68
8.95
3.29
0.26
-0.04
2.29
7.12
14.18
22.89
32.11
40.27
45.71
47.24
44.59
38.49
30.36
21.76
13.91
7.42
2.35
-1.51
-4.27
-5.86
-6.08
-4.82
-2.35
0.65
3.19
4.25
3.08
-0.56
-6.44
-13.91
-22.20
-30.60
-38.60
-45.87
-52.14
-57.11
-60.39
-61.58
-60.46
-57.09
-51.95
-45.80
-39.49
-33.69
-28.71
-24.53
-20.99
-18.07
-16.04
-15.52
-17.08
-20.86
-26.17
-31.42
-34.44
-33.07
-25.93
-12.99
4.28
23.31
40.97
54.38
61.48
61.43
54.75
43.15
29.12
15.35
4.08
-3.38
-6.77
-6.82
-4.95
-2.95
-2.42
-4.36
-8.99
-15.84
-24.24
-33.72
-44.17
-55.61
-67.57
-78.63
-86.35
-87.92
-81.26
-66.01
-43.87
-18.12
7.52
29.93
47.36
59.38
66.52
69.71
69.91
67.88
64.30
59.87
55.44
51.83
49.64
49.06
49.83
51.41
53.21
54.90
56.53
58.47
61.27
65.32
70.57
76.49
82.12
86.28
87.95
86.54
82.08
75.19
66.89
58.36
50.57
44.11
39.07
35.16
31.87
28.70
25.34
21.69
17.75
13.50
8.83
3.56
-2.45
-9.15
-16.24
-23.26
-29.75
-35.48
-40.57
-45.55
-51.09
-57.73
-65.55
-74.07
-82.39
-89.53
-94.89
-98.44
-100.71
-102.58
-104.99
-108.82
-114.79
-123.25
-133.88
-145.21
-154.57
-158.61
-154.47
-140.96
-119.33
-92.87
-65.73
-41.36
-21.55
-6.18
5.89
15.87
24.35
31.21
36.08
38.86
39.93
40.08
40.08
40.38
40.91
41.20
40.66
38.92
36.12
32.81
29.78
27.64
26.61
26.32
26.11
25.35
23.74
21.52
19.25
17.60
16.98
17.41
18.59
20.10
21.53
22.69
23.49
23.90
23.89
23.40
22.45
21.16
19.81
18.71
18.16
18.30
19.16
20.61
22.45
24.50
26.64
28.88
31.30
33.92
36.62
38.92
40.10
39.28
35.77
29.28
20.05
8.77
-3.70
-16.61
-29.50
-42.29
-55.15
-68.26
-81.60
-94.77
-106.91
-116.76
-122.89
-124.12
-119.90
-110.62
-97.65
-83.02
-68.84
-56.81
-47.80
-41.88
-38.53
-37.00
-36.54
-36.50
-36.31
-35.41
-33.33
-29.83
-25.10
-19.66
-14.24
-9.50
-5.78
-3.02
-0.86
1.32
4.22
8.52
14.77
23.22
33.74
45.84
58.79
71.96
84.88
97.30
109.00
119.52
128.27
134.67
138.57
140.41
141.15
141.88
143.28
145.33
147.30
148.06
146.47
141.75
133.51
121.76
106.81
89.26
70.06
50.35
31.39
14.18
-0.71
-13.16
-23.32
-31.34
-37.23
-40.79
-41.90
-40.64
-37.49
-33.24
-28.84
-25.18
-22.87
-22.18
-22.99
-24.95
-27.51
-30.14
-32.41
-34.13
-35.27
-35.92
-36.16
-36.03
-35.58
-34.90
-34.18
-33.65
-33.45
-33.56
-33.81
-33.96
-33.83
-33.39
-32.67
-31.74
-30.51
-28.77
-26.35
-23.19
-19.48
-15.60
-12.02
-9.09
-6.92
-5.39
-4.20
-3.00
-1.56
0.16
2.02
3.73
5.02
5.74
5.84
5.37
4.36
2.81
0.76
-1.65
-4.13
-6.27
-7.76
-8.49
-8.64
-8.61
-8.83
-9.65
-11.22
-13.45
-16.13
-18.94
-21.57
-23.75
-25.40
-26.59
-27.52
-28.38
-29.26
-30.09
-30.75
-31.15
-31.38
-31.61
-32.11
-33.04
-34.44
-36.21
-38.23
-40.39
-42.64
-44.99
-47.55
-50.44
-53.81
-57.66
-61.84
-66.00
-69.81
-73.12
-76.20
-79.51
-83.44
-87.89
-92.13
-95.14
-96.12
-95.02
-92.55
-89.92
-88.17
-87.74
-88.47
-89.95
-91.93
-94.41
-97.39
-100.43
-102.60
-102.82
-100.42
-95.57
-89.07
-81.84
-74.18
-65.49
-54.61
-40.52
-22.91
-2.51
19.22
40.67
60.54
78.10
93.06
105.36
115.03
122.21
127.17
130.35
132.41
134.12
136.21
139.13
142.93
147.12
150.88
153.35
153.95
152.72
150.19
147.22
144.53
142.45
140.77
138.95
136.32
132.27
126.43
118.68
109.27
98.79
88.16
78.42
70.41
64.47
60.39
57.47
54.91
52.06
48.63
44.60
40.12
35.29
30.09
24.46
18.31
11.72
4.85
-2.04
-8.55
-14.22
-18.57
-21.15
-21.73
-20.32
-17.11
-12.48
-6.80
-0.46
6.08
12.19
17.28
20.96
23.39
25.35
27.99
32.35
38.71
46.38
53.81
59.32
61.75
60.82
57.08
51.47
44.88
37.96
31.14
24.83
19.49
15.51
13.08
11.99
11.54
10.79
8.76
4.71
-1.66
-10.11
-20.06
-30.63
-40.96
-50.41
-58.59
-65.41
-70.85
-74.90
-77.41
-78.22
-77.28
-74.75
-71.04
-66.62
-61.86
-56.82
-51.30
-45.01
-37.83
-29.99
-22.04
-14.65
-8.40
-3.57
-0.12
2.20
3.78
4.96
6.04
7.18
8.40
9.62
10.69
11.48
11.89
11.89
11.47
10.56
9.07
6.98
4.43
1.78
-0.54
-2.17
-2.96
-3.06
-2.80
-2.56
-2.66
-3.31
-4.59
-6.48
-8.86
-11.49
-14.02
-16.18
-17.89
-19.45
-21.42
-24.48
-29.00
-34.92
-41.58
-48.01
-53.17
-56.27
-56.92
-55.16
-51.21
-45.46
-38.29
-30.16
-21.68
-13.61
-6.81
-2.01
0.40
0.47
-1.29
-4.10
-7.09
-9.60
-11.18
-11.64
-10.96
-9.21
-6.43
-2.68
2.00
7.44
13.40
19.48
25.16
29.93
33.39
35.45
36.36
36.71
37.27
38.81
41.90
46.64
52.57
58.69
63.72
66.47
66.29
63.29
58.24
52.26
46.36
41.05
36.36
32.07
28.05
24.64
22.59
22.81
25.88
31.59
38.82
45.84
50.99
53.27
52.80
50.44
47.35
44.20
40.90
36.64
30.31
20.66
6.34
-13.97
-41.17
-74.60
-111.22
-145.51
-170.79
-181.57
-175.79
-155.79
-127.31
-97.12
-70.47
-49.67
-34.38
-23.07
-14.47
-8.34
-5.15
-5.15
-7.66
-11.07
-13.36
-12.99
-9.41
-3.28
4.00
10.92
16.40
20.04
21.95
22.49
21.93
20.36
17.78
14.29
10.27
6.34
3.27
1.69
1.84
3.41
5.60
7.36
7.73
6.22
3.03
-1.01
-4.79
-7.32
-8.13
-7.38
-5.73
-4.04
-3.09
-3.29
-4.71
-7.04
-9.75
-12.30
-14.32
-15.71
-16.70
-17.70
-19.05
-20.80
-22.72
-24.42
-25.66
-26.52
-27.41
-28.86
-31.19
-34.33
-37.80
-40.93
-43.19
-44.35
-44.56
-44.14
-43.41
-42.47
-41.15
-39.13
-36.09
-31.90
-26.73
-21.03
-15.33
-10.11
-5.61
-1.87
1.26
3.94
6.25
8.20
9.71
10.75
11.27
11.26
10.70
9.57
7.93
5.90
3.68
1.42
-0.82
-3.06
-5.40
-7.86
-10.40
-12.95
-15.56
-18.45
-21.88
-26.07
-30.99
-36.32
-41.59
-46.41
-50.67
-54.56
-58.46
-62.82
-67.96
-74.07
-81.17
-89.02
-97.10
-104.49
-109.91
-112.02
-109.79
-102.85
-91.60
-77.08
-60.58
-43.32
-26.23
-9.98
4.89
17.93
28.82
37.42
43.93
48.82
52.70
56.06
59.20
62.20
64.95
67.30
69.14
70.43
71.24
71.61
71.55
70.89
69.38
66.75
62.93
58.10
52.74
47.39
42.47
38.15
34.30
30.64
26.86
22.75
18.23
13.29
8.02
2.51
-3.07
-8.56
-13.84
-18.90
-23.86
-28.99
-34.62
-40.95
-47.90
-55.02
-61.45
-66.10
-67.98
-66.37
-61.16
-52.75
-41.93
-29.66
-16.81
-4.09
7.98
19.00
28.64
36.67
43.02
47.74
51.11
53.45
55.11
56.37
57.42
58.42
59.45
60.62
61.91
63.21
64.26
64.74
64.35
62.92
60.38
56.80
52.31
47.05
41.24
35.18
29.26
23.84
19.00
14.48
9.66
3.82
-3.44
-12.03
-21.32
-30.37
-38.45
-45.25
-51.01
-56.23
-61.46
-66.97
-72.77
-78.64
-84.29
-89.35
-93.26
-95.38
-95.01
-91.59
-84.96
-75.34
-63.17
-48.96
-33.08
-15.87
2.22
20.48
38.01
53.96
67.92
80.12
91.54
103.50
117.30
133.58
151.84
170.25
185.99
195.98
197.94
191.22
177.20
158.85
139.71
122.78
109.67
100.51
94.43
90.21
86.89
83.93
81.13
78.35
75.41
72.11
68.37
64.33
60.30
56.62
53.48
50.81
48.33
45.70
42.84
40.08
38.00
37.22
37.82
39.16
39.87
38.36
33.50
25.11
14.14
2.23
-8.93
-18.18
-25.16
-30.17
-33.72
-36.16
-37.60
-37.95
-37.23
-35.61
-33.47
-31.16
-28.93
-26.82
-24.82
-22.96
-21.42
-20.52
-20.59
-21.82
-24.23
-27.59
-31.52
-35.53
-39.12
-41.93
-43.77
-44.67
-44.83
-44.45
-43.65
-42.38
-40.55
-38.12
-35.20
-32.04
-28.85
-25.71
-22.49
-19.03
-15.33
-11.65
-8.48
-6.23
-5.05
-4.77
-4.97
-5.30
-5.60
-6.01
-6.80
-8.17
-10.13
-12.41
-14.59
-16.19
-16.81
-16.13
-14.06
-10.67
-6.25
-1.31
3.56
7.74
10.68
11.98
11.47
9.33
6.07
2.38
-1.02
-3.60
-5.22
-6.02
-6.38
-6.63
-6.96
-7.37
-7.72
-7.85
-7.62
-6.88
-5.46
-3.20
-0.04
3.90
8.25
12.47
16.03
18.49
19.70
19.79
19.06
17.88
16.62
15.57
14.95
14.87
15.27
15.89
16.22
15.61
13.37
9.00
2.29
-6.56
-16.99
-28.13
-38.95
-48.46
-55.83
-60.54
-62.47
-61.84
-59.08
-54.78
-49.53
-43.89
-38.42
-33.65
-30.05
-27.89
-27.19
-27.72
-29.08
-30.84
-32.68
-34.48
-36.25
-38.06
-39.88
-41.46
-42.28
-41.71
-39.13
-34.31
-27.47
-19.32
-10.83
-2.89
4.03
9.98
15.39
20.79
26.63
32.99
39.67
46.18
51.87
56.11
58.39
58.45
56.31
52.16
46.29
39.08
30.97
22.52
14.42
7.34
1.76
-2.22
-4.81
-6.46
-7.44
-7.79
-7.24
-5.44
-2.21
2.37
7.90
13.76
19.16
23.22
25.02
23.78
19.09
11.11
0.68
-10.90
-22.29
-32.48
-41.02
-47.96
-53.51
-57.80
-60.64
-61.72
-60.93
-58.56
-55.44
-52.65
-51.24
-51.83
-54.42
-58.47
-63.12
-67.43
-70.74
-72.78
-73.74
-74.09
-74.30
-74.52
-74.26
-72.22
-66.53
-55.23
-37.07
-12.29
16.95
46.79
72.49
89.74
95.89
90.65
76.00
55.34
32.31
9.72
-11.13
-30.34
-48.83
-67.43
-86.01
-102.99
-115.61
-120.75
-116.08
-101.04
-77.17
-47.75
-16.91
11.52
34.88
51.91
62.57
67.47
67.50
63.56
56.59
47.60
37.57
27.38
17.80
9.53
3.42
0.36
1.15
5.98
14.16
24.14
33.95
41.78
46.45
47.42
44.58
38.10
28.51
16.95
5.24
-4.51
-10.64
-12.40
-10.05
-4.32
4.12
14.82
27.19
39.99
51.32
59.20
62.49
61.47
57.61
52.64
47.65
42.60
36.78
29.70
21.77
14.28
8.84
6.52
7.35
10.42
14.25
17.43
19.00
18.61
16.50
13.36
10.12
7.67
6.68
7.35
9.43
12.26
14.77
15.57
13.00
5.38
-8.46
-28.54
-53.29
-79.41
-102.47
-118.01
-122.68
-115.07
-96.01
-68.17
-35.29
-1.51
29.17
53.36
68.59
73.69
68.98
56.24
38.42
18.98
1.24
-12.08
-19.16
-19.19
-12.33
0.31
16.74
34.46
50.83
63.65
71.38
73.09
68.19
56.37
37.81
13.76
-12.98
-38.26
-57.55
-67.20
-65.72
-54.21
-35.78
-14.57
5.48
21.29
30.77
32.90
27.76
16.73
2.55
-11.15
-20.79
-23.86
-19.70
-9.42
4.69
19.91
33.69
43.82
48.46
46.37
37.31
22.53
4.95
-11.40
-22.53
-25.75
-20.45
-8.22
7.79
23.74
36.09
42.32
41.25
33.17
19.81
4.18
-9.96
-18.91
-20.27
-13.54
-0.30
16.25
32.21
44.13
49.94
49.39
43.86
35.24
25.64
16.75
9.55
3.98
-0.76
-5.63
-11.14
-17.14
-23.81
-30.96
-38.01
-44.08
-48.40
-50.65
-50.91
-49.71
-48.01
-48.42
-53.02
-62.25
-74.50
-87.00
-97.01
-102.64
-103.36
-100.11
-96.60
-96.31
-100.95
-109.88
-121.34
-133.52
-144.89
-154.20
-150.28
-127.48
-89.24
-46.66
-10.30
14.70
28.16
32.61
31.48
27.84
21.51
12.62
2.31
-6.95
-12.60
-13.18
-8.73
-0.44
9.87
19.23
25.65
28.55
29.17
29.44
30.92
34.36
39.84
46.90
53.99
59.80
63.69
65.94
67.18
67.93
68.59
69.40
70.39
71.00
70.68
69.17
66.79
64.12
61.73
59.99
59.08
58.92
59.14
59.38
59.45
59.30
59.02
58.65
58.15
57.34
55.94
53.59
49.98
45.03
39.04
32.66
26.69
21.80
18.30
16.11
14.87
14.15
13.57
12.85
11.74
10.01
7.49
4.19
0.41
-3.36
-6.61
-9.04
-10.75
-12.09
-13.48
-15.12
-16.92
-18.58
-19.80
-20.43
-20.54
-20.22
-19.52
-18.26
-16.22
-13.28
-9.60
-5.71
-2.41
-0.54
-0.69
-2.91
-6.64
-10.80
-14.07
-15.34
-14.07
-10.41
-5.24
0.15
4.38
6.29
5.21
1.14
-5.39
-13.40
-21.73
-29.39
-35.71
-40.42
-43.42
-44.64
-43.91
-41.01
-36.02
-29.42
-22.19
-15.48
-10.29
-7.06
-5.56
-5.05
-4.60
-3.47
-1.31
1.82
5.52
9.24
12.44
14.81
16.31
17.32
18.49
20.45
23.59
27.73
32.18
35.88
37.77
37.17
33.96
28.66
22.28
16.09
11.29
8.71
8.64
10.74
14.21
18.13
21.76
24.73
27.02
28.65
29.52
29.30
27.53
23.97
18.77
12.47
5.79
-0.72
-6.86
-12.70
-18.39
-23.86
-28.72
-32.39
-34.39
-34.68
-33.73
-32.44
-31.82
-32.58
-34.91
-38.35
-41.93
-44.42
-44.50
-41.01
-33.07
-20.20
-2.38
19.82
45.24
72.01
97.82
120.18
136.89
146.45
148.43
143.51
133.32
120.08
106.04
93.08
82.28
73.89
67.33
61.50
55.15
47.29
37.51
26.02
13.55
0.92
-11.20
-22.62
-33.47
-43.93
-54.01
-63.33
-71.32
-77.44
-81.49
-83.66
-84.39
-84.14
-83.20
-81.63
-79.41
-76.50
-72.94
-68.78
-64.04
-58.75
-52.99
-47.06
-41.46
-36.73
-33.18
-30.81
-29.21
-27.78
-25.99
-23.53
-20.36
-16.57
-12.26
-7.53
-2.51
2.51
7.15
10.96
13.64
15.11
15.57
15.34
14.73
13.95
13.09
12.18
11.26
10.42
9.74
9.25
8.88
8.51
8.03
7.38
6.55
5.46
3.94
1.73
-1.33
-5.17
-9.36
-13.31
-16.47
-18.62
-20.06
-21.40
-23.30
-26.25
-30.46
-35.83
-42.11
-48.97
-56.00
-62.74
-68.69
-73.49
-76.97
-79.18
-80.22
-79.95
-77.87
-73.21
-65.24
-53.66
-38.95
-22.25
-5.06
11.29
25.87
38.25
48.39
56.39
62.41
66.72
69.73
71.95
73.71
74.90
74.83
72.52
67.14
58.59
47.69
36.08
25.56
17.53
12.48
9.98
8.93
8.08
6.54
4.00
0.73
-2.77
-6.02
-8.81
-11.17
-13.19
-14.88
-16.13
-16.77
-16.71
-16.07
-15.09
-14.06
-13.13
-12.35
-11.75
-11.44
-11.67
-12.73
-14.78
-17.70
-21.16
-24.70
-27.88
-30.46
-32.31
-33.39
-33.67
-33.17
-31.96
-30.28
-28.48
-26.88
-25.74
-25.12
-24.93
-25.15
-25.78
-26.89
-28.56
-30.68
-33.04
-35.39
-37.68
-40.20
-43.44
-47.75
-52.99
-58.33
-62.45
-63.96
-61.98
-56.43
-48.05
-37.98
-27.35
-17.02
-7.44
1.08
8.35
14.15
18.39
21.19
22.90
23.98
24.87
25.82
26.81
27.69
28.19
28.11
27.35
25.95
24.10
22.11
20.25
18.76
17.72
17.02
16.47
15.78
14.80
13.51
12.01
10.48
9.05
7.75
6.51
5.25
3.91
2.51
1.14
-0.10
-1.12
-1.83
-2.22
-2.34
-2.31
-2.28
-2.41
-2.73
-3.16
-3.46
-3.39
-2.80
-1.72
-0.33
1.06
2.16
2.81
3.01
2.95
2.91
3.22
4.12
5.74
8.00
10.64
13.28
15.51
17.03
17.73
17.70
17.18
16.45
15.70
15.07
14.55
14.13
13.78
13.49
13.23
12.93
12.46
11.60
10.08
7.60
3.99
-0.66
-5.91
-10.93
-14.83
-17.03
-17.52
-16.87
-15.92
-15.37
-15.40
-15.66
-15.54
-14.50
-12.46
-9.72
-6.75
-3.99
-1.58
0.56
2.56
4.43
6.01
7.03
7.28
6.76
5.73
4.74
4.36
5.03
6.82
9.45
12.31
14.85
16.73
17.97
18.80
19.43
19.88
19.92
19.21
17.51
14.85
11.55
8.10
4.97
2.49
0.84
0.08
0.17
0.96
2.22
3.61
4.77
5.40
5.38
4.79
3.86
2.88
2.09
1.65
1.53
1.53
1.38
0.77
-0.48
-2.37
-4.71
-7.16
-9.36
-11.02
-11.96
-12.15
-11.64
-10.53
-8.97
-7.08
-4.99
-2.83
-0.71
1.23
2.84
4.06
4.84
5.26
5.47
5.63
5.79
5.92
5.92
5.68
5.22
4.65
4.14
3.80
3.66
3.62
3.58
3.49
3.36
3.23
3.12
2.98
2.66
1.98
0.80
-0.88
-2.92
-5.05
-6.96
-8.43
-9.36
-9.79
-9.86
-9.71
-9.49
-9.34
-9.40
-9.74
-10.33
-11.01
-11.56
-11.83
-11.77
-11.52
-11.29
-11.21
-11.27
-11.30
-11.06
-10.38
-9.25
-7.76
-6.12
-4.55
-3.28
-2.50
-2.37
-2.94
-4.13
-5.87
-8.09
-10.93
-14.62
-19.28
-24.74
-30.27
-34.75
-36.99
-36.13
-31.95
-24.94
-16.06
-6.48
2.73
10.66
16.66
20.35
21.64
20.87
18.70
16.01
13.65
12.13
11.57
11.68
11.90
11.56
10.15
7.40
3.43
-1.25
-5.86
-9.58
-11.84
-12.49
-11.81
-10.34
-8.58
-6.82
-5.03
-3.07
-0.86
1.46
3.56
5.08
5.85
5.99
5.88
5.95
6.54
7.72
9.30
10.94
12.24
12.92
12.91
12.36
11.57
10.88
10.53
10.60
11.02
11.68
12.44
13.22
13.91
14.38
14.44
13.97
13.00
11.78
10.68
10.03
9.98
10.43
11.06
11.54
11.59
11.08
10.01
8.50
6.71
4.82
3.04
1.54
0.41
-0.32
-0.71
-0.87
-0.91
-0.91
-0.92
-0.92
-0.80
-0.46
0.25
1.40
2.94
4.72
6.55
8.25
9.73
11.00
12.13
13.20
14.33
15.62
17.17
18.99
20.99
22.95
24.51
25.23
24.75
22.95
20.00
16.46
13.05
10.52
9.29
9.37
10.28
11.26
11.55
10.56
8.07
4.16
-0.90
-6.74
-12.96
-19.16
-24.99
-30.14
-34.37
-37.51
-39.53
-40.48
-40.55
-40.04
-39.22
-38.24
-37.02
-35.31
-32.75
-29.16
-24.62
-19.54
-14.57
-10.39
-7.53
-6.18
-6.26
-7.32
-8.83
-10.30
-11.46
-12.34
-13.09
-13.90
-14.74
-15.38
-15.49
-14.87
-13.54
-11.76
-9.88
-8.06
-6.20
-3.97
-0.98
2.97
7.76
12.91
17.79
21.75
24.44
25.85
26.27
26.11
25.76
25.42
25.12
24.75
24.19
23.34
22.13
20.52
18.55
16.36
14.22
12.50
11.47
11.19
11.44
11.79
11.80
11.15
9.84
7.99
5.84
3.51
1.02
-1.61
-4.24
-6.58
-8.22
-8.85
-8.41
-7.21
-5.75
-4.59
-4.04
-4.16
-4.74
-5.44
-5.96
-6.07
-5.59
-4.32
-2.14
0.87
4.37
7.66
9.96
10.65
9.53
6.91
3.53
0.19
-2.46
-4.17
-5.01
-5.33
-5.51
-5.87
-6.63
-7.89
-9.66
-11.82
-14.07
-16.02
-17.18
-17.20
-15.95
-13.64
-10.71
-7.73
-5.11
-3.01
-1.34
0.11
1.49
2.78
3.84
4.53
4.80
4.77
4.53
4.14
3.49
2.46
1.01
-0.77
-2.68
-4.52
-6.19
-7.67
-8.97
-9.99
-10.55
-10.51
-9.84
-8.68
-7.24
-5.66
-3.94
-2.00
0.21
2.61
4.94
6.92
8.33
9.11
9.32
9.08
8.52
7.67
6.52
5.10
3.48
1.82
0.37
-0.58
-0.76
-0.05
1.52
3.72
6.24
8.76
11.09
13.12
14.89
16.55
18.27
20.30
22.80
25.82
29.19
32.55
35.42
37.42
38.40
38.49
38.06
37.50
37.08
36.86
36.74
36.55
36.18
35.60
34.80
33.74
32.32
30.40
27.91
24.85
21.35
17.55
13.56
9.46
5.35
1.41
-2.03
-4.59
-5.99
-6.25
-5.72
-5.07
-5.06
-6.25
-8.87
-12.65
-16.97
-21.04
-24.22
-26.17
-26.89
-26.61
-25.60
-23.94
-21.58
-18.41
-14.54
-10.30
-6.18
-2.65
0.10
2.23
4.10
6.03
8.08
10.01
11.38
11.85
11.30
9.93
8.11
6.22
4.52
3.08
1.88
0.81
-0.19
-1.13
-1.96
-2.64
-3.21
-3.70
-4.18
-4.66
-5.13
-5.57
-5.92
-6.16
-6.28
-6.25
-6.07
-5.76
-5.44
-5.29
-5.55
-6.41
-7.94
-10.05
-12.45
-14.78
-16.63
-17.69
-17.79
-16.95
-15.35
-13.33
-11.25
-9.38
-7.82
-6.51
-5.28
-3.96
-2.51
-0.98
0.50
1.83
2.95
3.86
4.57
5.08
5.35
5.43
5.44
5.56
5.93
6.57
7.33
7.97
8.28
8.21
7.80
7.19
6.50
5.79
5.09
4.46
3.99
3.76
3.76
3.83
3.75
3.31
2.47
1.45
0.62
0.28
0.55
1.21
1.81
1.87
1.10
-0.47
-2.54
-4.64
-6.31
-7.23
-7.26
-6.42
-4.84
-2.70
-0.22
2.43
5.04
7.37
9.19
10.31
10.61
10.15
9.17
8.02
7.04
6.45
6.28
6.39
6.58
6.63
6.45
6.05
5.54
5.05
4.69
4.51
4.40
4.23
3.86
3.27
2.53
1.79
1.22
0.86
0.62
0.32
-0.23
-1.18
-2.48
-3.99
-5.50
-6.73
-7.54
-7.88
-7.85
-7.70
-7.76
-8.27
-9.39
-11.05
-13.07
-15.12
-16.83
-17.88
-18.08
-17.40
-16.01
-14.20
-12.33
-10.72
-9.50
-8.66
-8.05
-7.52
-7.02
-6.60
-6.36
-6.34
-6.46
-6.48
-6.18
-5.38
-4.13
-2.64
-1.27
-0.32
0.05
-0.10
-0.52
-0.95
-1.23
-1.37
-1.55
-1.99
-2.77
-3.83
-4.92
-5.83
-6.41
-6.72
-6.91
-7.09
-7.26
-7.30
-7.08
-6.60
-6.09
-5.87
-6.20
-7.12
-8.36
-9.44
-9.92
-9.57
-8.49
-7.06
-5.68
-4.62
-3.92
-3.40
-2.86
-2.17
-1.36
-0.52
0.26
1.01
1.85
2.86
4.04
5.19
6.01
6.19
5.69
4.72
3.73
3.20
3.41
4.31
5.51
6.47
6.74
6.16
4.83
3.09
1.31
-0.26
-1.48
-2.36
-2.93
-3.26
-3.43
-3.54
-3.63
-3.72
-3.77
-3.78
-3.80
-3.96
-4.46
-5.46
-6.97
-8.79
-10.58
-11.96
-12.70
-12.73
-12.16
-11.14
-9.82
-8.27
-6.52
-4.65
-2.78
-1.04
0.43
1.57
2.40
2.97
3.37
3.69
4.03
4.50
5.15
5.98
6.91
7.78
8.47
8.91
9.13
9.17
9.07
8.76
8.14
7.12
5.72
4.10
2.49
1.15
0.21
-0.33
-0.61
-0.79
-1.02
-1.34
-1.72
-2.09
-2.38
-2.57
-2.70
-2.88
-3.31
-4.15
-5.53
-7.41
-9.55
-11.54
-12.97
-13.53
-13.11
-11.85
-10.01
-7.86
-5.63
-3.46
-1.39
0.54
2.28
3.73
4.77
5.32
5.39
5.09
4.61
4.13
3.80
3.64
3.63
3.70
3.90
4.32
4.99
5.83
6.64
7.13
7.11
6.57
5.72
4.83
4.13
3.68
3.40
3.15
2.82
2.40
1.95
1.54
1.18
0.84
0.45
-0.05
-0.67
-1.40
-2.20
-3.10
-4.16
-5.47
-7.05
-8.80
-10.49
-11.78
-12.39
-12.12
-10.99
-9.20
-7.08
-4.98
-3.14
-1.68
-0.51
0.53
1.61
2.78
3.89
4.71
5.05
4.86
4.29
3.65
3.22
3.17
3.46
3.95
4.47
4.92
5.30
5.62
5.87
6.00
5.92
5.65
5.30
5.03
5.02
5.31
5.77
6.25
6.52
6.53
6.35
6.14
5.98
5.91
5.83
5.65
5.36
5.05
4.86
4.91
5.12
5.25
4.98
4.07
2.44
0.35
-1.76
-3.38
-4.15
-3.87
-2.64
-0.69
1.68
4.18
6.54
8.58
10.18
11.31
12.04
12.46
12.73
12.94
13.12
13.24
13.23
13.01
12.59
11.99
11.29
10.53
9.76
8.97
8.13
7.28
6.45
5.71
5.10
4.62
4.20
3.72
3.06
2.19
1.12
-0.05
-1.16
-2.08
-2.74
-3.18
-3.56
-4.12
-5.01
-6.32
-7.93
-9.66
-11.28
-12.69
-13.89
-14.95
-15.95
-16.89
-17.71
-18.29
-18.47
-18.16
-17.35
-16.08
-14.49
-12.77
-11.09
-9.61
-8.40
-7.48
-6.78
-6.20
-5.61
-4.93
-4.10
-3.16
-2.20
-1.29
-0.47
0.28
0.95
1.54
2.01
2.29
2.34
2.17
1.85
1.43
0.94
0.43
0.00
-0.23
-0.17
0.15
0.58
0.86
0.80
0.36
-0.29
-0.84
-1.00
-0.67
0.06
0.82
1.16
0.71
-0.68
-2.86
-5.46
-7.96
-9.91
-11.07
-11.44
-11.21
-10.67
-10.04
-9.45
-9.01
-8.73
-8.64
-8.71
-8.87
-8.93
-8.71
-8.04
-6.86
-5.23
-3.29
-1.21
0.88
2.97
5.19
7.63
10.34
13.23
16.09
18.67
20.73
22.16
22.85
22.75
21.77
19.89
17.23
13.96
10.34
6.53
2.59
-1.42
-5.35
-8.77
-11.14
-11.97
-11.12
-8.94
-6.24
-3.97
-2.91
-3.47
-5.58
-8.73
-12.19
-15.13
-16.87
-17.08
-15.90
-13.89
-11.77
-10.12
-9.17
-8.72
-8.32
-7.52
-6.06
-3.91
-1.23
1.76
4.86
7.83
10.45
12.49
13.75
14.21
14.03
13.53
13.02
12.72
12.63
12.56
12.29
11.62
10.49
9.01
7.40
5.88
4.67
3.86
3.41
3.20
3.01
2.63
1.90
0.85
-0.33
-1.37
-2.08
-2.46
-2.79
-3.52
-5.06
-7.74
-11.55
-16.27
-21.39
-26.34
-30.51
-33.50
-35.17
-35.72
-35.55
-35.09
-34.68
-34.47
-34.35
-34.17
-33.82
-33.29
-32.77
-32.55
-32.89
-33.90
-35.37
-36.91
-37.96
-38.11
-37.12
-35.03
-32.01
-28.22
-23.71
-18.48
-12.56
-6.18
0.28
6.30
11.30
14.80
16.55
16.63
15.61
14.49
14.39
16.24
20.33
26.13
32.35
37.35
39.67
38.54
34.06
27.16
19.32
12.13
6.90
4.34
4.45
6.64
10.04
13.77
17.35
20.68
23.96
27.44
31.19
35.00
38.42
40.98
42.33
42.33
41.13
39.02
36.44
33.90
31.86
30.65
30.35
30.79
31.51
31.86
31.21
29.23
25.96
21.88
17.69
14.12
11.75
10.83
11.11
12.02
12.91
13.31
13.06
12.25
11.12
10.07
9.38
9.15
9.28
9.54
9.74
9.66
9.10
7.93
6.61
5.60
4.96
4.10
2.20
-1.39
-6.80
-13.56
-20.68
-26.12
-28.23
-26.76
-23.05
-19.00
-16.14
-15.15
-15.94
-17.86
-18.80
-17.02
-12.58
-7.27
-3.21
-1.70
-2.94
-6.36
-10.69
-12.40
-7.80
5.21
26.38
53.93
85.19
116.92
145.61
157.53
143.75
107.11
60.67
17.15
-17.59
-43.52
-63.03
-78.58
-91.50
-100.15
-102.49
-97.98
-87.80
-73.50
-56.15
-36.38
-15.94
1.87
14.16
18.57
14.01
1.61
-14.81
-30.03
-39.67
-42.08
-38.33
-30.11
-18.89
-6.77
4.27
12.75
17.87
19.38
17.62
13.65
9.42
6.74
6.31
7.58
9.16
9.64
8.15
4.59
-0.54
-6.22
-11.45
-15.64
-18.53
-20.18
-20.87
-21.00
-20.98
-20.99
-20.83
-19.94
-17.68
-13.61
-7.85
-1.13
5.45
10.79
14.14
15.26
14.40
12.07
8.94
5.68
2.85
1.00
0.66
2.36
6.51
13.20
21.90
31.44
40.16
46.34
48.76
47.10
41.93
34.51
26.26
18.50
12.12
7.70
5.53
5.59
7.55
10.69
13.91
15.97
15.85
13.13
8.22
2.25
-3.29
-7.13
-8.70
-8.26
-6.61
-4.59
-2.59
-0.27
3.22
8.73
16.61
26.33
36.58
45.68
52.09
54.89
53.97
50.05
44.42
38.66
34.40
33.02
35.28
40.90
48.38
55.41
59.71
60.29
58.21
56.44
58.48
66.66
80.79
97.98
113.80
123.92
125.64
118.59
104.45
86.11
66.70
48.73
33.81
22.45
14.39
8.88
5.08
2.27
-0.22
-3.09
-7.12
-12.99
-20.86
-30.21
-39.91
-48.80
-56.31
-62.78
-69.34
-77.20
-87.01
-98.35
-109.79
-119.38
-125.36
-126.80
-123.85
-117.59
-109.55
-101.15
-93.31
-86.43
-80.51
-75.48
-71.33
-68.13
-66.01
-64.89
-64.40
-63.91
-62.76
-60.38
-56.55
-51.42
-45.56
-39.89
-35.25
-32.17
-30.64
-30.21
-29.95
-28.75
-25.37
-18.74
-8.64
4.36
18.71
32.18
42.29
47.27
46.50
40.72
31.49
19.74
6.30
-7.93
-21.95
-34.77
-45.51
-53.89
-60.07
-64.73
-70.21
-77.97
-87.94
-98.91
-109.66
-119.33
-128.16
-136.44
-144.31
-153.88
-165.71
-178.29
-189.05
-196.12
-198.70
-197.94
-195.08
-190.71
-187.46
-185.55
-182.62
-175.54
-162.78
-144.74
-124.31
-103.99
-67.10
-9.69
59.01
123.23
171.82
198.37
208.88
208.03
199.52
186.62
169.42
149.02
128.10
109.77
95.82
86.77
81.20
77.93
76.39
74.20
70.46
66.20
63.52
64.02
68.33
75.17
82.98
90.32
94.82
95.46
92.86
88.61
84.04
79.97
76.17
72.57
69.47
66.71
64.45
62.97
62.37
62.32
62.37
62.04
61.38
60.81
60.47
60.26
59.82
58.61
56.19
52.37
47.31
41.45
35.39
29.64
24.51
20.11
16.46
13.57
11.58
10.71
11.23
13.24
16.49
20.26
23.46
24.85
23.50
19.06
11.97
3.30
-5.68
-13.79
-20.21
-24.54
-26.61
-26.51
-24.39
-20.64
-15.87
-10.89
-6.52
-3.45
-1.99
-2.05
-3.22
-5.02
-7.04
-9.08
-11.04
-12.87
-14.43
-15.49
-15.87
-15.59
-14.92
-14.25
-13.97
-14.29
-15.14
-16.28
-17.36
-18.10
-18.32
-18.01
-17.31
-16.51
-15.94
-15.85
-16.24
-16.88
-17.40
-17.48
-17.06
-16.35
-15.72
-15.51
-15.89
-16.82
-18.05
-19.22
-19.88
-19.65
-18.29
-15.83
-12.70
-9.59
-7.31
-6.44
-7.17
-9.17
-11.71
-13.90
-14.90
-14.26
-11.88
-8.12
-3.49
1.40
6.12
10.32
13.75
16.18
17.45
17.66
17.15
16.45
16.10
16.38
17.21
18.23
19.00
19.21
18.83
17.90
16.61
15.11
13.62
12.34
11.47
11.09
11.07
11.12
10.91
10.24
9.20
8.06
7.17
6.86
7.25
8.24
9.54
10.78
11.57
11.66
10.94
9.53
7.59
5.25
2.54
-0.57
-4.06
-7.79
-11.50
-14.96
-18.00
-20.65
-22.96
-24.93
-26.45
-27.33
-27.36
-26.54
-25.03
-23.08
-20.92
-18.59
-15.96
-12.83
-9.01
-4.47
0.66
6.04
11.27
15.95
19.78
22.64
24.50
25.46
25.53
24.73
22.99
20.25
16.55
12.07
7.17
2.36
-1.80
-4.92
-6.92
-8.13
-9.17
-10.71
-13.12
-16.29
-19.65
-22.46
-24.22
-24.87
-24.94
-25.27
-26.68
-29.56
-33.70
-38.28
-42.25
-44.77
-45.48
-44.73
-43.35
-42.42
-42.93
-45.74
-51.29
-59.31
-68.35
-75.55
-77.30
-70.49
-54.10
-30.08
-2.98
21.86
40.31
50.98
55.17
55.64
54.97
54.48
54.18
53.45
51.86
49.48
46.68
43.79
40.77
37.33
33.17
28.17
22.58
17.02
12.29
9.13
8.02
8.81
10.84
13.10
14.65
14.99
14.24
12.97
11.84
11.30
11.39
11.83
12.21
12.25
11.88
11.23
10.53
9.96
9.57
9.28
8.91
8.33
7.48
6.44
5.40
4.52
3.85
3.31
2.74
1.96
0.96
-0.20
-1.37
-2.45
-3.42
-4.35
-5.31
-6.36
-7.43
-8.36
-8.93
-8.97
-8.37
-7.27
-6.06
-5.24
-5.29
-6.38
-8.33
-10.66
-12.87
-14.64
-15.90
-16.75
-17.20
-17.09
-16.10
-13.93
-10.54
-6.30
-1.87
1.94
4.50
5.58
5.50
5.02
5.08
6.50
9.66
14.28
19.60
24.57
28.20
29.80
29.15
26.64
23.26
20.50
19.98
22.81
28.86
36.43
42.59
44.25
39.36
27.84
11.63
-6.12
-22.22
-34.59
-42.51
-46.55
-47.93
-47.98
-47.89
-48.64
-51.03
-55.67
-62.76
-71.94
-82.20
-92.10
-100.19
-105.57
-108.36
-109.74
-111.46
-115.00
-120.63
-127.11
-131.90
-132.04
-124.93
-109.07
-84.24
-51.54
-13.37
26.83
64.94
97.02
120.29
133.93
139.35
139.48
137.62
136.09
135.71
135.77
134.81
131.40
124.65
114.43
101.22
85.92
69.65
53.57
38.81
26.18
16.06
8.30
2.26
-2.87
-7.79
-12.72
-17.44
-21.45
-24.35
-26.14
-27.32
-28.71
-31.01
-34.45
-38.58
-42.40
-44.80
-45.02
-43.03
-39.57
-35.87
-33.17
-32.45
-34.13
-38.08
-43.34
-48.02
-49.32
-44.26
-31.04
-10.26
14.41
37.13
52.03
55.66
48.41
34.18
18.50
6.06
-0.92
-2.92
-1.85
0.35
2.81
5.70
9.59
14.70
20.50
25.98
30.05
32.23
32.73
32.38
32.04
32.17
32.46
32.08
30.13
26.18
20.60
14.47
9.05
5.18
2.89
1.35
-0.71
-4.51
-10.85
-19.78
-30.49
-41.40
-50.33
-54.98
-53.61
-45.71
-32.19
-15.28
2.23
17.85
29.96
37.99
42.20
43.25
41.85
38.70
34.59
30.44
27.20
25.60
25.88
27.71
30.22
32.37
33.30
32.69
30.82
28.48
26.60
25.92
26.71
28.82
31.78
35.05
38.19
40.86
42.75
43.56
43.04
41.01
37.46
32.60
26.78
20.36
13.60
6.51
-1.05
-9.29
-18.31
-28.00
-37.95
-47.59
-56.34
-63.69
-69.28
-72.90
-74.44
-73.96
-71.74
-68.35
-64.56
-61.15
-58.66
-57.22
-56.53
-56.04
-55.04
-52.82
-48.80
-42.54
-33.98
-23.39
-11.47
0.92
12.90
23.83
33.27
40.90
46.33
48.97
48.21
43.72
35.86
25.93
16.05
8.57
5.26
6.64
11.75
18.37
23.82
25.81
23.18
16.15
6.23
-4.36
-13.31
-18.91
-20.43
-18.22
-13.46
-7.67
-2.27
1.77
3.95
4.16
2.55
-0.45
-4.18
-7.75
-10.27
-11.17
-10.46
-8.77
-7.09
-6.35
-7.03
-8.93
-11.32
-13.14
-13.52
-11.99
-8.70
-4.33
0.18
3.90
6.20
6.83
5.98
4.10
1.73
-0.67
-2.80
-4.53
-5.79
-6.48
-6.45
-5.53
-3.69
-1.09
1.89
4.78
7.13
8.64
9.19
8.82
7.64
5.84
3.65
1.35
-0.66
-2.00
-2.40
-1.75
-0.27
1.67
3.61
5.17
6.21
6.80
7.16
7.55
8.13
8.92
9.80
10.57
11.00
10.90
10.16
8.74
6.71
4.28
1.75
-0.47
-1.97
-2.45
-1.86
-0.41
1.44
3.22
4.57
5.39
5.79
5.95
5.99
5.92
5.62
4.95
3.85
2.29
0.32
-1.95
-4.36
-6.76
-9.00
-11.00
-12.80
-14.46
-16.01
-17.34
-18.27
-18.58
-18.16
-17.11
-15.65
-14.07
-12.44
-10.65
-8.42
-5.50
-1.90
2.04
5.74
8.59
10.21
10.58
10.00
8.93
7.79
6.89
6.31
6.01
5.88
5.78
5.63
5.35
4.97
4.62
4.50
4.82
5.68
7.06
8.69
10.29
11.54
12.27
12.40
11.96
11.01
9.61
7.80
5.66
3.30
0.86
-1.50
-3.65
-5.52
-7.10
-8.46
-9.65
-10.79
-11.93
-13.17
-14.54
-16.03
-17.49
-18.66
-19.20
-18.84
-17.55
-15.57
-13.41
-11.60
-10.54
-10.23
-10.33
-10.27
-9.52
-7.81
-5.28
-2.34
0.50
2.82
4.49
5.57
6.31
6.94
7.63
8.45
9.38
10.27
10.96
11.22
10.84
9.72
7.89
5.58
3.12
0.85
-0.94
-2.16
-2.84
-3.12
-3.13
-3.00
-2.74
-2.36
-1.89
-1.45
-1.23
-1.45
-2.30
-3.87
-6.09
-8.72
-11.41
-13.77
-15.47
-16.38
-16.57
-16.21
-15.56
-14.85
-14.11
-13.29
-12.25
-10.89
-9.12
-6.99
-4.59
-2.09
0.36
2.63
4.70
6.62
8.45
10.21
11.77
12.96
13.68
14.00
14.21
14.63
15.50
16.76
18.17
19.34
19.96
19.92
19.21
17.96
16.24
14.17
11.91
9.67
7.76
6.40
5.60
5.11
4.44
3.12
0.89
-2.03
-5.02
-7.35
-8.55
-8.69
-8.46
-8.79
-10.39
-13.25
-16.63
-19.30
-20.25
-19.14
-16.53
-13.60
-11.50
-10.84
-11.40
-12.32
-12.61
-11.72
-9.77
-7.50
-5.84
-5.36
-6.07
-7.37
-8.46
-8.66
-7.81
-6.17
-4.28
-2.58
-1.15
0.25
2.03
4.48
7.53
10.72
13.42
14.98
15.12
13.97
12.03
10.02
8.54
7.89
7.94
8.24
8.22
7.52
6.11
4.31
2.56
1.20
0.21
-0.69
-1.90
-3.61
-5.70
-7.78
-9.38
-10.16
-10.03
-9.12
-7.66
-5.91
-4.06
-2.21
-0.46
1.14
2.55
3.77
4.81
5.74
6.61
7.48
8.31
9.02
9.58
10.00
10.34
10.71
11.12
11.46
11.51
11.03
10.00
8.60
7.25
6.36
6.14
6.54
7.21
7.78
7.98
7.79
7.40
7.02
6.78
6.58
6.24
5.61
4.67
3.61
2.63
1.91
1.44
1.06
0.54
-0.27
-1.44
-2.90
-4.50
-6.02
-7.24
-7.97
-8.11
-7.67
-6.77
-5.59
-4.20
-2.66
-0.98
0.81
2.57
4.09
5.23
5.92
6.26
6.40
6.54
6.76
7.06
7.38
7.61
7.66
7.52
7.21
6.81
6.36
5.94
5.55
5.21
4.87
4.49
4.05
3.52
2.90
2.21
1.53
0.88
0.31
-0.21
-0.75
-1.41
-2.21
-3.11
-4.01
-4.81
-5.43
-5.90
-6.24
-6.53
-6.88
-7.41
-8.27
-9.53
-11.16
-12.99
-14.75
-16.17
-17.08
-17.43
-17.28
-16.67
-15.60
-14.00
-11.78
-8.91
-5.51
-1.83
1.74
4.83
7.13
8.57
9.24
9.36
9.12
8.60
7.78
6.57
5.10
3.60
2.38
1.71
1.60
1.86
2.21
2.41
2.38
2.21
2.15
2.41
3.14
4.31
5.70
6.94
7.58
7.28
5.93
3.65
0.79
-2.24
-5.13
-7.72
-10.02
-12.17
-14.39
-16.80
-19.43
-22.11
-24.49
-26.17
-26.83
-26.39
-24.98
-22.88
-20.34
-17.54
-14.58
-11.56
-8.65
-6.07
-3.95
-2.21
-0.62
1.12
3.20
5.63
8.30
11.09
14.01
17.14
20.62
24.48
28.64
32.92
37.14
41.13
44.69
47.59
49.53
50.20
49.48
47.47
44.57
41.39
38.48
36.22
34.61
33.32
31.80
29.49
25.99
21.23
15.47
9.29
3.42
-1.41
-4.76
-6.55
-7.12
-7.04
-6.85
-6.84
-6.96
-6.95
-6.57
-5.77
-4.72
-3.71
-3.00
-2.71
-2.87
-3.49
-4.61
-6.26
-8.42
-10.96
-13.82
-17.08
-21.08
-26.26
-32.85
-40.56
-48.45
-55.15
-59.29
-59.95
-57.01
-51.16
-43.63
-35.76
-28.62
-22.65
-17.56
-12.50
-6.46
1.38
11.31
23.00
35.62
48.17
59.70
69.43
76.69
80.83
81.30
77.81
70.66
60.86
50.01
39.80
31.58
25.79
21.96
18.89
15.17
9.76
2.36
-6.55
-16.01
-24.95
-32.63
-38.76
-43.48
-47.12
-50.01
-52.32
-54.00
-54.82
-54.48
-52.79
-49.79
-45.80
-41.45
-37.52
-34.68
-33.35
-33.55
-34.98
-37.10
-39.37
-41.31
-42.65
-43.35
-43.66
-44.06
-45.19
-47.52
-50.98
-54.69
-56.95
-55.72
-49.36
-37.44
-21.00
-2.32
15.88
31.37
42.88
50.19
53.69
53.95
51.46
46.69
40.30
33.23
26.50
20.99
17.07
14.60
13.07
11.85
10.42
8.48
5.98
3.04
-0.11
-3.24
-6.25
-9.13
-11.93
-14.53
-16.53
-17.28
-16.15
-12.84
-7.63
-1.40
4.72
9.77
13.30
15.41
16.55
17.21
17.69
18.06
18.20
17.97
17.28
16.08
14.47
12.63
10.89
9.64
9.25
9.82
11.05
12.11
11.75
8.68
2.17
-7.40
-18.31
-27.84
-33.17
-32.43
-25.41
-13.61
0.47
14.34
26.30
35.61
42.23
46.24
47.64
46.38
42.67
37.23
31.19
25.88
22.31
20.93
21.57
23.59
26.22
28.84
31.19
33.40
35.85
38.93
42.89
47.66
52.87
57.95
62.21
65.06
66.04
65.00
62.03
57.42
51.44
44.18
35.41
24.75
11.91
-3.06
-19.41
-35.90
-50.97
-63.33
-72.26
-77.83
-80.79
-82.19
-82.97
-83.68
-84.32
-84.50
-83.73
-81.64
-78.10
-73.22
-67.23
-60.47
-53.28
-46.13
-39.57
-34.12
-30.13
-27.61
-26.21
-25.28
-24.09
-22.06
-18.87
-14.60
-9.59
-4.35
0.53
4.66
7.82
10.10
11.74
13.11
14.46
15.89
17.37
18.84
20.23
21.55
22.83
24.03
25.06
25.69
25.72
25.03
23.64
21.78
19.80
18.08
16.85
16.21
15.98
15.90
15.70
15.20
14.38
13.28
11.97
10.43
8.57
6.31
3.65
0.69
-2.38
-5.33
-7.98
-10.28
-12.27
-14.13
-15.97
-17.82
-19.53
-20.89
-21.63
-21.62
-20.90
-19.63
-17.99
-16.15
-14.18
-12.09
-9.89
-7.64
-5.48
-3.51
-1.77
-0.23
1.23
2.69
4.15
5.50
6.55
7.17
7.35
7.26
7.13
7.18
7.48
7.94
8.35
8.48
8.23
7.67
7.00
6.41
6.02
5.76
5.43
4.79
3.68
2.09
0.16
-1.84
-3.66
-5.19
-6.47
-7.69
-9.05
-10.71
-12.70
-14.95
-17.28
-19.48
-21.25
-22.33
-22.50
-21.66
-19.93
-17.57
-14.92
-12.24
-9.64
-7.11
-4.60
-2.11
0.25
2.28
3.91
5.15
6.11
6.96
7.75
8.47
9.00
9.26
9.24
9.04
8.76
8.53
8.41
8.43
8.56
8.77
8.96
8.95
8.57
7.68
6.24
4.44
2.58
0.92
-0.33
-1.20
-1.86
-2.52
-3.27
-4.08
-4.81
-5.36
-5.82
-6.40
-7.42
-9.08
-11.34
-14.00
-16.69
-19.07
-20.91
-22.03
-22.35
-21.82
-20.39
-18.13
-15.17
-11.77
-8.18
-4.65
-1.37
1.50
3.87
5.67
6.90
7.68
8.17
8.57
9.03
9.63
10.37
11.20
11.99
12.60
12.96
13.02
12.87
12.66
12.53
12.52
12.55
12.44
12.01
11.28
10.30
9.23
8.10
6.87
5.40
3.71
1.97
0.49
-0.43
-0.66
-0.34
0.21
0.67
0.85
0.69
0.18
-0.70
-2.04
-3.88
-6.09
-8.34
-10.18
-11.21
-11.28
-10.53
-9.32
-7.99
-6.73
-5.50
-4.12
-2.45
-0.52
1.42
3.06
4.14
4.64
4.71
4.59
4.47
4.38
4.30
4.21
4.16
4.30
4.79
5.65
6.70
7.68
8.32
8.50
8.33
8.05
7.91
8.03
8.31
8.57
8.61
8.33
7.84
7.36
7.18
7.58
8.83
11.11
14.50
18.88
23.78
28.50
32.16
34.05
33.84
31.67
28.13
23.94
19.72
15.80
12.25
9.03
6.17
3.84
2.28
1.62
1.77
2.38
3.04
3.46
3.65
3.86
4.45
5.60
7.16
8.69
9.64
9.62
8.66
7.08
5.38
3.93
2.80
1.76
0.47
-1.34
-3.67
-6.26
-8.82
-11.12
-13.16
-15.10
-17.12
-19.25
-21.35
-23.14
-24.39
-25.00
-25.10
-24.89
-24.57
-24.26
-23.92
-23.50
-23.13
-23.08
-23.71
-25.22
-27.44
-29.77
-31.42
-31.70
-30.39
-27.84
-24.82
-22.23
-20.65
-20.16
-20.35
-20.52
-20.08
-18.86
-17.28
-16.15
-16.38
-18.53
-22.50
-27.49
-32.29
-35.78
-37.41
-37.47
-36.98
-37.27
-39.53
-44.38
-51.65
-60.34
-68.60
-74.17
-75.28
-71.39
-63.78
-55.16
-48.72
-46.73
-49.53
-55.07
-59.79
-60.08
-53.71
-40.69
-23.18
-5.15
8.85
14.94
11.76
0.86
-13.74
-27.01
-34.76
-34.76
-27.46
-15.35
-1.85
11.04
22.53
32.60
41.31
48.83
56.59
66.30
79.52
96.46
118.35
146.06
180.16
220.30
264.98
312.07
356.91
392.48
410.14
406.04
379.89
334.63
274.77
206.09
136.56
73.52
22.17
-16.52
-40.62
-50.55
-49.06
-40.65
-39.58
-52.92
-78.35
-96.25
-101.25
-89.64
-64.12
-28.02
11.85
46.92
70.68
79.04
71.48
39.56
-10.19
-62.32
-103.17
-130.03
-147.92
-161.44
-171.97
-177.40
-176.71
-167.57
-150.96
-129.47
-108.69
-93.16
-84.10
-79.64
-76.88
-74.36
-69.58
-61.65
-51.78
-42.34
-34.30
-26.63
-16.88
-3.18
12.65
27.43
38.41
45.20
49.49
55.90
64.17
71.19
72.46
63.34
39.60
3.28
-38.51
-76.37
-101.77
-110.36
-102.19
-80.60
-52.06
-24.53
-5.28
0.35
-10.06
-35.14
-70.51
-109.06
-141.87
-162.49
-168.89
-162.42
-146.02
-122.82
-95.03
-64.07
-29.82
10.52
58.26
110.76
161.85
203.92
230.16
236.80
223.60
182.91
119.90
51.99
-1.91
-33.00
-42.94
-39.94
-29.82
-16.50
-2.41
10.83
21.17
25.77
22.44
11.40
-4.52
-20.71
-32.99
-38.34
-34.08
-20.38
-0.52
21.14
41.49
59.28
74.21
84.93
89.05
85.00
71.34
47.69
16.04
-18.97
-51.44
-75.96
-89.73
-91.59
-80.46
-57.12
-24.05
14.97
55.00
90.45
116.02
127.15
122.86
106.99
84.14
58.18
31.48
4.11
-25.45
-59.07
-98.48
-142.05
-183.83
-218.15
-240.65
-248.72
-242.38
-223.99
-189.86
-144.32
-103.04
-69.37
-42.62
-24.04
-14.54
-13.26
-16.69
-19.21
-16.19
-4.32
17.57
45.08
71.00
89.14
96.44
93.49
83.54
69.82
55.83
45.51
40.42
40.53
45.19
53.22
63.06
73.01
80.96
85.75
87.65
86.60
82.36
75.06
65.39
54.52
43.99
35.01
28.49
25.13
24.53
25.72
27.73
29.79
31.32
31.77
30.49
26.97
21.13
13.37
4.82
-2.65
-7.02
-7.11
-3.27
2.47
7.33
9.24
7.93
5.11
3.32
4.26
7.66
11.38
12.78
10.28
4.26
-3.38
-10.48
-15.82
-19.43
-22.04
-24.14
-25.56
-25.67
-24.07
-21.08
-17.65
-14.90
-13.40
-12.91
-12.67
-11.89
-10.34
-8.51
-7.38
-7.88
-10.46
-14.81
-19.97
-24.69
-27.84
-28.76
-27.43
-24.45
-20.82
-17.54
-15.36
-14.55
-14.93
-16.12
-17.77
-19.78
-22.22
-25.17
-28.49
-31.76
-34.42
-35.89
-35.75
-33.77
-29.90
-24.40
-17.96
-11.83
-7.61
-6.71
-9.75
-16.17
-24.28
-31.91
-37.15
-38.82
-36.65
-31.22
-23.87
-16.36
-10.33
-6.28
-2.86
3.20
15.85
37.69
67.96
102.08
132.87
153.26
159.19
151.20
134.12
115.24
101.74
98.72
108.31
129.93
161.04
197.99
236.35
271.30
297.74
311.02
307.86
287.24
250.73
201.93
145.34
85.18
24.78
-33.47
-87.67
-136.29
-178.32
-213.73
-243.56
-269.69
-294.05
-318.05
-342.19
-366.38
-390.29
-413.51
-435.44
-455.07
-470.82
-480.78
-483.33
-477.76
-464.84
-446.82
-427.06
-409.07
-395.35
-386.61
-381.44
-376.68
-368.44
-353.29
-329.19
-295.94
-254.95
-208.70
-160.02
-111.51
-65.25
-22.79
14.74
46.67
72.72
93.06
108.47
120.14
129.69
138.99
150.10
164.99
185.02
210.27
239.14
268.48
294.53
314.18
326.11
331.03
331.06
328.60
325.32
321.88
318.31
314.65
311.32
308.97
308.07
308.59
310.11
312.21
314.78
317.87
321.11
323.20
321.77
313.74
296.52
269.21
233.29
192.57
152.18
117.16
91.12
75.49
69.63
71.33
77.60
85.24
91.28
93.33
89.89
80.70
66.77
50.09
33.02
17.55
4.81
-4.91
-11.86
-16.47
-19.08
-20.01
-19.66
-18.66
-17.73
-17.51
-18.40
-20.52
-23.71
-27.56
-31.57
-35.14
-37.67
-38.71
-38.11
-36.13
-33.36
-30.54
-28.29
-26.90
-26.36
-26.42
-26.92
-27.82
-29.29
-31.51
-34.49
-38.01
-41.73
-45.30
-48.50
-51.19
-53.26
-54.44
-54.35
-52.61
-48.94
-43.39
-36.31
-28.34
-20.31
-13.07
-7.41
-3.93
-2.89
-4.15
-7.22
-11.27
-15.42
-18.90
-21.25
-22.41
-22.69
-22.56
-22.42
-22.48
-22.70
-22.91
-23.04
-23.16
-23.49
-24.14
-25.02
-25.86
-26.30
-26.17
-25.56
-24.92
-24.80
-25.72
-27.96
-31.45
-35.85
-40.60
-45.03
-48.54
-50.77
-51.70
-51.68
-51.22
-50.82
-50.80
-51.20
-51.90
-52.80
-53.99
-55.76
-58.59
-62.86
-68.76
-76.04
-83.96
-91.21
-95.98
-96.12
-89.66
-75.47
-53.93
-27.14
1.46
28.18
50.25
66.74
78.76
88.70
99.00
111.15
125.09
139.55
152.70
162.95
169.24
171.12
168.51
161.63
151.10
138.05
124.08
110.98
100.08
91.85
85.75
80.56
75.00
68.35
60.67
52.68
45.39
39.70
36.15
34.82
35.34
36.97
38.59
38.88
36.60
31.01
22.21
11.24
-0.25
-10.61
-18.92
-25.33
-30.94
-37.18
-44.95
-54.09
-63.34
-70.93
-75.40
-76.34
-74.62
-71.96
-70.29
-70.87
-73.80
-78.07
-82.00
-84.13
-83.90
-81.98
-80.00
-79.76
-82.29
-87.32
-93.34
-98.18
-99.90
-97.41
-90.49
-79.86
-67.11
-54.99
-47.32
-48.09
-59.72
-81.12
-106.96
-128.79
-138.03
-129.23
-102.00
-60.67
-12.00
37.36
82.31
119.11
144.36
154.44
146.23
118.71
74.48
19.91
-36.00
-83.82
-116.05
-128.79
-122.34
-100.62
-69.78
-36.32
-5.39
20.19
39.91
54.57
64.87
70.32
68.95
58.04
35.57
1.69
-40.13
-83.06
-118.22
-137.03
-133.97
-108.53
-65.50
-13.12
39.92
87.40
126.79
158.37
182.87
199.34
204.65
194.95
168.39
127.15
77.81
29.36
-10.03
-35.83
-48.31
-51.57
-51.06
-51.08
-53.24
-56.63
-59.15
-59.21
-56.78
-53.37
-51.20
-51.81
-55.15
-59.47
-62.05
-60.39
-53.36
-41.62
-27.35
-13.29
-1.76
6.07
10.17
11.34
10.63
8.96
7.13
5.96
6.37
8.95
13.20
16.97
16.77
9.12
-7.51
-31.19
-56.54
-76.53
-85.22
-80.30
-63.89
-41.25
-18.25
1.16
16.04
27.79
38.34
48.42
56.97
61.69
60.43
52.27
37.91
19.28
-1.30
-21.69
-40.20
-55.50
-66.56
-72.71
-73.90
-70.80
-64.68
-57.05
-49.33
-42.56
-37.31
-33.66
-31.18
-28.90
-25.57
-20.04
-11.85
-1.43
9.87
20.36
28.58
33.77
36.11
36.45
36.04
35.98
36.90
38.58
40.10
40.15
37.79
33.00
27.04
22.10
20.51
23.75
31.84
43.25
55.52
66.20
73.63
77.39
78.27
77.77
77.54
78.78
81.84
86.13
90.29
92.62
91.51
85.84
75.22
60.08
41.55
21.28
1.21
-16.78
-31.12
-40.81
-45.54
-45.65
-42.02
-35.91
-28.73
-21.92
-16.70
-13.91
-13.82
-16.14
-20.14
-25.00
-30.10
-35.17
-40.27
-45.45
-50.53
-55.02
-58.23
-59.64
-59.19
-57.31
-54.80
-52.45
-50.76
-49.81
-49.35
-49.00
-48.49
-47.71
-46.72
-45.62
-44.48
-43.31
-42.14
-41.04
-40.06
-39.15
-38.12
-36.64
-34.43
-31.41
-27.81
-24.23
-21.45
-20.22
-21.07
-24.14
-29.18
-35.66
-42.85
-50.09
-56.89
-63.06
-68.65
-73.74
-78.41
-82.64
-86.37
-89.57
-92.34
-94.95
-97.82
-101.34
-105.93
-111.80
-119.12
-127.98
-138.23
-149.39
-160.60
-171.01
-180.01
-187.59
-194.32
-201.07
-208.53
-216.80
-225.33
-233.24
-239.79
-244.23
-245.64
-242.76
-234.39
-220.00
-200.04
-175.86
-149.34
-122.49
-96.53
-71.52
-46.76
-21.63
4.06
30.14
56.44
82.60
107.53
130.04
149.67
166.97
183.18
199.64
217.30
236.36
255.19
269.81
275.51
269.14
250.52
222.51
190.11
159.15
134.83
123.44
126.04
136.16
144.09
144.22
137.26
127.38
118.83
115.39
118.14
126.32
138.52
153.45
169.64
185.10
198.05
203.04
198.45
185.48
166.72
145.04
122.95
102.23
83.75
67.74
54.05
42.73
32.90
22.66
10.20
-4.97
-21.62
-37.62
-51.05
-61.10
-67.67
-71.73
-74.67
-77.48
-80.22
-82.24
-82.72
-81.19
-77.72
-72.45
-65.84
-58.49
-50.92
-43.42
-36.05
-28.78
-21.62
-14.69
-8.07
-1.97
3.39
7.89
11.58
14.69
17.45
20.00
22.32
24.33
26.00
27.48
29.08
31.14
33.75
36.69
39.43
41.41
42.28
42.08
41.20
40.04
38.89
37.71
36.25
34.26
31.62
28.40
24.76
20.87
16.80
12.58
8.25
3.85
-0.58
-5.05
-9.63
-14.40
-19.31
-24.14
-28.42
-31.67
-33.50
-33.79
-32.75
-30.83
-28.59
-26.56
-25.15
-24.54
-24.80
-25.83
-27.44
-29.42
-31.53
-33.53
-35.22
-36.41
-36.96
-36.88
-36.32
-35.57
-35.01
-34.92
-35.45
-36.53
-37.98
-39.55
-41.02
-42.09
-42.31
-40.99
-37.48
-31.36
-22.88
-12.96
-3.03
5.45
11.43
14.58
15.16
13.76
10.99
7.29
3.04
-1.35
-5.30
-8.17
-9.45
-8.99
-7.03
-4.12
-0.83
2.43
5.60
8.80
12.29
16.17
20.30
24.30
27.67
29.95
30.86
30.38
28.75
26.36
23.61
20.75
17.86
14.87
11.65
8.10
4.12
-0.39
-5.62
-11.69
-18.46
-25.29
-31.03
-34.34
-34.14
-30.10
-22.85
-13.82
-4.78
2.66
7.38
8.97
7.71
4.42
0.29
-3.47
-5.90
-6.56
-5.63
-3.71
-1.52
0.36
1.64
2.40
3.01
4.14
6.66
11.42
18.89
28.93
40.59
52.43
63.01
71.38
77.39
81.44
84.13
85.82
86.50
85.94
84.00
80.88
77.19
73.81
71.46
70.50
70.76
71.61
72.19
71.60
69.07
63.85
55.33
43.13
27.39
9.09
-9.85
-26.95
-39.89
-47.29
-49.22
-47.04
-42.84
-38.59
-35.56
-34.01
-33.48
-33.21
-32.63
-31.78
-31.28
-31.99
-34.40
-38.12
-41.71
-43.19
-40.98
-34.92
-26.69
-19.28
-15.79
-17.86
-24.82
-33.55
-39.40
-37.64
-25.04
-1.12
31.23
66.08
95.92
113.79
115.45
100.93
74.80
45.02
20.60
8.64
11.91
27.77
49.20
67.42
75.26
69.75
52.88
30.16
7.95
-9.04
-18.88
-21.74
-18.43
-9.31
5.65
25.74
48.48
69.66
84.73
90.76
87.78
78.84
68.58
61.06
58.17
59.09
61.16
61.50
58.41
52.09
44.28
37.26
32.74
31.23
31.98
33.46
34.13
32.99
29.83
25.14
19.71
14.33
9.48
5.33
1.87
-0.97
-3.22
-4.85
-5.79
-6.02
-5.64
-4.93
-4.26
-4.14
-4.97
-7.06
-10.48
-15.08
-20.53
-26.34
-31.99
-37.03
-41.14
-44.18
-46.22
-47.42
-47.99
-48.07
-47.69
-46.83
-45.47
-43.73
-41.87
-40.31
-39.49
-39.73
-41.10
-43.34
-46.00
-48.66
-51.10
-53.46
-56.18
-59.76
-64.40
-69.83
-75.22
-79.48
-81.69
-81.46
-79.17
-75.86
-72.77
-70.80
-70.05
-69.78
-68.78
-66.04
-61.39
-55.78
-50.95
-48.62
-49.68
-53.62
-58.52
-61.56
-59.71
-50.57
-32.93
-7.26
23.96
56.29
83.95
101.25
104.40
93.04
70.74
44.01
20.11
4.66
0.01
5.17
17.00
31.98
47.44
61.91
74.42
83.53
86.96
82.08
67.32
43.69
15.48
-10.44
-26.73
-28.22
-13.89
12.83
45.60
77.77
104.57
123.98
136.00
141.13
139.18
129.35
111.31
86.46
58.26
31.31
9.69
-4.72
-12.81
-17.64
-23.10
-32.53
-47.88
-69.40
-95.65
-123.53
-148.65
-165.88
-170.43
-159.11
-131.47
-90.35
-41.61
6.94
47.20
72.72
80.26
70.59
48.17
19.70
-7.98
-29.81
-43.64
-50.01
-51.18
-49.79
-47.91
-46.81
-47.12
-49.05
-52.49
-56.92
-61.49
-65.31
-67.82
-69.27
-70.57
-73.00
-77.45
-83.89
-91.33
-98.20
-103.08
-105.54
-106.31
-107.07
-109.71
-115.34
-123.55
-132.10
-137.32
-134.95
-121.42
-95.11
-57.15
-11.60
35.40
77.05
107.68
124.10
126.11
116.12
98.09
76.39
55.05
37.40
25.95
22.15
25.88
34.94
45.02
50.71
47.10
31.74
5.84
-25.68
-55.55
-76.07
-81.25
-68.51
-39.67
-0.84
38.85
69.73
84.51
80.58
60.74
31.83
1.97
-22.36
-37.98
-45.00
-45.42
-41.56
-35.14
-27.36
-19.40
-12.85
-9.30
-9.52
-12.68
-16.38
-17.46
-13.34
-3.31
10.94
25.95
37.83
43.84
43.53
38.68
32.44
27.95
27.20
30.61
37.32
45.82
54.46
61.75
66.55
68.41
68.18
68.43
73.23
86.84
111.58
146.01
184.47
218.69
240.71
245.80
233.83
208.45
174.78
137.13
97.75
57.23
15.75
-25.62
-64.51
-97.70
-121.90
-134.61
-134.70
-122.74
-101.16
-73.97
-46.16
-22.63
-7.13
-1.56
-5.76
-17.85
-34.90
-53.64
-71.00
-84.73
-93.87
-98.93
-101.46
-103.03
-103.95
-102.52
-95.41
-79.17
-52.42
-17.20
21.22
56.00
81.38
94.76
97.25
92.72
85.73
79.74
76.17
74.63
73.75
72.05
68.42
62.17
52.99
40.96
26.74
11.64
-2.46
-13.49
-19.86
-20.97
-17.52
-11.35
-4.81
-0.12
1.32
-0.83
-5.92
-12.62
-19.43
-25.08
-28.80
-30.50
-30.68
-30.18
-29.81
-30.00
-30.73
-31.57
-31.99
-31.63
-30.51
-29.02
-27.74
-27.16
-27.48
-28.58
-30.06
-31.47
-32.42
-32.75
-32.47
-31.73
-30.74
-29.67
-28.58
-27.48
-26.24
-24.68
-22.67
-20.17
-17.36
-14.55
-12.09
-10.12
-8.53
-7.02
-5.24
-3.02
-0.41
2.38
5.20
8.01
10.93
14.06
17.37
20.73
23.92
26.72
28.86
29.99
29.72
27.69
23.92
18.90
13.55
8.91
5.81
4.62
5.15
6.87
9.16
11.49
13.50
14.99
15.91
16.31
16.33
16.19
16.13
16.27
16.60
16.98
17.16
16.90
16.00
14.38
12.13
9.45
6.64
3.94
1.53
-0.61
-2.54
-4.41
-6.33
-8.40
-10.67
-13.13
-15.76
-18.46
-21.13
-23.73
-26.30
-28.92
-31.64
-34.36
-36.74
-38.31
-38.67
-37.69
-35.50
-32.46
-28.93
-25.19
-21.37
-17.56
-13.89
-10.51
-7.63
-5.40
-3.81
-2.78
-2.14
-1.75
-1.48
-1.27
-1.03
-0.69
-0.14
0.64
1.65
2.78
3.87
4.70
5.14
5.11
4.62
3.76
2.63
1.31
-0.15
-1.70
-3.25
-4.70
-5.99
-7.08
-8.04
-8.94
-9.81
-10.72
-11.71
-12.92
-14.54
-16.71
-19.32
-21.97
-24.02
-24.80
-23.88
-21.25
-17.34
-12.79
-8.28
-4.26
-0.90
1.84
4.10
6.04
7.71
9.09
10.10
10.67
10.81
10.64
10.32
10.05
9.91
9.96
10.18
10.54
11.00
11.48
11.90
12.08
11.91
11.30
10.32
9.01
7.45
5.66
3.68
1.57
-0.51
-2.38
-3.83
-4.73
-5.06
-4.96
-4.74
-4.78
-5.46
-6.99
-9.31
-12.04
-14.56
-16.22
-16.48
-15.15
-12.32
-8.37
-3.82
0.72
4.64
7.38
8.56
8.08
6.17
3.34
0.31
-2.22
-3.70
-3.90
-2.85
-0.85
1.68
4.34
6.86
9.04
10.79
12.08
12.92
13.42
13.73
14.00
14.28
14.52
14.57
14.33
13.77
12.93
11.92
10.79
9.59
8.38
7.22
6.19
5.28
4.38
3.32
1.94
0.14
-2.05
-4.54
-7.29
-10.25
-13.36
-16.47
-19.35
-21.70
-23.21
-23.67
-22.94
-21.02
-18.03
-14.18
-9.81
-5.32
-1.13
2.31
4.61
5.59
5.31
4.08
2.39
0.64
-0.97
-2.51
-4.11
-5.82
-7.43
-8.67
-9.42
-9.97
-10.93
-13.00
-16.50
-21.21
-26.31
-30.88
-34.19
-36.06
-36.80
-37.00
-37.22
-37.79
-38.80
-40.15
-41.69
-43.24
-44.68
-45.89
-46.80
-47.33
-47.44
-47.06
-46.05
-44.17
-41.17
-36.89
-31.49
-25.47
-19.56
-14.44
-10.53
-7.73
-5.61
-3.53
-0.96
2.40
6.59
11.46
16.65
21.71
26.07
29.27
31.10
31.75
31.81
32.05
33.13
35.39
38.75
42.83
46.98
50.49
52.62
52.68
50.25
45.31
38.27
29.93
21.20
12.80
5.21
-1.47
-7.35
-12.60
-17.42
-21.91
-26.13
-30.05
-33.47
-36.12
-37.73
-38.18
-37.54
-36.05
-33.95
-31.36
-28.17
-24.11
-18.89
-12.43
-4.92
3.15
11.05
18.01
23.41
26.99
28.87
29.56
29.73
29.96
30.56
31.49
32.52
33.32
33.61
33.24
32.21
30.59
28.57
26.38
24.27
22.50
21.22
20.48
20.20
20.23
20.41
20.58
20.56
20.15
19.11
17.29
14.75
11.93
9.62
8.86
10.62
15.49
23.38
33.60
45.05
56.66
67.70
77.87
87.16
95.50
102.57
107.77
110.47
110.32
107.54
102.81
97.09
91.23
85.66
80.39
75.11
69.39
62.79
54.99
45.72
34.86
22.49
9.06
-4.66
-17.73
-29.22
-38.57
-45.63
-50.66
-54.16
-56.54
-58.10
-58.98
-59.22
-58.89
-58.20
-57.40
-56.78
-56.51
-56.63
-57.04
-57.50
-57.72
-57.40
-56.30
-54.30
-51.43
-47.91
-44.13
-40.65
-38.06
-36.90
-37.56
-40.14
-44.37
-49.72
-55.48
-61.07
-66.21
-71.05
-76.06
-81.76
-88.41
-95.88
-103.58
-110.79
-116.96
-121.91
-125.87
-129.18
-131.95
-133.67
-133.21
-128.95
-119.26
-102.91
-79.61
-50.29
-17.25
16.02
45.49
67.45
79.57
81.62
75.55
64.77
53.00
43.02
36.03
31.66
28.68
25.92
22.79
19.39
16.31
14.20
13.65
15.22
19.46
26.89
37.68
51.39
66.78
81.95
94.84
103.75
107.83
107.23
102.97
96.46
89.14
82.01
75.55
69.85
64.79
60.36
56.66
53.87
52.05
51.02
50.37
49.64
48.53
47.02
45.28
43.50
41.77
40.04
38.28
36.64
35.47
35.21
36.09
37.93
40.15
41.80
41.86
39.39
33.92
25.64
15.47
4.91
-4.44
-11.36
-15.37
-16.78
-16.55
-16.06
-16.88
-20.47
-27.77
-38.77
-52.17
-65.56
-75.98
-81.02
-79.71
-72.83
-62.45
-50.94
-40.13
-30.79
-22.84
-15.82
-9.27
-3.02
2.95
8.61
14.06
19.53
25.29
31.53
38.13
44.59
50.10
53.85
55.36
54.82
53.06
51.30
50.60
51.40
53.33
55.40
56.46
55.70
52.98
48.76
43.79
38.78
34.16
30.10
26.67
23.99
22.27
21.69
22.31
24.00
26.52
29.66
33.29
37.35
41.61
45.62
48.65
49.97
49.12
46.18
41.85
37.14
33.13
30.43
29.05
28.46
27.93
26.90
25.31
23.54
22.11
21.40
21.36
21.38
20.29
16.48
8.08
-6.66
-28.68
-57.38
-90.15
-122.57
-149.40
-166.11
-170.33
-162.39
-144.93
-121.75
-96.50
-71.83
-49.21
-29.25
-12.22
1.68
12.26
19.49
23.60
25.14
24.83
23.34
21.05
17.98
13.97
8.82
2.60
-4.26
-11.02
-16.86
-21.23
-23.90
-25.00
-24.90
-24.01
-22.70
-21.25
-19.77
-18.31
-16.81
-15.34
-14.14
-13.64
-14.32
-16.54
-20.27
-25.12
-30.44
-35.60
-40.14
-43.90
-46.89
-49.22
-50.94
-52.19
-53.30
-54.86
-57.69
-62.36
-68.86
-76.18
-82.54
-85.85
-84.53
-78.20
-67.81
-55.31
-42.89
-32.24
-24.17
-18.66
-15.20
-13.10
-11.84
-11.02
-10.32
-9.43
-8.08
-6.04
-3.23
0.23
4.03
7.70
10.79
13.03
14.46
15.43
16.44
17.89
19.93
22.39
24.89
27.19
29.28
31.37
33.73
36.37
39.00
41.01
41.81
41.04
38.74
35.28
31.24
27.21
23.54
20.41
17.78
15.46
13.24
10.91
8.36
5.60
2.79
0.17
-1.93
-3.28
-3.81
-3.73
-3.54
-3.81
-4.93
-6.92
-9.32
-11.46
-12.77
-13.08
-12.66
-11.91
-11.15
-10.35
-9.24
-7.52
-5.14
-2.41
0.22
2.31
3.76
4.73
5.55
6.48
7.57
8.68
9.56
10.09
10.28
10.30
10.34
10.47
10.62
10.61
10.29
9.66
8.90
8.26
7.95
7.90
7.87
7.52
6.61
5.20
3.55
2.03
0.82
-0.15
-1.20
-2.64
-4.58
-6.79
-8.88
-10.58
-11.89
-13.15
-14.72
-16.78
-19.07
-21.03
-22.05
-21.83
-20.44
-18.30
-15.85
-13.36
-10.94
-8.53
-6.13
-3.79
-1.56
0.58
2.78
5.24
8.08
11.27
14.56
17.62
20.13
21.89
22.85
23.17
23.07
22.88
22.90
23.32
24.15
25.26
26.37
27.25
27.72
27.74
27.37
26.67
25.69
24.50
23.12
21.63
20.05
18.34
16.35
13.84
10.59
6.50
1.62
-3.83
-9.51
-15.11
-20.30
-24.83
-28.49
-31.13
-32.71
-33.27
-32.97
-32.00
-30.50
-28.54
-26.13
-23.25
-20.00
-16.54
-13.11
-9.91
-7.06
-4.53
-2.30
-0.31
1.46
2.95
4.12
5.01
5.75
6.51
7.42
8.48
9.54
10.33
10.62
10.35
9.63
8.67
7.67
6.65
5.54
4.19
2.59
0.83
-0.93
-2.55
-4.04
-5.52
-7.09
-8.79
-10.50
-12.10
-13.60
-15.13
-16.95
-19.30
-22.19
-25.41
-28.49
-30.89
-32.11
-31.88
-30.22
-27.49
-24.17
-20.72
-17.40
-14.25
-11.11
-7.89
-4.62
-1.51
1.17
3.27
4.80
5.89
6.67
7.22
7.53
7.65
7.69
7.80
8.12
8.70
9.44
10.17
10.73
11.02
11.02
10.79
10.43
10.05
9.82
9.84
10.13
10.58
10.97
11.02
10.54
9.38
7.57
5.27
2.72
0.25
-1.82
-3.30
-4.12
-4.47
-4.68
-5.17
-6.36
-8.43
-11.31
-14.55
-17.48
-19.38
-19.75
-18.45
-15.72
-12.00
-7.79
-3.45
0.79
4.75
8.23
11.00
12.84
13.72
13.78
13.38
12.92
12.68
12.78
13.15
13.58
13.84
13.78
13.34
12.66
11.90
11.24
10.66
10.03
9.11
7.68
5.64
3.01
-0.16
-3.80
-7.85
-12.22
-16.70
-20.90
-24.43
-26.91
-28.16
-28.13
-26.90
-24.56
-21.27
-17.26
-12.88
-8.56
-4.73
-1.71
0.41
1.67
2.27
2.45
2.46
2.60
3.06
3.96
5.30
6.94
8.68
10.43
12.18
14.02
16.07
18.38
20.86
23.33
25.49
27.06
27.86
27.89
27.32
26.51
25.78
25.37
25.29
25.38
25.38
24.99
23.97
22.22
19.81
17.03
14.32
12.16
10.83
10.31
10.27
10.24
9.88
9.06
7.82
6.30
4.59
2.71
0.59
-1.72
-4.17
-6.67
-9.17
-11.68
-14.18
-16.60
-18.83
-20.82
-22.58
-24.28
-26.12
-28.27
-30.78
-33.52
-36.21
-38.40
-39.61
-39.39
-37.54
-34.19
-29.76
-24.82
-19.87
-15.14
-10.69
-6.42
-2.36
1.28
4.17
6.05
6.80
6.54
5.61
4.36
3.11
2.08
1.44
1.28
1.67
2.62
4.06
5.80
7.57
9.13
10.35
11.26
11.95
12.57
13.15
13.59
13.73
13.40
12.58
11.40
10.05
8.68
7.29
5.85
4.29
2.66
1.13
-0.09
-0.86
-1.25
-1.52
-2.02
-3.07
-4.73
-6.84
-9.02
-10.80
-11.79
-11.78
-10.78
-8.88
-6.33
-3.33
-0.09
3.20
6.40
9.47
12.38
15.10
17.57
19.58
20.87
21.20
20.46
18.74
16.27
13.28
9.93
6.26
2.34
-1.70
-5.65
-9.34
-12.70
-15.86
-19.04
-22.39
-25.90
-29.43
-32.76
-35.64
-37.73
-38.59
-37.65
-34.37
-28.51
-20.30
-10.47
-0.16
9.36
16.97
21.93
23.94
23.21
20.29
15.97
11.01
5.96
1.06
-3.76
-8.68
-13.73
-18.67
-22.98
-26.02
-27.32
-26.82
-24.94
-22.40
-19.95
-17.89
-16.04
-13.79
-10.61
-6.52
-2.22
1.09
2.26
0.73
-3.22
-8.62
-14.19
-18.88
-22.18
-24.16
-25.40
-26.76
-29.17
-33.36
-39.65
-47.55
-55.49
-60.81
-60.27
-51.09
-32.16
-4.90
26.83
57.75
82.87
99.00
105.58
104.22
97.63
88.37
78.12
67.62
57.12
46.90
37.38
28.92
21.55
14.85
8.22
1.14
-6.45
-14.13
-21.17
-26.88
-30.83
-33.03
-33.81
-33.71
-33.23
-32.70
-32.12
-31.25
-29.60
-26.76
-22.52
-17.06
-10.94
-4.93
0.35
4.55
7.77
10.38
12.87
15.55
18.53
21.73
24.97
28.16
31.28
34.41
37.61
40.75
43.47
45.33
45.90
45.03
42.85
39.79
36.36
32.93
29.70
26.63
23.58
20.40
17.03
13.51
10.06
7.00
4.76
3.75
4.34
6.69
10.72
16.00
21.81
27.15
31.01
32.62
31.71
28.59
24.09
19.32
15.35
12.97
12.63
14.43
18.16
23.39
29.48
35.70
41.30
45.62
48.23
48.96
47.97
45.72
42.89
40.16
38.00
36.48
35.30
33.95
31.95
28.97
24.84
19.46
12.69
4.44
-5.20
-15.91
-26.99
-37.68
-47.18
-54.88
-60.40
-63.67
-64.85
-64.44
-63.17
-61.86
-61.15
-61.33
-62.27
-63.56
-64.70
-65.31
-65.26
-64.63
-63.57
-62.28
-60.89
-59.40
-57.69
-55.52
-52.58
-48.55
-43.23
-36.58
-28.79
-20.23
-11.39
-2.79
5.19
12.39
18.91
25.02
31.00
36.92
42.59
47.60
51.46
53.80
54.47
53.56
51.26
47.81
43.42
38.32
32.78
27.15
21.75
16.87
12.68
9.24
6.61
4.82
3.85
3.60
3.84
4.22
4.42
4.15
3.27
1.78
-0.25
-2.65
-5.21
-7.71
-10.01
-12.10
-14.10
-16.24
-18.63
-21.21
-23.66
-25.49
-26.29
-25.89
-24.45
-22.37
-20.18
-18.41
-17.48
-17.58
-18.71
-20.69
-23.19
-25.86
-28.31
-30.14
-30.99
-30.55
-28.71
-25.60
-21.62
-17.31
-13.17
-9.46
-6.17
-3.08
0.04
3.34
6.89
10.77
15.20
20.49
26.80
34.06
41.83
49.42
56.14
61.51
65.30
67.50
68.22
67.65
66.01
63.59
60.62
57.11
52.79
47.02
39.06
28.33
14.79
-0.95
-17.66
-33.76
-47.74
-58.34
-64.83
-67.09
-65.60
-61.41
-55.77
-49.86
-44.46
-39.78
-35.48
-31.00
-25.81
-19.76
-13.16
-6.62
-0.85
3.57
6.46
7.94
8.39
8.29
8.01
7.82
7.84
8.13
8.75
9.72
11.01
12.47
13.85
14.90
15.44
15.46
15.11
14.62
14.22
13.98
13.85
13.69
13.30
12.59
11.54
10.28
8.98
7.74
6.61
5.50
4.26
2.84
1.30
-0.20
-1.58
-3.01
-4.95
-8.06
-12.92
-19.69
-28.06
-37.29
-46.44
-54.70
-61.44
-66.27
-68.88
-69.03
-66.63
-61.83
-55.14
-47.38
-39.42
-31.98
-25.47
-19.95
-15.27
-11.21
-7.59
-4.28
-1.17
1.77
4.55
7.11
9.37
11.29
12.93
14.40
15.85
17.27
18.55
19.46
19.78
19.44
18.49
17.16
15.70
14.31
13.11
12.02
10.88
9.49
7.70
5.54
3.14
0.77
-1.38
-3.20
-4.81
-6.45
-8.40
-10.91
-14.07
-17.82
-21.96
-26.17
-30.04
-33.16
-35.12
-35.62
-34.51
-31.86
-27.92
-23.07
-17.79
-12.47
-7.40
-2.72
1.50
5.23
8.42
10.99
12.96
14.38
15.40
16.23
16.98
17.67
18.22
18.55
18.60
18.45
18.22
18.01
17.88
17.74
17.48
17.02
16.33
15.49
14.59
13.73
12.94
12.24
11.56
10.79
9.78
8.36
6.47
4.15
1.64
-0.80
-2.94
-4.68
-6.09
-7.31
-8.52
-9.80
-11.26
-13.03
-15.20
-17.80
-20.60
-23.08
-24.62
-24.60
-22.74
-19.16
-14.33
-8.85
-3.29
2.02
6.90
11.34
15.32
18.84
21.85
24.29
26.18
27.53
28.39
28.83
28.94
28.77
28.45
28.09
27.82
27.82
28.20
29.06
30.31
31.68
32.77
33.11
32.38
30.41
27.33
23.41
19.02
14.53
10.18
6.11
2.40
-0.98
-4.07
-6.93
-9.65
-12.31
-14.95
-17.61
-20.28
-22.96
-25.65
-28.37
-31.15
-34.00
-36.84
-39.45
-41.49
-42.55
-42.28
-40.55
-37.47
-33.37
-28.65
-23.70
-18.82
-14.27
-10.28
-7.04
-4.68
-3.17
-2.25
-1.55
-0.71
0.46
1.89
3.32
4.48
5.25
5.74
6.22
6.97
8.10
9.54
11.05
12.39
13.40
14.08
14.50
14.74
14.85
14.81
14.56
14.02
13.16
11.99
10.58
9.08
7.61
6.25
5.00
3.74
2.31
0.47
-1.95
-5.00
-8.61
-12.54
-16.44
-19.90
-22.59
-24.19
-24.53
-23.52
-21.20
-17.73
-13.47
-8.82
-4.25
-0.06
3.64
6.90
9.83
12.47
14.76
16.59
17.87
18.64
18.99
19.08
19.04
18.98
19.00
19.12
19.40
19.80
20.27
20.70
20.94
20.89
20.48
19.73
18.69
17.50
16.20
14.83
13.33
11.64
9.74
7.71
5.69
3.81
2.11
0.53
-1.03
-2.65
-4.37
-6.23
-8.35
-10.85
-13.87
-17.28
-20.74
-23.60
-25.22
-25.13
-23.29
-20.02
-15.96
-11.74
-7.83
-4.44
-1.56
0.92
3.06
4.89
6.38
7.59
8.61
9.58
10.57
11.55
12.38
12.88
13.05
13.00
12.99
13.25
13.81
14.51
15.02
15.06
14.50
13.40
12.01
10.57
9.23
8.02
6.87
5.67
4.37
2.98
1.51
-0.04
-1.73
-3.68
-5.95
-8.48
-11.01
-13.14
-14.45
-14.66
-13.74
-11.87
-9.35
-6.40
-3.10
0.58
4.62
8.87
13.02
16.70
19.64
21.75
23.20
24.21
25.00
25.74
26.47
27.17
27.79
28.23
28.35
28.03
27.21
25.98
24.54
23.13
21.92
20.93
19.98
18.80
17.13
14.85
11.98
8.62
4.82
0.59
-4.14
-9.35
-14.89
-20.47
-25.74
-30.37
-34.15
-36.96
-38.68
-39.23
-38.53
-36.60
-33.64
-30.01
-26.11
-22.29
-18.74
-15.48
-12.44
-9.52
-6.76
-4.29
-2.29
-0.93
-0.16
0.25
0.69
1.46
2.68
4.17
5.55
6.49
6.87
6.78
6.44
6.01
5.52
4.85
3.91
2.68
1.26
-0.27
-1.91
-3.75
-5.91
-8.41
-11.14
-13.92
-16.64
-19.27
-21.93
-24.81
-27.96
-31.27
-34.38
-36.79
-37.98
-37.59
-35.57
-32.24
-28.14
-23.80
-19.57
-15.44
-11.24
-6.80
-2.08
2.69
7.18
11.05
14.08
16.18
17.44
18.02
18.17
18.13
18.16
18.36
18.71
19.11
19.41
19.55
19.53
19.36
19.02
18.43
17.51
16.26
14.72
13.02
11.23
9.34
7.32
5.09
2.68
0.12
-2.51
-5.20
-7.98
-10.98
-14.30
-18.02
-22.04
-26.06
-29.62
-32.20
-33.41
-33.14
-31.57
-29.11
-26.16
-22.95
-19.53
-15.81
-11.72
-7.37
-2.99
1.12
4.75
7.86
10.52
12.86
14.99
16.88
18.51
19.83
20.82
21.54
22.10
22.61
23.16
23.77
24.37
24.81
24.92
24.65
24.05
23.28
22.51
21.80
21.07
20.11
18.73
16.85
14.56
12.07
9.64
7.43
5.48
3.68
1.88
-0.09
-2.41
-5.19
-8.54
-12.42
-16.61
-20.68
-24.01
-26.02
-26.32
-24.89
-22.08
-18.43
-14.42
-10.34
-6.26
-2.18
1.82
5.45
8.41
10.46
11.61
12.13
12.42
12.77
13.33
13.98
14.48
14.61
14.25
13.47
12.45
11.44
10.66
10.19
9.97
9.79
9.37
8.48
7.00
5.05
2.88
0.87
-0.70
-1.73
-2.34
-2.83
-3.56
-4.80
-6.66
-9.04
-11.72
-14.48
-17.20
-19.85
-22.50
-25.16
-27.69
-29.85
-31.30
-31.79
-31.26
-29.84
-27.79
-25.33
-22.56
-19.40
-15.77
-11.68
-7.30
-2.94
1.02
4.30
6.75
8.36
9.27
9.70
9.93
10.21
10.67
11.28
11.95
12.59
13.24
14.01
14.97
16.06
17.05
17.62
17.62
17.09
16.30
15.55
14.98
14.51
13.97
13.30
12.56
11.98
11.75
11.91
12.32
12.74
12.98
12.89
12.40
11.44
10.01
8.13
6.00
3.95
2.36
1.62
1.91
3.23
5.41
8.19
11.33
14.62
17.88
20.93
23.56
25.59
26.88
27.42
27.33
26.74
25.78
24.45
22.63
20.16
16.92
12.95
8.44
3.66
-1.12
-5.64
-9.60
-12.63
-14.25
-13.97
-11.56
-7.12
-1.24
5.16
11.09
15.75
18.66
19.74
19.12
17.10
13.97
10.05
5.69
1.23
-3.03
-6.88
-10.26
-13.27
-16.15
-19.16
-22.54
-26.43
-30.83
-35.54
-40.22
-44.38
-47.49
-49.08
-48.94
-47.10
-43.82
-39.53
-34.62
-29.44
-24.23
-19.14
-14.26
-9.67
-5.47
-1.77
1.35
3.79
5.57
6.79
7.63
8.25
8.75
9.15
9.44
9.65
9.96
10.59
11.70
13.30
15.21
17.20
19.04
20.65
21.97
22.99
23.62
23.69
23.00
21.38
18.75
15.09
10.56
5.41
0.08
-4.99
-9.45
-13.24
-16.63
-20.11
-24.22
-29.33
-35.53
-42.59
-50.02
-57.18
-63.35
-67.85
-70.14
-70.05
-67.74
-63.71
-58.59
-52.94
-47.11
-41.24
-35.34
-29.37
-23.32
-17.11
-10.69
-3.93
3.19
10.53
17.78
24.55
30.49
35.43
39.45
42.73
45.54
47.98
50.01
51.42
52.01
51.77
50.85
49.59
48.32
47.25
46.33
45.32
43.86
41.59
38.21
33.56
27.63
20.59
12.78
4.72
-3.01
-9.90
-15.57
-19.87
-22.79
-24.48
-25.14
-25.06
-24.58
-24.05
-23.80
-24.05
-24.88
-26.16
-27.60
-28.79
-29.39
-29.21
-28.31
-26.92
-25.36
-23.85
-22.39
-20.80
-18.74
-15.98
-12.42
-8.21
-3.60
1.20
6.02
10.79
15.43
19.87
23.93
27.40
30.14
32.10
33.42
34.33
35.14
36.04
37.11
38.28
39.32
39.97
40.00
39.34
38.11
36.67
35.49
35.07
35.73
37.42
39.63
41.42
41.67
39.40
34.09
25.72
14.74
1.78
-12.50
-27.59
-42.95
-57.93
-71.72
-83.47
-92.52
-98.55
-101.68
-102.23
-100.57
-96.90
-91.31
-83.90
-74.99
-65.19
-55.24
-45.78
-37.01
-28.68
-20.17
-10.86
-0.38
11.14
23.14
34.84
45.41
54.19
60.74
64.84
66.49
65.93
63.62
60.17
56.25
52.44
49.12
46.47
44.46
42.83
41.19
39.06
36.03
31.88
26.67
20.76
14.67
8.95
4.06
0.30
-2.25
-3.67
-4.20
-4.17
-3.88
-3.57
-3.37
-3.36
-3.70
-4.58
-6.23
-8.74
-11.94
-15.35
-18.37
-20.46
-21.42
-21.42
-20.90
-20.26
-19.66
-18.91
-17.62
-15.45
-12.35
-8.53
-4.43
-0.46
3.14
6.29
8.99
11.25
12.99
14.12
14.69
14.90
15.04
15.41
16.16
17.27
18.54
19.68
20.41
20.57
20.12
19.17
17.90
16.47
14.98
13.40
11.62
9.59
7.27
4.72
2.01
-0.82
-3.78
-6.90
-10.16
-13.48
-16.75
-19.84
-22.68
-25.16
-27.09
-28.24
-28.30
-27.17
-24.94
-21.98
-18.74
-15.62
-12.78
-10.12
-7.46
-4.71
-1.92
0.68
2.85
4.44
5.50
6.21
6.79
7.40
8.08
8.81
9.58
10.38
11.20
12.02
12.73
13.15
13.15
12.64
11.68
10.45
9.19
8.07
7.15
6.35
5.49
4.43
3.11
1.62
0.08
-1.37
-2.76
-4.29
-6.23
-8.81
-12.08
-15.83
-19.63
-23.02
-25.57
-27.03
-27.38
-26.76
-25.40
-23.56
-21.42
-19.07
-16.59
-13.96
-11.24
-8.52
-5.92
-3.57
-1.48
0.42
2.30
4.38
6.83
9.70
12.94
16.37
19.80
23.02
25.84
28.12
29.72
30.55
30.56
29.78
28.34
26.38
24.05
21.43
18.56
15.46
12.20
8.88
5.60
2.46
-0.53
-3.32
-5.81
-7.84
-9.30
-10.20
-10.82
-11.60
-12.97
-15.20
-18.25
-21.85
-25.54
-28.75
-30.74
-30.66
-27.82
-22.08
-14.12
-5.37
2.45
8.01
10.86
11.33
10.08
7.63
4.22
0.12
-4.00
-7.06
-7.97
-6.36
-3.01
0.35
1.69
-0.49
-6.61
-16.01
-27.26
-38.58
-48.15
-54.28
-55.65
-51.61
-42.38
-29.14
-13.74
1.73
15.40
25.92
32.57
35.29
34.77
32.32
29.85
29.37
32.39
39.23
48.70
58.37
65.33
67.34
63.65
55.24
44.27
33.09
23.36
15.67
9.72
4.97
1.14
-1.64
-3.15
-3.48
-3.26
-3.47
-5.03
-8.25
-12.66
-17.19
-20.67
-22.31
-22.00
-20.27
-17.94
-15.75
-14.12
-13.02
-12.00
-10.35
-7.29
-2.17
5.38
15.17
26.48
38.08
48.51
56.33
60.51
60.62
56.78
49.55
39.74
28.25
16.08
4.34
-5.80
-13.32
-17.55
-18.44
-16.63
-13.14
-9.12
-5.45
-2.58
-0.64
0.34
0.34
-0.66
-2.61
-5.21
-8.00
-10.47
-12.25
-13.15
-13.25
-12.69
-11.66
-10.30
-8.75
-7.12
-5.49
-3.81
-1.96
0.22
2.84
5.80
8.74
11.22
12.85
13.50
13.41
12.97
12.58
12.36
12.15
11.64
10.68
9.32
7.86
6.70
6.05
5.93
6.08
6.19
6.01
5.47
4.71
4.05
3.91
4.70
6.67
9.74
13.42
16.85
18.99
18.93
16.23
11.04
4.08
-3.61
-11.01
-17.30
-22.05
-25.10
-26.49
-26.29
-24.59
-21.52
-17.33
-12.49
-7.63
-3.45
-0.53
0.81
0.63
-0.69
-2.61
-4.59
-6.28
-7.54
-8.39
-8.88
-8.96
-8.51
-7.34
-5.34
-2.54
0.83
4.40
7.76
10.58
12.72
14.17
14.97
15.17
14.71
13.47
11.40
8.50
4.93
0.96
-3.14
-7.17
-11.01
-14.64
-18.09
-21.35
-24.37
-27.12
-29.60
-31.93
-34.26
-36.68
-39.18
-41.53
-43.39
-44.41
-44.43
-43.48
-41.74
-39.49
-36.98
-34.49
-32.35
-30.92
-30.47
-31.02
-32.10
-32.96
-32.72
-30.83
-27.29
-22.65
-17.79
-13.59
-10.66
-9.18
-9.03
-9.82
-11.04
-12.15
-12.72
-12.46
-11.40
-9.75
-7.86
-5.97
-4.19
-2.47
-0.75
0.93
2.42
3.53
4.19
4.48
4.61
4.84
5.29
5.96
6.70
7.29
7.54
7.35
6.76
5.97
5.26
4.95
5.28
6.36
8.13
10.45
13.11
16.01
19.05
22.15
25.24
28.27
31.21
34.19
37.41
41.18
45.77
51.42
58.25
66.33
75.59
85.73
95.92
104.81
110.62
111.56
106.50
95.32
79.04
59.46
38.51
17.69
-2.23
-20.98
-38.43
-54.19
-67.53
-77.69
-84.29
-87.61
-88.53
-88.15
-87.28
-86.16
-84.46
-81.67
-77.50
-72.18
-66.42
-61.16
-57.16
-54.71
-53.61
-53.28
-53.00
-52.14
-50.36
-47.55
-43.86
-39.54
-34.85
-30.02
-25.19
-20.48
-16.06
-12.19
-9.20
-7.31
-6.53
-6.56
-6.78
-6.56
-5.46
-3.51
-1.10
1.19
2.91
3.94
4.55
5.11
5.90
6.97
8.11
8.99
9.35
9.04
8.06
6.53
4.61
2.55
0.59
-1.11
-2.54
-3.85
-5.34
-7.28
-9.82
-12.85
-16.11
-19.22
-21.96
-24.38
-26.83
-29.89
-34.13
-39.89
-47.15
-55.48
-64.23
-72.81
-80.93
-88.74
-96.64
-105.07
-114.19
-123.75
-133.19
-141.88
-149.45
-156.01
-162.13
-168.68
-176.52
-186.03
-196.77
-207.21
-214.89
-217.02
-211.36
-197.10
-175.26
-148.44
-119.90
-92.40
-67.48
-45.11
-24.14
-2.97
19.67
44.10
69.31
93.09
112.50
124.67
127.80
121.69
107.83
88.80
67.40
45.75
24.95
5.16
-14.13
-33.56
-53.64
-74.53
-95.78
-116.33
-134.51
-148.51
-156.83
-158.82
-154.88
-146.27
-134.73
-121.92
-109.03
-96.56
-84.24
-71.12
-55.58
-35.61
-9.35
24.15
64.10
107.74
150.80
188.67
217.84
236.96
246.95
250.33
249.98
248.09
245.73
243.06
239.86
236.11
232.12
228.34
225.11
222.35
219.60
216.17
211.43
205.09
197.29
188.55
179.50
170.58
161.92
153.36
144.62
135.51
126.02
116.23
106.16
95.70
84.67
72.97
60.78
48.63
37.27
27.43
19.59
13.92
10.24
8.26
7.65
8.11
9.41
11.34
13.68
16.23
18.84
21.44
23.94
26.29
28.39
30.12
31.41
32.22
32.59
32.59
32.24
31.49
30.23
28.36
25.95
23.21
20.49
18.13
16.37
15.17
14.24
13.21
11.72
9.62
6.97
3.99
0.94
-2.02
-4.81
-7.49
-10.18
-13.03
-16.22
-19.88
-24.02
-28.49
-32.93
-36.81
-39.57
-40.79
-40.34
-38.42
-35.43
-31.83
-27.95
-23.91
-19.69
-15.28
-10.78
-6.52
-2.83
0.03
2.07
3.57
4.91
6.39
8.07
9.81
11.40
12.70
13.70
14.52
15.32
16.17
17.03
17.79
18.28
18.35
17.91
16.99
15.69
14.19
12.63
11.06
9.42
7.62
5.64
3.62
1.75
0.18
-1.13
-2.45
-4.19
-6.66
-9.95
-13.88
-18.03
-21.88
-24.98
-26.97
-27.65
-27.03
-25.28
-22.69
-19.64
-16.46
-13.33
-10.30
-7.34
-4.43
-1.60
1.04
3.32
5.10
6.34
7.15
7.71
8.23
8.84
9.53
10.17
10.55
10.60
10.36
10.00
9.70
9.55
9.49
9.34
8.94
8.20
7.16
5.92
4.60
3.25
1.87
0.44
-1.08
-2.74
-4.58
-6.70
-9.16
-11.96
-15.00
-18.03
-20.74
-22.80
-23.96
-24.10
-23.21
-21.40
-18.85
-15.76
-12.37
-8.86
-5.36
-1.94
1.37
4.51
7.37
9.81
11.71
13.04
13.87
14.35
14.65
14.83
14.92
14.85
14.56
14.03
13.21
12.09
10.65
8.97
7.17
5.46
3.96
2.64
1.32
-0.27
-2.34
-4.88
-7.70
-10.50
-13.05
-15.33
-17.48
-19.77
-22.42
-25.56
-29.28
-33.51
-38.04
-42.39
-45.86
-47.63
-47.07
-44.03
-38.91
-32.60
-26.15
-20.50
-16.22
-13.47
-12.09
-11.62
-11.48
-11.03
-9.76
-7.37
-3.96
0.09
4.19
7.74
10.29
11.64
11.86
11.21
10.10
8.98
8.21
8.06
8.57
9.62
11.00
12.46
13.87
15.25
16.79
18.73
21.29
24.48
28.05
31.56
34.50
36.49
37.45
37.58
37.22
36.69
36.10
35.36
34.13
32.10
29.08
25.08
20.34
15.24
10.19
5.54
1.54
-1.59
-3.78
-5.02
-5.47
-5.46
-5.41
-5.71
-6.52
-7.73
-8.96
-9.83
-10.09
-9.68
-8.69
-7.30
-5.62
-3.66
-1.52
0.68
2.64
4.07
4.66
4.25
2.81
0.47
-2.52
-5.81
-9.05
-11.92
-14.20
-15.86
-16.98
-17.75
-18.39
-19.15
-20.22
-21.73
-23.73
-26.17
-28.89
-31.71
-34.49
-37.17
-39.77
-42.36
-44.96
-47.54
-50.03
-52.32
-54.32
-55.97
-57.21
-57.98
-58.19
-57.75
-56.57
-54.62
-51.91
-48.59
-44.85
-40.87
-36.71
-32.30
-27.51
-22.24
-16.56
-10.76
-5.27
-0.52
3.23
5.89
7.54
8.35
8.50
8.21
7.70
7.25
7.12
7.45
8.22
9.21
10.09
10.50
10.19
9.11
7.43
5.51
3.74
2.41
1.60
1.12
0.71
0.05
-1.01
-2.54
-4.49
-6.80
-9.35
-12.02
-14.60
-16.81
-18.31
-18.89
-18.47
-17.24
-15.51
-13.62
-11.83
-10.10
-8.22
-5.84
-2.68
1.21
5.49
9.61
13.12
15.83
17.89
19.66
21.47
23.46
25.56
27.62
29.58
31.49
33.46
35.53
37.57
39.30
40.42
40.69
39.99
38.32
35.71
32.25
28.06
23.30
18.19
12.98
7.90
3.11
-1.34
-5.46
-9.34
-13.03
-16.54
-19.86
-22.96
-25.84
-28.52
-30.95
-32.99
-34.39
-34.86
-34.25
-32.54
-29.94
-26.74
-23.23
-19.63
-16.09
-12.76
-9.82
-7.43
-5.73
-4.70
-4.23
-4.14
-4.23
-4.37
-4.46
-4.44
-4.23
-3.81
-3.16
-2.27
-1.19
0.07
1.48
2.98
4.48
5.88
7.08
7.99
8.55
8.73
8.57
8.13
7.49
6.67
5.73
4.67
3.56
2.47
1.44
0.44
-0.69
-2.20
-4.31
-7.13
-10.57
-14.38
-18.19
-21.67
-24.56
-26.68
-27.97
-28.38
-28.01
-26.98
-25.40
-23.29
-20.62
-17.36
-13.57
-9.52
-5.64
-2.32
0.21
2.04
3.44
4.75
6.17
7.66
9.03
10.10
10.85
11.39
11.92
12.52
13.19
13.78
14.15
14.20
13.92
13.37
12.62
11.73
10.69
9.48
8.06
6.45
4.78
3.20
1.90
0.98
0.43
0.11
-0.23
-0.85
-1.97
-3.72
-6.16
-9.20
-12.59
-15.91
-18.68
-20.44
-20.95
-20.22
-18.49
-16.12
-13.42
-10.54
-7.51
-4.29
-0.97
2.28
5.15
7.42
9.01
10.08
10.92
11.84
12.98
14.23
15.33
16.01
16.19
15.97
15.61
15.31
15.12
14.92
14.53
13.80
12.67
11.22
9.57
7.89
6.27
4.75
3.26
1.66
-0.27
-2.69
-5.67
-9.12
-12.87
-16.69
-20.47
-24.16
-27.89
-31.86
-36.34
-41.51
-47.34
-53.50
-59.37
-64.21
-67.46
-69.10
-69.63
-69.95
-70.89
-72.87
-75.61
-78.22
-79.42
-77.84
-72.32
-62.04
-46.78
-26.94
-3.70
21.19
45.57
67.36
84.90
97.26
104.30
106.54
105.03
101.07
95.95
90.77
86.23
82.54
79.46
76.52
73.23
69.31
64.79
59.96
55.28
51.21
48.03
45.75
44.08
42.46
40.23
36.82
31.97
25.92
19.32
12.99
7.69
3.75
1.01
-0.98
-2.71
-4.46
-6.16
-7.42
-7.80
-6.92
-4.63
-1.06
3.41
8.25
12.79
16.40
18.56
18.97
17.58
14.62
10.56
6.03
1.77
-1.55
-3.42
-3.57
-2.00
1.00
5.03
9.66
14.53
19.41
24.18
28.72
32.94
36.79
40.24
43.41
46.46
49.51
52.46
54.95
56.36
55.96
53.20
47.97
40.58
31.71
22.14
12.50
3.19
-5.56
-13.66
-20.99
-27.47
-33.11
-37.93
-42.05
-45.51
-48.29
-50.27
-51.33
-51.38
-50.43
-48.55
-45.88
-42.56
-38.77
-34.83
-31.10
-27.99
-25.71
-24.28
-23.49
-23.01
-22.55
-21.88
-20.91
-19.61
-18.02
-16.23
-14.39
-12.71
-11.36
-10.41
-9.78
-9.31
-8.85
-8.36
-7.92
-7.66
-7.65
-7.86
-8.10
-8.17
-7.92
-7.37
-6.67
-6.09
-5.96
-6.54
-8.02
-10.41
-13.53
-17.07
-20.55
-23.46
-25.36
-25.97
-25.26
-23.44
-20.90
-18.09
-15.37
-12.90
-10.67
-8.61
-6.64
-4.84
-3.37
-2.40
-1.99
-1.99
-2.10
-2.00
-1.44
-0.41
1.00
2.59
4.22
5.82
7.41
8.95
10.31
11.29
11.72
11.54
10.84
9.83
8.75
7.70
6.68
5.65
4.53
3.35
2.22
1.26
0.56
0.14
-0.15
-0.57
-1.40
-2.85
-4.91
-7.34
-9.76
-11.79
-13.19
-13.90
-14.03
-13.69
-12.89
-11.62
-9.88
-7.81
-5.67
-3.74
-2.21
-1.14
-0.41
0.12
0.58
1.00
1.42
1.86
2.41
3.15
4.16
5.41
6.72
7.85
8.51
8.52
7.85
6.69
5.32
4.02
2.95
2.06
1.16
-0.00
-1.61
-3.72
-6.17
-8.74
-11.18
-13.30
-14.98
-16.21
-17.03
-17.53
-17.83
-18.12
-18.55
-19.17
-19.91
-20.52
-20.70
-20.21
-19.03
-17.32
-15.39
-13.56
-11.93
-10.43
-8.87
-7.06
-5.00
-2.86
-0.95
0.43
1.12
1.13
0.61
-0.19
-1.07
-1.84
-2.42
-2.74
-2.78
-2.56
-2.11
-1.53
-0.95
-0.49
-0.23
-0.15
-0.17
-0.20
-0.18
-0.12
-0.17
-0.54
-1.41
-2.87
-4.88
-7.26
-9.75
-12.09
-14.08
-15.60
-16.59
-17.00
-16.76
-15.80
-14.11
-11.79
-9.05
-6.23
-3.65
-1.56
-0.07
0.90
1.51
1.98
2.53
3.27
4.21
5.30
6.38
7.30
7.93
8.18
8.08
7.73
7.25
6.75
6.27
5.81
5.32
4.74
4.00
3.08
1.98
0.76
-0.49
-1.67
-2.77
-3.86
-5.09
-6.61
-8.49
-10.63
-12.86
-14.91
-16.58
-17.67
-18.07
-17.66
-16.43
-14.42
-11.90
-9.18
-6.61
-4.41
-2.62
-1.20
-0.05
0.83
1.48
1.97
2.44
3.02
3.79
4.63
5.34
5.70
5.65
5.32
4.96
4.73
4.59
4.31
3.62
2.44
0.88
-0.73
-2.09
-3.05
-3.70
-4.21
-4.79
-5.50
-6.29
-7.10
-7.95
-8.98
-10.37
-12.21
-14.38
-16.60
-18.50
-19.76
-20.27
-20.00
-19.02
-17.41
-15.23
-12.60
-9.76
-7.00
-4.62
-2.81
-1.53
-0.59
0.27
1.26
2.45
3.75
5.00
6.05
6.79
7.15
7.11
6.73
6.09
5.33
4.57
3.87
3.21
2.52
1.72
0.86
0.04
-0.56
-0.84
-0.82
-0.65
-0.54
-0.62
-0.90
-1.28
-1.66
-2.04
-2.53
-3.26
-4.23
-5.31
-6.19
-6.53
-6.17
-5.17
-3.72
-2.07
-0.33
1.55
3.69
6.18
8.99
11.94
14.81
17.42
19.68
21.59
23.22
24.69
26.07
27.39
28.63
29.62
30.22
30.27
29.71
28.55
26.86
24.69
22.09
19.15
16.01
12.91
10.10
7.75
5.86
4.35
3.09
1.95
0.87
-0.21
-1.44
-3.02
-5.14
-7.91
-11.29
-15.06
-18.92
-22.55
-25.71
-28.26
-30.14
-31.36
-31.87
-31.64
-30.61
-28.83
-26.50
-23.93
-21.50
-19.49
-17.99
-16.89
-16.00
-15.20
-14.53
-14.28
-14.78
-16.30
-18.86
-22.26
-26.07
-29.82
-33.14
-35.92
-38.30
-40.62
-43.31
-46.80
-51.39
-57.14
-63.80
-70.67
-76.73
-80.83
-82.07
-80.14
-75.44
-69.00
-61.98
-55.10
-48.17
-39.94
-28.28
-10.82
14.39
48.02
88.87
133.78
178.16
216.98
245.90
262.09
264.46
253.51
230.96
199.57
162.87
124.88
89.60
60.14
38.08
23.21
13.99
8.35
4.65
2.06
0.45
-0.15
-0.03
0.08
-0.73
-3.06
-6.81
-11.09
-14.61
-16.25
-15.54
-12.85
-9.08
-5.26
-2.02
0.41
2.11
3.13
3.33
2.47
0.55
-2.05
-4.52
-6.02
-6.05
-4.80
-3.14
-2.25
-3.12
-6.14
-10.99
-16.87
-22.78
-27.91
-31.67
-33.78
-34.16
-32.99
-30.73
-28.14
-26.05
-24.93
-24.66
-24.39
-22.90
-19.12
-12.61
-3.68
6.87
18.19
29.73
41.22
52.45
63.13
72.73
80.74
86.89
91.31
94.40
96.54
97.77
97.66
95.46
90.52
82.65
72.29
60.41
48.15
36.41
25.63
15.71
6.18
-3.51
-13.69
-24.32
-35.06
-45.46
-55.14
-63.92
-71.73
-78.48
-83.96
-87.83
-89.92
-90.40
-89.95
-89.44
-89.45
-89.87
-89.91
-88.47
-84.79
-78.93
-71.61
-63.83
-56.18
-48.57
-40.38
-30.86
-19.64
-6.86
6.88
20.72
33.73
45.00
53.66
59.08
61.03
59.81
56.21
51.28
45.94
40.83
36.21
32.02
28.13
24.32
20.22
15.37
9.30
1.80
-6.78
-15.46
-22.99
-28.46
-31.80
-33.88
-36.02
-39.16
-43.35
-47.63
-50.64
-51.47
-50.15
-47.83
-46.20
-46.85
-50.72
-57.85
-67.55
-78.60
-89.64
-99.36
-106.71
-111.07
-112.15
-109.96
-104.70
-96.71
-86.53
-74.92
-62.79
-51.01
-40.24
-30.85
-22.99
-16.85
-12.76
-11.07
-11.81
-14.27
-16.80
-17.19
-13.28
-3.88
10.76
28.96
48.22
66.07
80.79
91.72
99.12
103.64
106.02
106.76
106.27
104.89
103.02
101.06
99.32
97.91
96.84
96.14
95.95
96.61
98.49
101.80
106.30
111.17
115.07
116.41
113.78
106.27
93.92
77.71
59.50
41.56
26.05
14.47
7.25
3.72
2.33
1.24
-1.11
-5.57
-12.12
-20.03
-28.24
-35.71
-41.58
-45.30
-46.61
-45.58
-42.70
-38.84
-34.98
-31.73
-28.73
-24.41
-16.44
-2.57
18.24
45.12
75.22
104.43
128.48
143.96
149.03
143.54
128.75
106.64
79.45
49.07
16.97
-15.60
-47.26
-76.14
-100.01
-116.71
-124.87
-124.43
-116.66
-103.77
-88.18
-71.96
-56.60
-43.07
-32.00
-23.87
-18.82
-16.57
-16.35
-16.96
-17.20
-16.23
-13.85
-10.55
-7.22
-4.76
-3.68
-3.96
-5.11
-6.53
-7.78
-8.75
-9.68
-10.91
-12.75
-15.33
-18.63
-22.52
-26.78
-31.23
-35.72
-40.25
-44.88
-49.72
-54.85
-60.23
-65.70
-71.01
-75.99
-80.56
-84.74
-88.59
-92.17
-95.44
-98.14
-99.78
-99.62
-96.97
-91.47
-83.42
-73.85
-64.22
-55.86
-49.38
-44.41
-39.86
-34.44
-27.38
-18.81
-9.74
-1.73
3.71
5.54
3.56
-1.34
-7.05
-10.51
-8.29
2.26
21.82
48.42
77.75
104.66
124.98
137.10
142.21
143.34
143.54
144.34
145.17
143.96
138.42
127.24
110.60
89.92
67.18
44.25
22.44
2.64
-14.49
-28.18
-37.48
-41.46
-39.72
-32.73
-22.07
-9.95
1.33
10.13
15.78
18.46
18.96
18.22
17.21
16.74
17.33
19.02
21.31
23.27
23.98
23.00
20.65
17.72
14.97
12.60
10.20
7.04
2.74
-2.42
-7.59
-11.73
-14.21
-14.97
-14.50
-13.55
-12.79
-12.67
-13.25
-14.33
-15.44
-16.03
-15.56
-13.68
-10.33
-5.72
-0.38
4.98
9.46
12.09
11.98
8.55
1.81
-7.48
-17.93
-27.88
-35.93
-41.45
-44.72
-46.85
-49.31
-53.36
-59.58
-67.61
-76.24
-83.81
-88.88
-90.75
-89.80
-87.38
-85.28
-84.99
-87.06
-90.98
-95.43
-99.06
-101.21
-102.17
-102.90
-104.47
-107.50
-111.97
-117.09
-121.36
-122.30
-116.42
-99.85
-69.67
-25.69
28.42
85.62
137.63
177.83
203.49
216.10
219.86
219.25
217.16
214.46
210.90
206.35
201.48
197.45
195.17
194.62
194.79
194.21
191.57
186.01
177.17
165.07
150.04
132.70
114.04
95.09
76.70
59.12
42.05
24.90
7.28
-10.63
-28.04
-43.93
-57.54
-68.65
-77.58
-84.80
-90.58
-94.78
-97.01
-96.99
-94.82
-91.18
-87.04
-83.29
-80.39
-78.15
-75.95
-73.06
-69.05
-63.99
-58.38
-52.96
-48.40
-45.13
-43.27
-42.72
-43.16
-44.25
-45.72
-47.42
-49.40
-51.82
-54.84
-58.56
-62.86
-67.50
-72.15
-76.48
-80.25
-83.27
-85.39
-86.53
-86.69
-85.98
-84.72
-83.30
-82.17
-81.65
-81.85
-82.56
-83.46
-84.17
-84.43
-84.10
-83.12
-81.43
-78.94
-75.63
-71.66
-67.28
-62.85
-58.63
-54.72
-51.09
-47.60
-44.02
-40.07
-35.39
-29.53
-22.19
-13.32
-3.14
8.05
20.07
33.04
47.11
62.09
77.12
90.65
100.89
106.49
107.03
103.21
96.53
88.67
80.98
74.17
68.39
63.45
59.16
55.38
51.94
48.48
44.52
39.70
34.12
28.63
24.63
23.54
26.15
32.11
40.08
48.22
54.98
59.56
61.93
62.57
62.01
60.58
58.46
55.81
52.93
50.20
47.94
46.25
44.96
43.70
42.11
39.98
37.33
34.37
31.41
28.69
26.29
24.14
22.05
19.90
17.67
15.44
13.34
11.42
9.61
7.73
5.56
2.93
-0.23
-3.84
-7.68
-11.46
-14.90
-17.79
-20.07
-21.82
-23.31
-24.79
-26.41
-28.18
-29.98
-31.63
-32.97
-33.91
-34.38
-34.28
-33.55
-32.17
-30.27
-28.02
-25.67
-23.43
-21.43
-19.73
-18.39
-17.46
-16.99
-17.00
-17.47
-18.34
-19.52
-20.88
-22.07
-22.52
-21.55
-18.53
-13.19
-5.85
2.67
11.26
18.87
24.81
28.87
31.17
32.10
32.05
31.38
30.36
29.23
28.21
27.42
26.87
26.47
26.01
25.21
23.85
21.85
19.37
16.74
14.28
12.13
10.15
7.99
5.33
2.15
-1.18
-3.96
-5.45
-5.20
-3.16
0.28
4.60
9.30
14.11
18.91
23.68
28.30
32.62
36.45
39.70
42.40
44.66
46.66
48.49
50.32
52.31
54.63
57.40
60.47
63.35
65.26
65.32
62.90
57.96
51.09
43.48
36.56
31.60
29.27
29.43
31.04
32.39
31.55
26.85
17.33
3.04
-15.12
-35.59
-56.65
-76.75
-94.76
-110.11
-122.64
-132.28
-138.74
-141.32
-139.01
-130.87
-116.57
-96.74
-73.01
-47.63
-22.94
-0.79
17.66
31.98
42.23
48.77
52.20
53.24
52.73
51.49
50.16
49.13
48.42
47.83
47.05
45.81
44.03
41.83
39.46
37.17
35.08
33.09
30.87
28.03
24.23
19.37
13.61
7.39
1.27
-4.18
-8.56
-11.73
-13.89
-15.48
-17.09
-19.22
-22.11
-25.68
-29.58
-33.34
-36.57
-39.06
-40.80
-41.88
-42.37
-42.24
-41.48
-40.12
-38.37
-36.62
-35.36
-35.07
-36.06
-38.26
-41.29
-44.55
-47.49
-49.83
-51.75
-53.78
-56.70
-61.08
-66.98
-73.78
-80.39
-85.83
-89.71
-92.54
-95.75
-101.19
-110.32
-123.42
-139.27
-155.42
-169.31
-178.70
-181.98
-178.32
-167.67
-150.71
-128.60
-102.79
-74.34
-43.42
-8.38
33.60
84.11
140.67
195.94
239.61
262.09
258.60
230.57
185.84
135.73
90.64
56.50
34.29
22.13
17.08
16.53
17.20
16.42
12.67
5.84
-3.06
-11.74
-16.68
-14.24
2.35
32.92
69.69
102.32
125.58
139.19
143.46
139.57
127.60
110.17
90.00
69.79
51.79
37.12
25.25
14.88
5.21
-3.95
-12.29
-20.36
-28.52
-36.46
-43.34
-48.84
-53.33
-57.39
-61.60
-66.18
-71.46
-77.37
-83.31
-88.76
-93.89
-99.52
-106.41
-114.79
-124.01
-133.11
-141.03
-147.07
-151.63
-156.27
-162.82
-172.05
-182.52
-190.47
-190.96
-179.28
-152.23
-108.78
-50.19
20.02
96.03
169.73
231.62
272.75
287.67
276.78
246.63
207.72
170.57
142.05
123.75
112.97
105.47
98.06
89.89
81.94
75.58
71.29
68.24
64.93
60.04
53.31
45.71
39.04
35.08
35.09
39.57
48.70
62.76
82.31
107.52
137.25
168.21
195.28
213.08
218.14
210.58
194.27
175.22
158.95
148.38
143.20
140.97
138.95
135.39
129.79
122.06
111.74
97.86
79.72
57.81
34.18
11.85
-6.52
-19.76
-28.43
-34.31
-39.26
-44.33
-49.61
-54.54
-58.59
-61.56
-63.61
-65.03
-66.15
-67.15
-68.16
-69.31
-70.69
-72.31
-74.06
-75.75
-77.22
-78.39
-79.30
-80.06
-80.72
-81.29
-81.65
-81.71
-81.41
-80.84
-80.15
-79.54
-79.17
-79.16
-79.62
-80.67
-82.43
-84.92
-87.93
-90.94
-93.24
-94.11
-93.10
-90.17
-85.67
-80.18
-74.25
-68.21
-62.17
-56.11
-50.05
-44.13
-38.60
-33.69
-29.49
-25.94
-22.88
-20.24
-18.05
-16.52
-15.86
-16.22
-17.50
-19.41
-21.49
-23.32
-24.61
-25.29
-25.49
-25.40
-25.17
-24.76
-24.04
-22.86
-21.22
-19.43
-17.99
-17.46
-18.23
-20.34
-23.53
-27.31
-31.09
-34.26
-36.24
-36.56
-34.93
-31.51
-26.90
-22.10
-18.15
-15.76
-15.09
-15.77
-17.13
-18.51
-19.44
-19.70
-19.13
-17.55
-14.79
-10.74
-5.51
0.51
6.78
12.79
18.16
22.70
26.36
29.16
31.11
32.23
32.57
32.25
31.47
30.44
29.37
28.40
27.60
27.08
26.99
27.53
28.90
31.15
34.11
37.43
40.61
43.22
44.95
45.64
45.24
43.76
41.24
37.85
33.88
29.75
25.92
22.67
20.10
18.02
16.14
14.16
11.91
9.38
6.65
3.77
0.77
-2.43
-5.91
-9.75
-13.89
-18.18
-22.39
-26.26
-29.56
-32.15
-34.01
-35.23
-36.02
-36.70
-37.55
-38.71
-40.16
-41.67
-43.02
-44.09
-45.02
-46.21
-48.24
-51.62
-56.59
-62.83
-69.34
-74.48
-76.29
-73.02
-63.71
-48.66
-29.52
-8.90
10.25
25.40
34.97
38.54
36.75
30.98
22.95
14.40
6.68
0.61
-3.54
-6.00
-7.22
-7.71
-7.89
-8.08
-8.57
-9.61
-11.25
-13.27
-15.09
-15.95
-15.21
-12.65
-8.56
-3.59
1.61
6.69
11.67
16.71
21.81
26.68
30.83
33.89
35.90
37.42
39.17
41.66
44.92
48.46
51.54
53.59
54.39
54.15
53.30
52.29
51.43
50.90
50.70
50.65
50.36
49.28
46.83
42.60
36.56
29.01
20.58
11.89
3.52
-4.18
-10.95
-16.69
-21.37
-25.14
-28.29
-31.23
-34.31
-37.72
-41.34
-44.86
-47.89
-50.10
-51.40
-51.82
-51.45
-50.28
-48.14
-44.74
-39.88
-33.54
-26.05
-17.95
-9.87
-2.35
4.26
9.77
14.12
17.31
19.40
20.52
20.91
20.87
20.76
20.88
21.41
22.37
23.65
24.94
25.88
26.14
25.54
24.07
21.95
19.43
16.76
14.07
11.45
8.94
6.56
4.34
2.24
0.18
-1.93
-4.14
-6.49
-9.02
-11.77
-14.79
-18.05
-21.36
-24.40
-26.82
-28.40
-29.16
-29.28
-28.99
-28.44
-27.61
-26.41
-24.74
-22.60
-20.05
-17.19
-14.09
-10.82
-7.48
-4.20
-1.20
1.32
3.21
4.39
4.87
4.72
4.06
3.08
1.97
0.88
-0.10
-1.06
-2.23
-3.90
-6.32
-9.64
-13.88
-18.92
-24.56
-30.54
-36.55
-42.23
-47.36
-51.82
-55.73
-59.39
-63.13
-67.22
-71.76
-76.62
-81.52
-86.07
-89.87
-92.59
-94.07
-94.28
-93.35
-91.50
-88.85
-85.38
-80.85
-74.96
-67.56
-58.77
-49.01
-38.79
-28.48
-18.14
-7.53
3.57
15.19
26.92
38.06
47.87
55.86
61.95
66.37
69.43
71.35
72.45
73.30
74.81
78.02
83.52
90.98
99.03
105.74
109.39
109.24
105.70
100.02
93.54
87.15
81.22
75.86
71.25
67.64
65.16
63.38
61.36
57.98
52.53
45.14
36.76
28.71
22.11
17.51
14.84
13.62
13.25
13.06
12.42
10.70
7.52
2.88
-2.59
-7.93
-12.03
-14.11
-13.95
-11.95
-8.89
-5.59
-2.67
-0.38
1.33
2.71
3.96
5.16
6.16
6.68
6.36
5.04
2.75
-0.24
-3.49
-6.56
-9.05
-10.79
-11.74
-12.05
-12.05
-12.40
-14.16
-18.49
-26.11
-36.71
-48.77
-59.87
-67.63
-70.45
-68.28
-62.50
-55.07
-47.58
-40.72
-34.43
-28.36
-22.44
-16.67
-11.34
-6.83
-3.40
-0.98
0.62
1.45
1.33
-0.07
-2.05
-3.61
-3.79
-1.91
2.47
9.38
18.24
27.99
37.35
46.52
55.80
64.98
73.38
80.60
86.75
92.21
97.40
102.10
107.00
112.22
116.91
119.87
120.97
121.22
122.17
125.45
120.61
101.43
69.09
31.05
-5.00
-34.46
-56.27
-71.37
-81.13
-87.47
-90.97
-90.35
-85.39
-76.26
-62.54
-43.99
-21.24
4.38
29.64
51.03
66.34
75.15
74.10
64.10
48.47
26.79
2.24
-17.17
-30.78
-41.28
-49.96
-57.57
-63.74
-68.17
-71.06
-72.29
-72.38
-72.27
-71.61
-69.54
-65.71
-59.87
-52.49
-44.61
-36.95
-30.54
-26.65
-25.18
-25.20
-25.76
-25.82
-24.95
-23.41
-21.61
-20.42
-21.03
-23.70
-27.92
-32.89
-37.67
-41.61
-44.58
-46.76
-48.87
-52.12
-57.52
-65.67
-76.60
-89.37
-101.94
-111.49
-114.82
-109.45
-94.41
-70.48
-40.12
-6.88
25.47
53.67
75.52
90.03
97.31
98.34
94.65
88.03
80.31
73.10
67.69
64.90
64.95
67.46
71.59
76.34
80.84
84.61
87.63
90.14
92.40
94.36
95.59
95.39
93.20
88.89
83.05
76.84
71.60
68.33
67.27
67.87
69.05
69.63
68.73
65.92
61.11
54.39
45.94
36.08
25.38
14.66
4.82
-3.42
-9.72
-14.32
-17.93
-21.78
-27.38
-36.25
-49.29
-66.26
-85.46
-103.94
-118.31
-125.86
-125.42
-117.72
-104.97
-90.07
-75.77
-64.16
-56.45
-52.85
-52.59
-54.01
-54.90
-53.13
-47.32
-37.30
-23.98
-8.84
6.80
22.16
36.92
50.78
62.97
72.14
76.74
75.70
69.08
58.37
46.18
35.44
28.56
26.71
29.63
35.90
43.54
50.64
55.83
58.43
58.46
56.42
53.02
48.88
44.18
38.54
31.17
21.37
9.07
-4.75
-18.16
-28.92
-35.35
-37.17
-35.87
-34.54
-37.29
-47.97
-68.78
-98.93
-133.96
-166.22
-186.91
-189.16
-170.96
-136.49
-94.99
-57.61
-33.44
-26.55
-35.24
-53.58
-74.29
-91.63
-102.84
-108.17
-109.89
-110.93
-113.70
-119.64
-128.86
-140.15
-151.14
-158.86
-160.51
-154.24
-139.39
-116.05
-84.57
-45.22
1.60
54.24
109.03
160.23
201.43
228.01
239.46
239.17
232.68
225.04
218.34
212.02
203.88
192.02
176.71
161.12
149.27
144.11
146.25
153.35
162.51
170.70
175.36
175.06
170.51
162.65
152.33
140.12
125.71
110.57
96.69
85.53
77.63
72.93
68.95
61.96
49.11
29.25
6.81
-11.08
-17.87
-19.84
-22.19
-28.31
-38.28
-42.36
-44.11
-48.52
-59.55
-83.83
-121.60
-166.83
-210.69
-244.71
-263.90
-269.32
-264.18
-253.05
-239.93
-226.07
-209.80
-189.31
-164.21
-136.23
-109.19
-85.03
-63.61
-42.78
-18.57
13.31
54.84
104.26
155.74
200.17
229.24
237.70
225.02
195.90
158.51
121.13
89.57
66.06
49.57
38.33
31.08
27.62
28.43
33.51
41.58
50.15
56.50
58.64
56.29
50.74
44.06
38.21
34.21
31.97
30.55
28.80
26.01
22.33
18.60
15.86
14.59
14.15
12.96
9.15
1.59
-9.31
-21.61
-32.60
-39.99
-42.85
-41.97
-39.47
-37.91
-39.51
-45.45
-55.78
-69.39
-84.35
-98.32
-109.11
-115.21
-116.19
-112.70
-106.14
-98.13
-89.95
-82.32
-75.39
-68.94
-62.68
-56.53
-50.74
-45.95
-42.99
-42.49
-44.45
-47.96
-51.20
-51.93
-48.16
-38.82
-24.09
-4.99
17.23
41.64
67.70
94.72
121.23
144.79
162.63
172.82
175.11
171.00
162.73
152.11
139.74
125.32
108.66
90.68
73.49
59.52
50.19
45.11
42.22
39.03
33.87
26.50
17.88
9.19
0.98
-7.18
-16.19
-26.78
-38.80
-51.19
-62.50
-71.58
-78.10
-82.50
-85.56
-87.87
-89.50
-90.07
-89.18
-86.70
-82.94
-78.49
-73.86
-69.24
-64.53
-59.49
-53.97
-48.10
-42.23
-36.73
-31.86
-27.66
-24.00
-20.71
-17.63
-14.69
-11.87
-9.20
-6.75
-4.59
-2.80
-1.31
0.00
1.34
2.85
4.58
6.39
8.05
9.30
10.01
10.19
9.94
9.40
8.67
7.79
6.74
5.51
4.15
2.69
1.23
-0.17
-1.44
-2.59
-3.63
-4.67
-5.82
-7.21
-8.98
-11.25
-14.07
-17.44
-21.31
-25.51
-29.76
-33.63
-36.57
-38.07
-37.78
-35.62
-31.76
-26.51
-20.25
-13.28
-5.90
1.50
8.46
14.51
19.38
23.10
26.02
28.57
31.09
33.63
36.05
38.19
40.01
41.63
43.21
44.76
46.12
46.97
47.10
46.42
45.13
43.49
41.76
40.14
38.79
37.85
37.47
37.79
38.73
39.99
41.02
41.15
39.77
36.43
30.94
23.36
13.94
3.12
-8.54
-20.33
-31.49
-41.29
-49.20
-55.05
-59.11
-62.07
-64.81
-68.08
-72.18
-76.78
-80.97
-83.50
-83.27
-79.68
-72.89
-63.76
-53.52
-43.44
-34.43
-26.94
-20.97
-16.24
-12.40
-9.11
-6.16
-3.40
-0.77
1.79
4.27
6.61
8.73
10.55
11.99
13.06
13.77
14.15
14.20
13.91
13.27
12.35
11.27
10.21
9.27
8.43
7.54
6.26
4.28
1.47
-2.00
-5.66
-8.92
-11.24
-12.43
-12.69
-12.48
-12.28
-12.33
-12.52
-12.39
-11.43
-9.20
-5.57
-0.78
4.61
9.65
13.21
14.13
11.63
5.76
-2.47
-11.16
-18.13
-21.65
-21.00
-16.67
-9.96
-2.42
4.72
10.80
15.57
18.95
20.83
21.10
19.84
17.47
14.66
12.13
10.29
9.06
7.93
6.32
3.86
0.65
-2.81
-5.86
-7.95
-8.86
-8.68
-7.70
-6.29
-4.70
-3.06
-1.42
0.26
1.98
3.71
5.34
6.79
7.95
8.79
9.28
9.47
9.41
9.17
8.84
8.48
8.16
7.90
7.70
7.52
7.31
6.97
6.44
5.67
4.63
3.33
1.81
0.18
-1.48
-3.12
-4.77
-6.56
-8.63
-11.06
-13.81
-16.72
-19.57
-22.16
-24.37
-26.20
-27.66
-28.76
-29.41
-29.48
-28.82
-27.32
-24.98
-21.79
-17.88
-13.51
-9.17
-5.60
-3.61
-3.77
-6.12
-10.08
-14.62
-18.56
-20.96
-21.41
-19.98
-17.04
-13.06
-8.44
-3.42
1.82
7.06
12.07
16.57
20.29
23.07
24.83
25.64
25.61
24.90
23.64
21.98
19.99
17.79
15.44
13.02
10.57
8.13
5.75
3.42
1.13
-1.22
-3.78
-6.65
-9.80
-13.00
-15.86
-17.94
-18.97
-18.90
-17.93
-16.35
-14.38
-12.08
-9.46
-6.54
-3.45
-0.49
2.12
4.26
6.02
7.62
9.24
10.93
12.50
13.72
14.42
14.67
14.73
14.93
15.53
16.55
17.81
19.00
19.83
20.16
20.05
19.64
19.11
18.57
18.01
17.39
16.63
15.75
14.81
13.89
13.05
12.30
11.62
11.03
10.51
10.02
9.45
8.61
7.25
5.24
2.63
-0.30
-3.07
-5.20
-6.38
-6.53
-5.83
-4.61
-3.22
-1.95
-1.00
-0.46
-0.37
-0.67
-1.31
-2.17
-3.18
-4.20
-5.17
-5.99
-6.61
-7.00
-7.18
-7.14
-6.91
-6.48
-5.85
-5.01
-4.05
-3.04
-2.08
-1.22
-0.44
0.28
0.97
1.64
2.27
2.85
3.39
3.91
4.33
4.54
4.37
3.65
2.32
0.51
-1.54
-3.56
-5.35
-6.95
-8.58
-10.55
-13.16
-16.51
-20.45
-24.61
-28.56
-31.92
-34.47
-36.13
-36.94
-36.98
-36.32
-35.01
-33.07
-30.50
-27.25
-23.30
-18.65
-13.42
-7.87
-2.37
2.62
6.74
9.74
11.61
12.50
12.74
12.69
12.70
12.99
13.62
14.56
15.68
16.90
18.12
19.28
20.28
21.03
21.43
21.47
21.16
20.58
19.82
18.96
18.03
17.07
16.11
15.19
14.33
13.51
12.67
11.73
10.61
9.28
7.70
5.86
3.73
1.28
-1.53
-4.65
-7.95
-11.21
-14.12
-16.41
-17.96
-18.84
-19.29
-19.61
-19.99
-20.39
-20.58
-20.22
-18.99
-16.76
-13.63
-9.91
-5.99
-2.23
1.14
4.06
6.60
8.91
11.10
13.22
15.25
17.12
18.76
20.12
21.20
22.04
22.77
23.51
24.37
25.34
26.26
26.89
26.98
26.47
25.43
24.13
22.82
21.69
20.73
19.83
18.80
17.52
15.91
14.01
11.88
9.66
7.46
5.36
3.40
1.65
0.18
-0.87
-1.48
-1.86
-2.54
-4.26
-7.61
-12.65
-18.81
-24.97
-29.91
-32.79
-33.42
-32.17
-29.73
-26.72
-23.49
-20.15
-16.71
-13.26
-9.97
-7.05
-4.58
-2.46
-0.41
1.89
4.59
7.52
10.20
12.02
12.55
11.81
10.30
8.81
8.07
8.37
9.54
11.04
12.29
12.89
12.78
12.15
11.27
10.32
9.38
8.40
7.36
6.29
5.30
4.55
4.16
4.17
4.49
4.93
5.30
5.46
5.41
5.23
5.03
4.88
4.75
4.54
4.11
3.31
2.09
0.47
-1.39
-3.25
-4.79
-5.67
-5.67
-4.73
-2.98
-0.76
1.55
3.54
4.96
5.74
5.96
5.81
5.50
5.21
5.00
4.82
4.57
4.16
3.60
3.07
2.77
2.93
3.65
4.77
5.97
6.89
7.26
7.03
6.42
5.69
5.07
4.60
4.15
3.50
2.51
1.16
-0.43
-2.02
-3.44
-4.60
-5.58
-6.55
-7.68
-9.08
-10.76
-12.62
-14.55
-16.51
-18.47
-20.42
-22.29
-23.88
-24.93
-25.22
-24.66
-23.36
-21.58
-19.59
-17.60
-15.69
-13.82
-11.93
-9.95
-7.88
-5.77
-3.69
-1.70
0.16
1.83
3.29
4.49
5.43
6.08
6.46
6.61
6.66
6.73
6.92
7.29
7.71
7.97
7.76
6.85
5.12
2.68
-0.22
-3.30
-6.34
-9.29
-12.28
-15.49
-19.05
-22.93
-26.94
-30.83
-34.49
-37.95
-41.47
-45.31
-49.65
-54.45
-59.56
-64.80
-70.14
-75.79
-82.12
-89.47
-97.91
-107.14
-116.41
-124.62
-130.34
-131.91
-127.48
-115.25
-93.84
-62.94
-23.87
20.25
64.95
105.50
138.23
161.40
175.34
181.68
182.31
178.51
170.78
159.33
144.74
128.31
111.81
96.93
84.50
74.40
65.77
57.72
49.94
42.83
37.20
33.70
32.35
32.32
32.36
31.31
28.63
24.50
19.70
15.04
11.06
7.77
4.81
1.73
-1.74
-5.63
-9.75
-13.87
-17.86
-21.68
-25.40
-29.01
-32.34
-35.09
-36.87
-37.40
-36.62
-34.80
-32.32
-29.57
-26.72
-23.73
-20.48
-16.99
-13.50
-10.44
-8.28
-7.31
-7.62
-9.10
-11.55
-14.74
-18.35
-21.92
-24.91
-26.76
-27.10
-25.83
-23.09
-19.14
-14.24
-8.62
-2.51
3.73
9.69
15.00
19.57
23.61
27.48
31.41
35.31
38.72
41.07
42.02
41.61
40.24
38.32
36.02
33.17
29.51
24.88
19.42
13.46
7.27
0.98
-5.38
-11.64
-17.34
-21.84
-24.59
-25.46
-24.86
-23.51
-22.07
-20.88
-19.96
-19.16
-18.44
-17.93
-17.81
-18.08
-18.44
-18.39
-17.45
-15.55
-13.04
-10.69
-9.30
-9.37
-10.81
-13.02
-15.06
-16.05
-15.43
-13.04
-9.03
-3.71
2.58
9.42
16.25
22.29
26.72
28.94
28.84
26.84
23.80
20.57
17.72
15.34
13.09
10.44
6.89
2.13
-3.92
-11.10
-19.06
-27.32
-35.27
-42.31
-48.02
-52.28
-55.28
-57.44
-59.20
-60.80
-62.20
-63.05
-62.84
-61.22
-58.30
-54.65
-51.01
-48.05
-46.15
-45.28
-45.07
-44.89
-44.29
-43.27
-42.27
-41.94
-42.90
-45.68
-50.64
-57.83
-66.48
-75.15
-81.87
-84.37
-80.51
-69.16
-50.84
-27.86
-3.56
19.57
39.67
55.42
66.39
73.32
77.69
80.97
83.87
86.16
88.58
90.84
91.24
88.00
81.03
72.07
63.54
56.99
52.65
52.23
55.51
59.30
59.62
54.89
46.92
39.91
38.80
48.67
77.20
127.88
196.08
270.90
339.74
392.03
421.32
425.86
386.89
303.63
196.71
94.50
14.60
-40.60
-76.35
-98.29
-111.34
-119.55
-122.83
-122.95
-126.06
-138.34
-161.88
-194.58
-227.86
-254.30
-268.05
-263.40
-230.08
-171.19
-101.18
-36.38
14.52
51.61
78.02
95.81
106.82
108.99
98.06
73.33
39.88
6.34
-19.87
-36.67
-43.65
-43.16
-39.01
-35.17
-33.02
-31.07
-26.89
-19.38
-9.77
-0.32
7.01
11.26
12.03
9.97
6.43
2.64
-0.85
-4.22
-7.61
-11.12
-14.39
-17.08
-18.72
-19.00
-17.97
-16.07
-13.97
-12.16
-10.98
-10.46
-10.56
-11.15
-12.18
-13.65
-15.62
-18.08
-20.87
-23.82
-26.68
-29.20
-31.27
-32.92
-34.27
-35.48
-36.59
-37.59
-38.47
-39.37
-40.50
-42.15
-44.42
-47.18
-49.98
-52.25
-53.55
-53.70
-52.84
-51.28
-49.30
-47.08
-44.68
-42.13
-39.56
-37.16
-35.17
-33.69
-32.68
-31.92
-31.11
-29.93
-28.17
-25.70
-22.49
-18.50
-13.75
-8.33
-2.52
3.39
8.98
13.88
17.90
21.07
23.73
26.25
28.74
31.01
32.67
33.26
32.36
29.80
25.78
20.92
15.97
11.37
7.16
3.14
-1.23
-6.64
-13.55
-22.05
-31.53
-41.27
-50.87
-60.29
-68.97
-76.67
-83.84
-91.60
-101.68
-114.85
-131.12
-149.29
-166.69
-177.94
-178.38
-166.28
-143.43
-114.59
-83.48
-52.86
-24.17
2.55
30.55
61.95
96.14
130.34
161.13
189.26
217.11
246.76
278.98
316.07
357.46
399.01
434.36
456.66
464.67
459.53
443.03
396.25
312.97
204.38
94.06
11.28
-45.52
-82.29
-104.43
-116.65
-122.14
-120.76
-113.38
-102.88
-93.45
-89.71
-91.25
-96.35
-103.50
-111.54
-117.06
-117.66
-113.25
-105.90
-99.16
-93.57
-88.91
-85.02
-81.70
-77.12
-70.00
-60.51
-50.24
-41.69
-35.37
-31.04
-28.15
-25.89
-22.68
-17.41
-10.10
-1.83
5.69
11.78
16.23
19.03
20.29
20.35
19.50
17.90
15.71
13.11
10.60
8.55
7.00
5.77
4.59
3.28
1.87
0.44
-0.96
-2.39
-3.97
-5.83
-7.99
-10.39
-12.95
-15.63
-18.52
-21.78
-25.49
-29.55
-33.57
-36.97
-39.13
-39.68
-38.60
-36.19
-32.92
-29.15
-25.08
-20.69
-16.03
-11.23
-6.60
-2.48
0.91
3.56
5.70
7.59
9.42
11.26
13.05
14.66
16.04
17.17
18.15
19.04
19.87
20.56
20.94
20.85
20.19
19.01
17.55
16.04
14.68
13.45
12.18
10.66
8.76
6.55
4.17
1.80
-0.48
-2.73
-5.07
-7.66
-10.62
-14.06
-17.98
-22.32
-26.87
-31.31
-35.22
-38.18
-39.83
-39.99
-38.69
-36.07
-32.42
-28.00
-23.02
-17.66
-12.08
-6.46
-1.06
3.84
8.04
11.46
14.19
16.43
18.32
19.92
21.14
21.86
22.05
21.86
21.54
21.36
21.49
21.91
22.40
22.75
22.76
22.37
21.64
20.66
19.48
18.11
16.47
14.51
12.26
9.78
7.21
4.68
2.28
-0.00
-2.22
-4.50
-7.00
-9.90
-13.36
-17.49
-22.30
-27.62
-33.10
-38.24
-42.47
-45.29
-46.37
-45.65
-43.35
-39.82
-35.50
-30.75
-25.87
-21.04
-16.39
-12.05
-8.10
-4.59
-1.47
1.36
4.02
6.58
9.06
11.38
13.49
15.33
16.89
18.18
19.30
20.35
21.48
22.85
24.53
26.44
28.37
30.01
31.10
31.49
31.21
30.37
29.09
27.38
25.24
22.67
19.75
16.66
13.62
10.76
8.09
5.50
2.84
-0.01
-3.09
-6.44
-10.09
-14.12
-18.53
-23.15
-27.51
-30.98
-32.89
-32.80
-30.67
-26.86
-21.97
-16.61
-11.22
-6.08
-1.38
2.64
5.68
7.45
7.87
7.14
5.74
4.23
3.07
2.51
2.55
3.00
3.63
4.22
4.62
4.76
4.60
4.15
3.41
2.31
0.67
-1.80
-5.42
-10.39
-16.69
-23.99
-31.63
-38.72
-44.36
-47.82
-48.85
-47.73
-45.29
-42.66
-40.82
-40.37
-41.42
-43.74
-47.11
-51.51
-57.15
-64.19
-72.43
-81.14
-89.22
-95.54
-99.35
-100.54
-99.63
-97.51
-95.16
-93.40
-92.71
-93.08
-94.01
-94.42
-92.75
-87.28
-76.66
-60.51
-39.76
-16.53
6.44
26.72
42.84
54.50
62.32
67.24
70.10
71.46
71.79
71.67
71.85
72.97
75.20
77.94
79.85
79.31
75.00
66.50
54.52
40.75
27.27
15.95
7.91
3.33
1.55
1.46
1.85
1.63
-0.09
-3.89
-9.94
-17.80
-26.42
-34.36
-40.20
-43.06
-42.83
-40.11
-35.87
-30.98
-26.03
-21.25
-16.73
-12.48
-8.49
-4.62
-0.54
4.17
9.85
16.50
23.75
30.98
37.55
43.03
47.31
50.61
53.34
55.98
58.92
62.40
66.45
70.85
75.18
78.91
81.50
82.42
81.30
77.96
72.53
65.53
57.86
50.64
44.90
41.31
40.02
40.57
42.12
43.61
44.08
42.87
39.74
34.97
29.15
23.07
17.40
12.49
8.32
4.56
0.83
-3.11
-7.23
-11.21
-14.63
-17.08
-18.26
-18.06
-16.49
-13.70
-9.87
-5.25
-0.15
5.07
10.10
14.62
18.44
21.49
23.80
25.52
26.77
27.63
28.04
27.92
27.19
25.95
24.53
23.36
22.86
23.23
24.35
25.79
27.03
27.57
27.23
26.07
24.40
22.63
21.04
19.73
18.57
17.30
15.65
13.50
10.92
8.17
5.49
3.03
0.78
-1.35
-3.47
-5.64
-7.92
-10.41
-13.27
-16.66
-20.61
-24.91
-29.15
-32.86
-35.65
-37.41
-38.25
-38.31
-37.59
-35.78
-32.43
-27.19
-20.16
-12.04
-3.94
2.93
7.79
10.52
11.67
12.07
12.44
13.05
13.76
14.19
14.12
13.62
13.03
12.82
13.31
14.54
16.30
18.26
20.13
21.78
23.15
24.22
24.88
24.99
24.43
23.19
21.45
19.52
17.65
15.98
14.39
12.67
10.66
8.37
6.00
3.72
1.52
-0.90
-3.97
-7.97
-12.76
-17.74
-22.04
-24.88
-25.89
-25.24
-23.50
-21.30
-19.01
-16.60
-13.82
-10.40
-6.36
-2.07
1.79
4.58
5.94
5.95
5.08
3.92
2.95
2.31
1.87
1.43
0.91
0.43
0.26
0.56
1.22
1.84
1.86
0.89
-1.20
-4.14
-7.50
-10.86
-14.06
-17.16
-20.34
-23.71
-27.12
-30.08
-31.76
-31.03
-26.76
-18.22
-5.54
9.97
26.03
40.11
50.30
56.06
58.29
58.75
59.18
60.51
62.66
64.97
66.75
67.69
67.83
67.23
65.69
62.67
57.61
50.30
41.17
31.24
21.82
13.99
8.28
4.48
1.84
-0.54
-3.25
-6.31
-9.22
-11.28
-11.97
-11.24
-9.54
-7.56
-5.92
-4.92
-4.49
-4.30
-3.99
-3.31
-2.19
-0.72
0.97
2.70
4.32
5.67
6.64
7.07
6.89
6.02
4.48
2.42
0.03
-2.43
-4.78
-6.98
-9.13
-11.39
-13.86
-16.58
-19.50
-22.52
-25.55
-28.49
-31.17
-33.34
-34.73
-35.20
-34.84
-33.93
-32.85
-31.84
-30.93
-29.98
-28.78
-27.26
-25.44
-23.45
-21.37
-19.20
-16.96
-14.74
-12.69
-11.01
-9.84
-9.14
-8.75
-8.46
-8.06
-7.45
-6.63
-5.70
-4.78
-3.98
-3.29
-2.63
-1.81
-0.70
0.71
2.13
3.06
2.88
1.10
-2.48
-7.56
-13.48
-19.32
-24.23
-27.64
-29.45
-29.94
-29.63
-28.94
-28.06
-26.92
-25.36
-23.34
-21.07
-18.92
-17.26
-16.23
-15.66
-15.10
-14.01
-11.96
-8.90
-5.14
-1.32
1.83
3.83
4.58
4.35
3.55
2.45
1.15
-0.30
-1.69
-2.58
-2.52
-1.38
0.33
1.64
1.57
-0.44
-4.26
-9.28
-14.82
-20.47
-26.11
-31.68
-36.92
-41.27
-44.12
-45.16
-44.53
-42.80
-40.66
-38.70
-37.13
-35.90
-34.77
-33.54
-32.09
-30.37
-28.39
-26.15
-23.65
-20.95
-18.20
-15.62
-13.44
-11.77
-10.56
-9.60
-8.60
-7.37
-5.84
-4.12
-2.29
-0.42
1.46
3.36
5.22
6.93
8.40
9.61
10.61
11.42
11.87
11.62
10.26
7.56
3.65
-0.95
-5.56
-9.62
-12.91
-15.62
-18.15
-20.78
-23.52
-26.11
-28.14
-29.30
-29.54
-29.01
-28.03
-26.91
-25.87
-24.97
-24.09
-23.04
-21.57
-19.52
-16.87
-13.76
-10.36
-6.81
-3.09
0.97
5.59
10.90
16.81
23.00
28.96
34.15
38.24
41.18
43.21
44.76
46.16
47.51
48.57
48.95
48.33
46.65
44.16
41.28
38.37
35.58
32.85
29.99
26.86
23.43
19.76
16.01
12.31
8.76
5.43
2.34
-0.55
-3.30
-6.05
-8.94
-12.13
-15.71
-19.67
-23.81
-27.75
-31.01
-33.05
-33.43
-31.90
-28.38
-22.97
-15.95
-7.73
1.10
9.74
17.25
22.67
25.20
24.45
20.53
14.07
6.15
-2.01
-9.32
-15.08
-19.15
-21.84
-23.77
-25.58
-27.66
-30.09
-32.64
-35.04
-37.10
-38.91
-40.72
-42.82
-45.29
-47.95
-50.43
-52.34
-53.50
-53.97
-53.98
-53.66
-53.00
-51.83
-49.94
-47.28
-43.93
-40.09
-35.91
-31.49
-26.82
-21.94
-16.92
-11.93
-7.14
-2.67
1.38
4.97
8.00
10.37
12.02
13.03
13.61
14.04
14.55
15.21
15.93
16.45
16.46
15.67
13.94
11.31
8.03
4.47
1.00
-2.15
-5.06
-8.06
-11.59
-16.03
-21.41
-27.47
-33.64
-39.30
-43.92
-47.18
-48.96
-49.29
-48.21
-45.63
-41.37
-35.24
-27.16
-17.33
-6.23
5.30
16.39
26.25
34.31
40.36
44.49
46.97
48.18
48.54
48.43
48.14
47.92
47.93
48.23
48.85
49.67
50.45
50.85
50.50
49.20
47.02
44.17
40.95
37.50
33.74
29.53
24.77
19.56
14.13
8.70
3.27
-2.37
-8.58
-15.49
-22.97
-30.53
-37.56
-43.52
-48.15
-51.36
-53.15
-53.44
-52.02
-48.65
-43.16
-35.53
-25.98
-14.94
-3.04
9.00
20.43
30.63
39.26
46.25
51.80
56.22
59.80
62.74
65.18
67.25
69.09
70.84
72.52
73.98
74.88
74.84
73.66
71.41
68.43
65.20
62.11
59.32
56.67
53.86
50.56
46.58
41.99
37.03
32.03
27.33
23.12
19.43
16.11
12.91
9.48
5.52
0.84
-4.62
-10.71
-17.12
-23.42
-29.19
-34.09
-37.91
-40.56
-42.02
-42.24
-41.10
-38.43
-34.08
-28.03
-20.52
-11.99
-3.07
5.57
13.44
20.24
25.90
30.57
34.46
37.78
40.67
43.23
45.49
47.46
49.13
50.48
51.42
51.84
51.57
50.54
48.73
46.31
43.56
40.77
38.18
35.87
33.73
31.61
29.38
27.00
24.52
22.09
19.78
17.63
15.60
13.60
11.55
9.37
6.96
4.23
1.10
-2.50
-6.53
-10.80
-15.03
-18.81
-21.77
-23.69
-24.50
-24.31
-23.29
-21.63
-19.48
-16.92
-14.01
-10.86
-7.59
-4.39
-1.47
0.95
2.69
3.68
4.00
3.90
3.77
3.98
4.80
6.30
8.35
10.73
13.14
15.29
16.90
17.77
17.79
16.93
15.31
13.14
10.74
8.40
6.36
4.67
3.21
1.76
0.08
-1.92
-4.16
-6.44
-8.55
-10.45
-12.28
-14.29
-16.66
-19.36
-22.14
-24.57
-26.28
-27.04
-26.88
-25.97
-24.60
-22.98
-21.27
-19.52
-17.73
-15.87
-13.94
-11.91
-9.77
-7.51
-5.14
-2.75
-0.43
1.68
3.46
4.83
5.75
6.24
6.35
6.18
5.83
5.45
5.13
4.93
4.83
4.74
4.53
4.06
3.24
2.05
0.59
-0.99
-2.47
-3.69
-4.61
-5.32
-6.02
-6.99
-8.43
-10.40
-12.83
-15.49
-18.12
-20.58
-22.87
-25.17
-27.73
-30.77
-34.28
-38.04
-41.61
-44.54
-46.53
-47.55
-47.79
-47.61
-47.30
-47.02
-46.74
-46.27
-45.37
-43.69
-40.79
-36.26
-29.82
-21.50
-11.69
-1.03
9.76
20.16
29.92
39.00
47.32
54.71
60.83
65.33
68.03
68.99
68.45
66.70
64.03
60.69
56.99
53.24
49.69
46.45
43.43
40.42
37.17
33.50
29.34
24.75
19.87
14.85
9.89
5.22
1.02
-2.59
-5.61
-8.16
-10.40
-12.47
-14.42
-16.30
-18.15
-20.01
-21.87
-23.63
-25.08
-25.99
-26.26
-25.94
-25.30
-24.56
-23.81
-22.87
-21.40
-19.09
-15.86
-11.95
-7.83
-4.05
-0.99
1.17
2.48
3.11
3.30
3.29
3.21
3.18
3.18
3.14
2.89
2.29
1.29
0.02
-1.17
-1.81
-1.44
0.31
3.52
7.91
12.91
17.76
21.71
24.20
25.01
24.23
22.21
19.46
16.45
13.57
11.06
9.00
7.36
6.05
4.99
4.04
3.08
2.02
0.84
-0.40
-1.53
-2.38
-2.83
-2.93
-2.89
-3.01
-3.58
-4.67
-6.18
-7.81
-9.26
-10.34
-11.06
-11.63
-12.26
-13.11
-14.22
-15.50
-16.81
-18.03
-19.08
-19.94
-20.61
-21.08
-21.32
-21.33
-21.17
-21.00
-21.04
-21.53
-22.63
-24.29
-26.25
-28.07
-29.33
-29.74
-29.33
-28.39
-27.41
-26.78
-26.70
-27.06
-27.55
-27.85
-27.76
-27.38
-26.96
-26.78
-27.01
-27.60
-28.36
-29.11
-29.69
-30.00
-29.96
-29.39
-28.13
-26.04
-23.15
-19.71
-16.10
-12.69
-9.76
-7.41
-5.61
-4.27
-3.29
-2.60
-2.09
-1.70
-1.31
-0.87
-0.33
0.34
1.13
2.02
2.97
3.88
4.67
5.22
5.48
5.45
5.15
4.60
3.77
2.63
1.17
-0.54
-2.38
-4.23
-6.05
-7.93
-10.08
-12.68
-15.73
-19.01
-22.08
-24.52
-26.11
-27.04
-27.79
-28.93
-30.76
-33.16
-35.59
-37.31
-37.74
-36.62
-34.16
-30.80
-27.03
-23.20
-19.47
-15.82
-12.19
-8.52
-4.85
-1.29
1.99
4.84
7.19
9.06
10.63
12.08
13.54
14.98
16.26
17.15
17.55
17.52
17.36
17.50
18.30
19.91
22.11
24.36
26.01
26.49
25.60
23.53
20.82
18.14
16.10
15.20
15.76
17.94
21.66
26.45
31.42
35.36
37.10
35.90
31.78
25.44
17.96
10.35
3.30
-2.88
-8.06
-12.07
-14.67
-15.56
-14.58
-11.86
-7.83
-3.16
1.41
5.31
8.24
10.25
11.58
12.53
13.22
13.62
13.52
12.81
11.53
9.88
8.18
6.59
5.18
3.88
2.67
1.58
0.75
0.32
0.28
0.50
0.73
0.71
0.24
-0.78
-2.33
-4.24
-6.30
-8.30
-10.07
-11.57
-12.84
-13.96
-15.00
-16.01
-16.98
-17.89
-18.74
-19.49
-20.17
-20.76
-21.31
-21.86
-22.44
-23.05
-23.63
-24.05
-24.20
-23.98
-23.33
-22.21
-20.61
-18.54
-16.05
-13.28
-10.41
-7.69
-5.32
-3.42
-1.97
-0.83
0.18
1.26
2.50
3.89
5.38
6.88
8.32
9.61
10.67
11.42
11.81
11.87
11.74
11.63
11.73
12.06
12.51
12.82
12.76
12.21
11.25
10.14
9.19
8.62
8.44
8.47
8.42
7.95
6.95
5.50
3.87
2.40
1.28
0.48
-0.24
-1.23
-2.77
-4.90
-7.43
-9.98
-12.14
-13.60
-14.20
-13.98
-13.07
-11.70
-10.11
-8.44
-6.81
-5.23
-3.70
-2.21
-0.80
0.49
1.62
2.64
3.61
4.61
5.67
6.75
7.74
8.56
9.17
9.60
9.91
10.14
10.29
10.33
10.21
9.98
9.67
9.36
9.01
8.54
7.84
6.84
5.57
4.17
2.81
1.62
0.61
-0.30
-1.24
-2.35
-3.71
-5.35
-7.26
-9.41
-11.74
-14.10
-16.23
-17.75
-18.31
-17.69
-15.96
-13.44
-10.60
-7.87
-5.44
-3.34
-1.47
0.25
1.79
3.06
4.00
4.64
5.11
5.52
5.94
6.37
6.78
7.16
7.56
7.99
8.43
8.74
8.80
8.52
7.88
6.95
5.87
4.81
3.95
3.48
3.50
3.97
4.64
5.14
5.05
4.14
2.44
0.22
-2.16
-4.41
-6.43
-8.37
-10.44
-12.78
-15.35
-17.89
-20.02
-21.40
-21.85
-21.39
-20.25
-18.68
-16.92
-15.08
-13.16
-11.06
-8.72
-6.19
-3.62
-1.26
0.66
2.07
3.11
4.04
5.10
6.36
7.63
8.61
9.03
8.88
8.42
8.03
8.07
8.63
9.55
10.50
11.17
11.33
10.97
10.18
9.13
8.01
6.94
5.97
5.05
4.07
2.95
1.69
0.42
-0.70
-1.52
-2.04
-2.34
-2.60
-2.91
-3.36
-3.95
-4.64
-5.38
-6.08
-6.58
-6.70
-6.25
-5.12
-3.31
-0.91
1.93
5.02
8.16
11.19
13.97
16.43
18.52
20.17
21.20
21.35
20.41
18.32
15.33
12.04
9.24
7.76
8.14
10.53
14.63
19.78
25.10
29.71
32.88
34.27
33.82
31.77
28.45
24.20
19.35
14.27
9.38
5.11
1.74
-0.66
-2.27
-3.44
-4.47
-5.52
-6.53
-7.36
-7.91
-8.20
-8.43
-8.85
-9.71
-11.10
-12.93
-14.95
-16.80
-18.12
-18.72
-18.58
-17.83
-16.73
-15.51
-14.33
-13.22
-12.14
-11.00
-9.70
-8.21
-6.51
-4.65
-2.74
-0.88
0.79
2.21
3.39
4.42
5.44
6.62
8.05
9.68
11.33
12.72
13.65
14.02
13.92
13.55
13.13
12.77
12.47
12.11
11.52
10.58
9.23
7.55
5.71
4.01
2.79
2.31
2.57
3.30
4.05
4.40
4.18
3.55
2.84
2.34
2.04
1.68
0.81
-0.84
-3.29
-6.27
-9.34
-12.01
-13.90
-14.75
-14.48
-13.18
-11.13
-8.78
-6.64
-5.14
-4.39
-4.09
-3.59
-2.00
1.36
6.74
13.63
20.92
27.22
31.35
32.73
31.59
28.72
25.13
21.59
18.55
16.03
13.92
12.05
10.33
8.67
6.98
5.14
2.99
0.50
-2.26
-5.00
-7.36
-8.96
-9.65
-9.57
-9.14
-8.89
-9.22
-10.23
-11.60
-12.87
-13.60
-13.65
-13.21
-12.75
-12.74
-13.48
-14.99
-16.97
-18.93
-20.35
-20.75
-19.93
-17.94
-15.10
-11.79
-8.37
-5.01
-1.77
1.38
4.40
7.18
9.57
11.43
12.75
13.58
14.02
14.16
14.07
13.81
13.40
12.88
12.28
11.68
11.17
10.83
10.71
10.72
10.71
10.51
10.04
9.33
8.51
7.76
7.13
6.55
5.84
4.86
3.50
1.80
-0.19
-2.35
-4.57
-6.75
-8.79
-10.68
-12.51
-14.49
-16.93
-20.10
-24.06
-28.61
-33.22
-37.24
-40.10
-41.49
-41.46
-40.27
-38.21
-35.43
-31.93
-27.70
-22.87
-17.84
-13.20
-9.49
-6.92
-5.33
-4.27
-3.20
-1.80
0.00
2.02
3.94
5.51
6.53
6.98
6.95
6.58
6.08
5.66
5.49
5.59
5.83
5.92
5.51
4.42
2.80
1.15
0.22
0.66
2.72
6.04
9.80
12.99
14.89
15.29
14.52
13.17
11.75
10.39
8.82
6.49
2.85
-2.32
-8.74
-15.56
-21.43
-24.78
-24.29
-19.25
-9.93
2.42
15.89
28.45
38.39
44.73
47.22
46.20
42.34
36.48
29.47
22.14
15.21
9.27
4.67
1.53
-0.33
-1.24
-1.63
-1.83
-1.96
-1.90
-1.36
-0.12
1.77
3.93
5.66
6.36
5.78
4.22
2.41
1.23
1.23
2.46
4.40
6.20
7.01
6.31
4.09
0.78
-2.90
-6.26
-8.82
-10.50
-11.55
-12.39
-13.42
-14.84
-16.62
-18.55
-20.38
-21.86
-22.81
-23.15
-22.88
-22.16
-21.41
-21.19
-22.05
-24.03
-26.43
-27.86
-26.79
-22.38
-15.19
-7.14
-0.80
1.77
0.01
-5.04
-11.33
-16.85
-20.54
-22.46
-23.29
-23.67
-23.78
-23.36
-22.12
-20.16
-17.98
-16.24
-15.42
-15.51
-16.14
-16.75
-16.90
-16.46
-15.52
-14.27
-12.89
-11.47
-10.02
-8.54
-7.02
-5.46
-3.90
-2.43
-1.16
-0.24
0.28
0.51
0.75
1.40
2.85
5.24
8.47
12.22
16.10
19.80
23.24
26.49
29.66
32.81
35.82
38.49
40.58
41.93
42.54
42.48
41.92
41.01
39.93
38.88
38.05
37.62
37.69
38.23
39.11
40.17
41.26
42.29
43.16
43.68
43.57
42.56
40.48
37.42
33.72
29.84
26.22
23.08
20.46
18.20
16.12
14.04
11.84
9.37
6.44
2.81
-1.74
-7.26
-13.54
-20.05
-25.99
-30.53
-33.03
-33.18
-31.06
-27.00
-21.37
-14.53
-6.80
1.47
9.74
17.39
23.76
28.41
31.18
32.23
31.92
30.73
29.10
27.44
25.95
24.71
23.66
22.60
21.40
20.05
18.73
17.69
17.16
17.14
17.42
17.66
17.53
16.91
15.91
14.79
13.78
12.98
12.33
11.64
10.70
9.34
7.48
5.13
2.33
-0.80
-4.07
-7.29
-10.28
-13.03
-15.67
-18.44
-21.60
-25.25
-29.27
-33.33
-36.95
-39.66
-41.18
-41.44
-40.54
-38.75
-36.31
-33.47
-30.40
-27.27
-24.22
-21.37
-18.79
-16.47
-14.34
-12.36
-10.51
-8.86
-7.46
-6.35
-5.47
-4.69
-3.92
-3.08
-2.19
-1.32
-0.53
0.12
0.61
0.88
0.88
0.56
-0.05
-0.88
-1.72
-2.38
-2.74
-2.74
-2.49
-2.15
-1.84
-1.69
-1.69
-1.88
-2.29
-2.94
-3.90
-5.22
-6.92
-9.05
-11.65
-14.71
-18.19
-21.85
-25.33
-28.17
-29.95
-30.46
-29.71
-27.92
-25.42
-22.47
-19.28
-15.97
-12.62
-9.37
-6.36
-3.73
-1.54
0.24
1.73
3.01
4.17
5.23
6.23
7.19
8.13
9.02
9.83
10.48
10.90
11.06
10.97
10.62
10.01
9.13
7.98
6.59
5.09
3.62
2.36
1.43
0.88
0.71
0.85
1.22
1.69
2.16
2.52
2.72
2.76
2.61
2.24
1.49
0.17
-1.92
-4.84
-8.47
-12.42
-16.14
-19.07
-20.80
-21.22
-20.45
-18.81
-16.64
-14.21
-11.63
-8.97
-6.23
-3.44
-0.69
1.92
4.31
6.41
8.22
9.78
11.11
12.22
13.09
13.67
13.94
14.00
14.01
14.13
14.45
14.91
15.32
15.50
15.35
14.95
14.52
14.24
14.24
14.53
14.97
15.38
15.57
15.35
14.64
13.47
12.00
10.49
9.17
8.15
7.33
6.50
5.38
3.76
1.58
-1.16
-4.36
-7.94
-11.79
-15.83
-19.87
-23.66
-26.90
-29.25
-30.49
-30.55
-29.62
-28.03
-26.24
-24.64
-23.42
-22.63
-22.24
-22.19
-22.37
-22.55
-22.36
-21.31
-19.09
-15.75
-11.76
-7.87
-4.82
-2.94
-2.10
-1.71
-1.14
0.04
1.72
3.47
4.67
4.91
4.14
2.68
1.01
-0.48
-1.64
-2.60
-3.60
-4.78
-6.05
-7.08
-7.57
-7.44
-6.92
-6.48
-6.59
-7.46
-8.91
-10.42
-11.44
-11.68
-11.25
-10.67
-10.55
-11.39
-13.33
-16.18
-19.54
-23.00
-26.31
-29.31
-31.97
-34.19
-35.88
-36.92
-37.22
-36.72
-35.37
-33.12
-29.86
-25.53
-20.16
-14.05
-7.80
-2.34
1.20
1.78
-1.28
-7.89
-17.10
-26.95
-34.81
-37.90
-34.01
-22.07
-2.56
22.43
49.73
75.65
96.93
111.31
118.00
117.63
111.84
102.73
92.26
81.89
72.43
64.14
56.77
49.82
42.68
34.80
25.90
16.09
5.84
-4.20
-13.48
-21.82
-29.45
-36.88
-44.63
-52.86
-61.20
-68.70
-74.09
-76.14
-74.02
-67.67
-57.74
-45.39
-31.93
-18.54
-6.09
4.84
13.88
20.88
25.89
29.22
31.37
32.90
34.21
35.45
36.53
37.22
37.32
36.67
35.16
32.73
29.33
24.92
19.49
13.05
5.61
-2.72
-11.60
-20.42
-28.28
-34.24
-37.67
-38.43
-36.98
-34.15
-30.84
-27.62
-24.48
-20.87
-15.81
-8.33
2.09
15.24
29.93
44.31
56.23
63.98
66.69
64.54
58.56
50.19
40.97
32.24
25.10
20.28
18.18
18.74
21.46
25.52
30.06
34.37
38.09
41.19
43.80
46.04
47.86
49.14
49.73
49.61
48.91
47.83
46.56
45.15
43.55
41.70
39.67
37.67
35.99
34.84
34.13
33.59
32.78
31.18
28.44
24.43
19.30
13.37
7.08
0.86
-4.86
-9.80
-13.86
-17.08
-19.58
-21.50
-23.06
-24.58
-26.53
-29.16
-32.45
-36.11
-39.56
-41.88
-42.17
-39.98
-35.52
-29.94
-24.23
-19.21
-15.40
-12.71
-10.15
-6.47
-0.79
6.76
14.51
21.17
25.79
27.76
27.37
25.90
25.09
26.27
29.68
33.64
37.38
40.23
41.06
38.74
32.63
23.14
11.88
1.43
-6.10
-6.76
2.64
22.76
44.51
56.89
52.92
33.39
12.44
-7.11
-24.61
-39.37
-52.59
-62.21
-65.89
-61.65
-49.78
-33.28
-17.99
-7.81
-4.63
-11.14
-21.48
-32.91
-41.83
-45.44
-42.69
-35.27
-24.90
-13.78
-4.31
2.44
6.04
8.28
11.88
19.18
30.46
44.69
59.00
69.16
71.63
64.11
47.61
25.84
3.79
-14.32
-25.81
-30.37
-29.68
-25.86
-21.02
-15.95
-10.75
-5.45
-0.61
2.93
4.29
3.01
-0.73
-6.54
-13.67
-21.33
-28.81
-35.56
-41.25
-45.84
-49.61
-52.85
-55.81
-58.32
-59.89
-60.05
-58.59
-55.79
-52.18
-48.28
-44.30
-40.18
-35.75
-31.02
-26.32
-22.13
-18.87
-16.64
-15.25
-14.33
-13.49
-12.42
-10.96
-8.99
-6.49
-3.60
-0.59
2.09
4.04
5.05
5.17
4.77
4.30
4.12
4.35
4.99
5.98
7.37
9.24
11.56
14.03
16.06
16.98
16.23
13.58
9.15
3.25
-3.78
-11.61
-19.64
-26.92
-32.09
-33.87
-31.60
-25.64
-17.26
-8.07
0.55
7.83
13.51
17.61
20.13
21.03
20.17
17.26
11.85
3.46
-7.97
-21.55
-35.09
-45.48
-49.79
-46.61
-36.86
-23.40
-9.77
1.40
9.32
14.84
19.34
23.61
27.25
29.03
27.74
23.04
15.75
7.52
0.07
-5.57
-9.33
-11.88
-14.13
-16.60
-19.26
-21.63
-23.20
-23.79
-23.63
-23.14
-22.68
-22.26
-21.51
-19.78
-16.50
-11.30
-4.21
4.32
13.46
22.15
29.32
34.23
36.73
37.31
36.90
36.51
36.74
37.63
38.77
39.57
39.64
38.91
37.58
35.86
33.87
31.52
28.66
25.20
21.19
16.85
12.41
8.12
4.11
0.43
-2.97
-6.18
-9.36
-12.63
-16.14
-19.96
-24.13
-28.60
-33.25
-37.88
-42.23
-46.04
-49.09
-51.29
-52.74
-53.73
-54.74
-56.24
-58.54
-61.55
-64.78
-67.36
-68.38
-67.13
-63.37
-57.38
-49.81
-41.45
-32.96
-24.78
-17.18
-10.32
-4.35
0.67
4.73
8.00
10.77
13.35
15.99
18.72
21.42
23.86
25.80
27.13
27.90
28.21
28.15
27.77
27.03
25.87
24.36
22.63
20.86
19.15
17.50
15.81
14.00
12.14
10.35
8.82
7.58
6.55
5.50
4.20
2.50
0.40
-2.00
-4.54
-7.02
-9.26
-11.06
-12.28
-12.75
-12.46
-11.46
-9.89
-7.92
-5.67
-3.29
-0.82
1.65
4.03
6.23
8.11
9.60
10.67
11.43
12.03
12.65
13.41
14.39
15.56
16.89
18.32
19.70
20.87
21.61
21.76
21.31
20.41
19.31
18.31
17.57
17.13
16.89
16.64
16.20
15.43
14.32
12.95
11.47
10.02
8.67
7.31
5.79
3.93
1.65
-0.98
-3.76
-6.55
-9.27
-12.01
-14.86
-17.86
-20.87
-23.66
-25.91
-27.41
-28.13
-28.23
-28.02
-27.86
-28.01
-28.51
-29.23
-29.90
-30.34
-30.58
-30.92
-31.78
-33.54
-36.32
-40.10
-44.97
-51.44
-60.43
-72.57
-87.51
-103.25
-116.31
-122.75
-119.54
-105.50
-81.31
-48.86
-10.47
31.37
73.69
112.66
143.67
162.35
166.04
154.98
132.46
103.71
74.13
47.71
26.46
10.67
-0.16
-6.71
-9.69
-10.19
-9.95
-11.19
-15.74
-24.16
-35.02
-44.91
-49.41
-44.57
-28.36
-1.62
31.86
66.08
94.48
111.79
115.63
107.20
90.75
71.99
56.14
46.45
43.64
46.51
52.95
60.92
68.93
75.93
81.11
83.78
83.44
80.09
74.27
67.05
59.62
52.93
47.43
42.93
38.84
34.47
29.37
23.55
17.44
11.68
6.81
3.03
0.11
-2.42
-5.04
-8.02
-11.27
-14.49
-17.33
-19.67
-21.72
-24.03
-27.26
-31.85
-37.83
-44.66
-51.40
-57.00
-60.62
-61.89
-60.92
-58.15
-54.17
-49.44
-44.29
-38.90
-33.38
-27.85
-22.45
-17.32
-12.59
-8.27
-4.32
-0.67
2.71
5.81
8.53
10.82
12.64
14.09
15.26
16.18
16.81
17.01
16.68
15.85
14.71
13.50
12.45
11.64
10.98
10.28
9.33
8.02
6.27
4.10
1.57
-1.18
-3.96
-6.52
-8.65
-10.26
-11.47
-12.60
-14.08
-16.30
-19.46
-23.41
-27.64
-31.45
-34.14
-35.21
-34.56
-32.43
-29.29
-25.58
-21.62
-17.51
-13.24
-8.81
-4.35
-0.08
3.70
6.81
9.25
11.23
13.04
14.91
16.93
18.96
20.76
22.07
22.72
22.61
21.74
20.11
17.72
14.62
10.99
7.14
3.41
0.11
-2.58
-4.61
-5.99
-6.79
-7.05
-6.88
-6.47
-6.13
-6.23
-7.14
-9.11
-12.21
-16.32
-21.13
-26.22
-31.24
-35.94
-40.18
-43.89
-46.99
-49.36
-50.90
-51.47
-51.10
-49.94
-48.25
-46.24
-43.96
-41.39
-38.43
-35.05
-31.25
-27.24
-23.43
-20.31
-18.33
-17.53
-17.70
-18.46
-19.16
-18.96
-17.16
-13.63
-9.04
-4.79
-2.27
-2.82
-7.17
-14.84
-23.94
-31.94
-36.90
-38.30
-37.33
-35.95
-36.97
-43.15
-55.63
-72.78
-90.38
-102.77
-104.23
-90.67
-60.17
-14.98
38.31
90.63
133.09
159.21
166.10
155.05
127.41
91.40
59.85
42.11
38.28
41.53
44.22
41.91
34.77
25.98
20.49
21.55
28.30
38.05
47.67
54.85
58.06
56.47
48.97
35.12
14.96
-10.68
-39.33
-66.84
-85.90
-90.64
-75.43
-42.92
-3.29
30.75
50.85
56.02
51.23
43.74
39.31
40.69
47.12
55.98
63.73
67.31
63.58
50.91
30.31
5.30
-19.14
-38.41
-49.34
-50.87
-44.07
-31.58
-16.57
-1.94
10.55
18.62
20.40
15.44
4.97
-8.31
-21.17
-30.55
-34.32
-31.89
-24.37
-14.15
-4.07
3.51
7.42
7.84
6.02
3.55
1.57
0.26
-0.94
-2.78
-5.63
-9.19
-12.64
-15.01
-15.69
-14.64
-12.39
-9.72
-7.32
-5.66
-4.84
-4.73
-5.02
-5.43
-5.81
-6.13
-6.47
-6.88
-7.38
-7.96
-8.58
-9.25
-10.01
-10.85
-11.71
-12.36
-12.50
-11.98
-10.89
-9.58
-8.57
-8.32
-8.97
-10.33
-11.90
-13.20
-13.91
-14.00
-13.61
-12.81
-11.62
-9.94
-7.67
-4.89
-1.79
1.38
4.45
7.40
10.36
13.34
16.20
18.71
20.66
22.02
22.93
23.65
24.42
25.33
26.06
26.07
24.97
22.77
19.96
17.24
15.25
14.33
14.22
13.89
12.03
7.86
1.68
-5.27
-11.36
-15.38
-16.80
-16.30
-15.84
-17.95
-24.50
-35.78
-50.27
-64.93
-75.85
-78.88
-71.10
-52.25
-25.12
5.55
34.53
57.34
71.15
72.81
61.50
41.45
20.09
2.98
-8.53
-16.02
-21.67
-26.50
-29.97
-30.51
-26.66
-18.70
-9.23
-1.95
0.93
-1.12
-6.83
-13.91
-20.34
-24.92
-28.06
-31.51
-36.85
-44.66
-54.02
-62.85
-68.94
-70.35
-65.93
-55.60
-40.55
-22.18
-4.08
9.97
18.72
27.01
38.06
52.89
70.83
87.19
98.79
104.15
104.21
101.52
98.49
95.65
92.04
85.93
75.77
61.66
44.93
27.76
12.23
-0.51
-10.63
-18.65
-24.91
-29.61
-32.48
-33.38
-32.55
-30.50
-27.81
-25.13
-22.74
-20.72
-19.14
-17.68
-15.94
-13.86
-11.73
-9.76
-7.91
-5.95
-3.99
-3.07
-4.54
-9.28
-17.72
-28.96
-40.09
-46.78
-44.78
-31.53
-8.27
24.82
65.85
110.69
153.01
185.30
200.86
195.84
170.67
130.44
76.63
19.26
-28.90
-60.07
-75.18
-80.12
-80.76
-80.75
-81.92
-84.98
-89.10
-94.31
-99.49
-102.51
-100.63
-91.66
-75.11
-52.38
-26.09
1.47
25.51
41.01
45.59
40.43
29.13
15.87
4.06
-4.44
-8.85
-10.14
-9.75
-8.77
-7.49
-5.56
-2.46
2.86
10.72
21.68
35.89
52.92
71.37
88.66
101.50
106.86
103.32
91.54
74.41
55.64
38.63
25.45
16.60
11.57
9.09
8.43
8.93
9.86
10.26
9.11
5.71
-0.05
-7.48
-15.36
-22.25
-27.21
-30.04
-31.29
-31.95
-32.97
-34.83
-37.41
-40.10
-42.02
-42.54
-41.34
-38.48
-34.29
-29.19
-23.67
-18.11
-12.86
-8.09
-3.87
-0.17
3.07
5.85
8.13
9.84
10.99
11.81
12.62
13.74
15.34
17.31
19.28
20.79
21.41
20.87
19.17
16.54
13.39
10.23
7.54
5.67
4.75
4.60
4.73
4.45
3.13
0.35
-3.82
-8.94
-14.34
-19.42
-23.87
-27.79
-31.67
-36.20
-42.29
-50.93
-62.97
-78.60
-96.72
-114.66
-128.52
-134.22
-128.86
-111.71
-84.36
-50.06
-12.78
23.44
54.63
76.78
85.93
78.93
54.81
16.04
-31.22
-78.14
-115.43
-135.71
-135.17
-113.92
-75.44
-25.26
30.26
84.88
133.14
170.82
195.47
206.75
206.43
197.94
185.40
172.56
161.90
154.28
149.19
145.10
140.17
132.77
122.05
108.15
92.17
75.78
60.59
47.58
36.85
27.79
19.54
11.56
3.91
-2.88
-8.25
-11.98
-14.42
-16.28
-18.26
-20.76
-23.71
-26.79
-29.66
-32.12
-34.08
-35.36
-35.63
-34.44
-31.42
-26.59
-20.43
-13.86
-7.95
-3.54
-1.08
-0.58
-1.70
-3.99
-7.05
-10.52
-14.11
-17.56
-20.59
-22.99
-24.61
-25.41
-25.40
-24.63
-23.17
-21.12
-18.73
-16.29
-14.21
-12.81
-12.25
-12.46
-13.20
-14.17
-15.13
-15.99
-16.81
-17.64
-18.52
-19.39
-20.20
-20.89
-21.47
-21.96
-22.39
-22.86
-23.51
-24.54
-26.17
-28.53
-31.59
-35.07
-38.55
-41.60
-43.89
-45.20
-45.47
-44.71
-42.94
-40.27
-36.82
-32.76
-28.26
-23.44
-18.40
-13.22
-8.03
-3.03
1.49
5.18
7.77
9.11
9.28
8.54
7.20
5.53
3.70
1.74
-0.33
-2.46
-4.51
-6.34
-7.86
-9.12
-10.26
-11.44
-12.69
-13.94
-15.04
-15.89
-16.49
-16.97
-17.46
-18.07
-18.78
-19.53
-20.29
-21.04
-21.83
-22.69
-23.64
-24.62
-25.57
-26.35
-26.86
-26.95
-26.52
-25.47
-23.81
-21.66
-19.21
-16.68
-14.22
-11.93
-9.86
-8.02
-6.45
-5.18
-4.21
-3.46
-2.85
-2.23
-1.51
-0.67
0.27
1.24
2.17
3.01
3.80
4.54
5.22
5.74
5.90
5.52
4.50
2.90
0.86
-1.47
-4.09
-7.03
-10.38
-14.07
-17.88
-21.51
-24.70
-27.35
-29.55
-31.50
-33.42
-35.47
-37.71
-40.07
-42.36
-44.23
-45.27
-45.08
-43.49
-40.67
-37.12
-33.44
-30.15
-27.45
-25.26
-23.28
-21.20
-18.85
-16.24
-13.59
-11.17
-9.15
-7.62
-6.54
-5.84
-5.50
-5.55
-6.03
-6.83
-7.70
-8.28
-8.19
-7.26
-5.60
-3.62
-1.99
-1.42
-2.60
-6.03
-11.90
-19.99
-29.68
-39.99
-49.76
-58.02
-64.34
-69.29
-74.52
-82.53
-95.89
-116.21
-143.13
-173.83
-203.46
-226.34
-237.67
-234.94
-218.57
-191.51
-158.09
-122.67
-88.45
-57.12
-28.89
