10:06:17,-0.00
10:06:17.015625,-0.00
10:06:17.031250,-0.00
10:06:17.046875,-0.00
10:06:17.062500,-0.00
10:06:17.078125,-0.00
10:06:17.093750,-0.00
10:06:17.109375,-0.00
10:06:17.125000,-0.00
10:06:17.140625,-0.00
10:06:17.156250,0.00
10:06:17.171875,0.01
10:06:17.187500,0.01
10:06:17.203125,-0.00
10:06:17.218750,-0.03
10:06:17.234375,-0.05
10:06:17.250000,-0.05
10:06:17.265625,0.00
10:06:17.281250,0.13
10:06:17.296875,0.36
10:06:17.312500,0.66
10:06:17.328125,1.01
10:06:17.343750,1.37
10:06:17.359375,1.72
10:06:17.375000,2.06
10:06:17.390625,2.40
10:06:17.406250,2.79
10:06:17.421875,3.24
10:06:17.437500,3.80
10:06:17.453125,4.42
10:06:17.468750,5.06
10:06:17.484375,5.66
10:06:17.500000,6.20
10:06:17.515625,6.68
10:06:17.531250,7.15
10:06:17.546875,7.68
10:06:17.562500,8.31
10:06:17.578125,9.14
10:06:17.593750,10.09
10:06:17.609375,11.04
10:06:17.625000,11.88
10:06:17.640625,12.56
10:06:17.656250,13.14
10:06:17.671875,13.76
10:06:17.687500,14.65
10:06:17.703125,15.96
10:06:17.718750,17.91
10:06:17.734375,20.32
10:06:17.750000,22.90
10:06:17.765625,25.38
10:06:17.781250,27.58
10:06:17.796875,29.57
10:06:17.812500,31.68
10:06:17.828125,34.32
10:06:17.843750,37.81
10:06:17.859375,42.54
10:06:17.875000,48.15
10:06:17.890625,54.10
10:06:17.906250,59.83
10:06:17.921875,64.97
10:06:17.937500,69.58
10:06:17.953125,74.14
10:06:17.968750,79.34
10:06:17.984375,85.71
10:06:18,93.76
10:06:18.015625,103.00
10:06:18.031250,112.62
10:06:18.046875,121.73
10:06:18.062500,129.77
10:06:18.078125,136.75
10:06:18.093750,143.30
10:06:18.109375,150.75
10:06:18.125000,157.77
10:06:18.140625,166.64
10:06:18.156250,177.95
10:06:18.171875,191.79
10:06:18.187500,206.97
10:06:18.203125,220.57
10:06:18.218750,228.25
10:06:18.234375,225.36
10:06:18.250000,208.53
10:06:18.265625,176.87
10:06:18.281250,132.76
10:06:18.296875,80.05
10:06:18.312500,23.07
10:06:18.328125,-34.94
10:06:18.343750,-92.44
10:06:18.359375,-149.16
10:06:18.375000,-205.23
10:06:18.390625,-260.37
10:06:18.406250,-313.74
10:06:18.421875,-363.87
10:06:18.437500,-409.83
10:06:18.453125,-450.91
10:06:18.468750,-486.50
10:06:18.484375,-515.74
10:06:18.500000,-537.23
10:06:18.515625,-549.22
10:06:18.531250,-549.96
10:06:18.546875,-538.37
10:06:18.562500,-514.21
10:06:18.578125,-478.67
10:06:18.593750,-433.88
10:06:18.609375,-382.45
10:06:18.625000,-327.02
10:06:18.640625,-269.84
10:06:18.656250,-212.63
10:06:18.671875,-156.66
10:06:18.687500,-102.95
10:06:18.703125,-52.37
10:06:18.718750,-5.90
10:06:18.734375,35.58
10:06:18.750000,71.43
10:06:18.765625,101.35
10:06:18.781250,125.50
10:06:18.796875,144.38
10:06:18.812500,158.69
10:06:18.828125,169.15
10:06:18.843750,176.37
10:06:18.859375,180.75
10:06:18.875000,182.57
10:06:18.890625,182.07
10:06:18.906250,179.51
10:06:18.921875,175.23
10:06:18.937500,169.65
10:06:18.953125,163.18
10:06:18.968750,156.15
10:06:18.984375,148.81
10:06:19,141.30
10:06:19.015625,133.69
10:06:19.031250,126.02
10:06:19.046875,118.33
10:06:19.062500,110.69
10:06:19.078125,103.16
10:06:19.093750,95.80
10:06:19.109375,88.68
10:06:19.125000,81.83
10:06:19.140625,75.25
10:06:19.156250,68.95
10:06:19.171875,62.95
10:06:19.187500,57.25
10:06:19.203125,51.86
10:06:19.218750,46.78
10:06:19.234375,42.03
10:06:19.250000,37.59
10:06:19.265625,33.45
10:06:19.281250,29.61
10:06:19.296875,26.07
10:06:19.312500,22.81
10:06:19.328125,19.83
10:06:19.343750,17.11
10:06:19.359375,14.67
10:06:19.375000,12.48
10:06:19.390625,10.54
10:06:19.406250,8.83
10:06:19.421875,7.35
10:06:19.437500,6.07
10:06:19.453125,4.97
10:06:19.468750,4.05
10:06:19.484375,3.27
10:06:19.500000,2.62
10:06:19.515625,2.09
10:06:19.531250,1.65
10:06:19.546875,1.30
10:06:19.562500,1.01
10:06:19.578125,0.79
10:06:19.593750,0.61
10:06:19.609375,0.48
10:06:19.625000,0.37
10:06:19.640625,0.29
10:06:19.656250,0.22
10:06:19.671875,0.18
10:06:19.687500,0.14
10:06:19.703125,0.12
10:06:19.718750,0.12
10:06:19.734375,0.14
10:06:19.750000,0.16
10:06:19.765625,0.17
10:06:19.781250,0.16
10:06:19.796875,0.12
10:06:19.812500,0.07
10:06:19.828125,0.01
10:06:19.843750,-0.03
10:06:19.859375,-0.04
10:06:19.875000,-0.01
10:06:19.890625,0.04
10:06:19.906250,0.10
10:06:19.921875,0.12
10:06:19.937500,0.12
10:06:19.953125,0.08
10:06:19.968750,0.04
10:06:19.984375,0.03
10:06:20,0.06
10:06:20.015625,0.14
10:06:20.031250,0.24
10:06:20.046875,0.32
10:06:20.062500,0.33
10:06:20.078125,0.26
10:06:20.093750,0.12
10:06:20.109375,-0.02
10:06:20.125000,-0.09
10:06:20.140625,-0.03
10:06:20.156250,0.18
10:06:20.171875,0.44
10:06:20.187500,0.66
10:06:20.203125,0.71
10:06:20.218750,0.56
10:06:20.234375,0.24
10:06:20.250000,-0.11
10:06:20.265625,-0.29
10:06:20.281250,-0.16
10:06:20.296875,0.27
10:06:20.312500,0.87
10:06:20.328125,1.37
10:06:20.343750,1.52
10:06:20.359375,1.23
10:06:20.375000,0.58
10:06:20.390625,-0.14
10:06:20.406250,-0.57
10:06:20.421875,-0.44
10:06:20.437500,0.26
10:06:20.453125,1.26
10:06:20.468750,2.14
10:06:20.484375,2.46
10:06:20.500000,2.06
10:06:20.515625,1.07
10:06:20.531250,-0.05
10:06:20.546875,-0.79
10:06:20.562500,-0.77
10:06:20.578125,0.05
10:06:20.593750,1.36
10:06:20.609375,2.63
10:06:20.625000,3.31
10:06:20.640625,2.96
10:06:20.656250,1.19
10:06:20.671875,-2.21
10:06:20.687500,-7.06
10:06:20.703125,-12.54
10:06:20.718750,-17.08
10:06:20.734375,-18.85
10:06:20.750000,-16.49
10:06:20.765625,-9.98
10:06:20.781250,-0.81
10:06:20.796875,8.48
10:06:20.812500,15.33
10:06:20.828125,18.29
10:06:20.843750,17.43
10:06:20.859375,14.05
10:06:20.875000,9.70
10:06:20.890625,5.41
10:06:20.906250,1.43
10:06:20.921875,-2.51
10:06:20.937500,-6.60
10:06:20.953125,-10.52
10:06:20.968750,-13.52
10:06:20.984375,-14.87
10:06:21,-14.24
10:06:21.015625,-11.79
10:06:21.031250,-8.08
10:06:21.046875,-3.73
10:06:21.062500,0.68
10:06:21.078125,4.77
10:06:21.093750,8.25
10:06:21.109375,10.89
10:06:21.125000,12.52
10:06:21.140625,13.07
10:06:21.156250,12.60
10:06:21.171875,11.27
10:06:21.187500,9.32
10:06:21.203125,7.06
10:06:21.218750,4.72
10:06:21.234375,2.55
10:06:21.250000,0.72
10:06:21.265625,-0.62
10:06:21.281250,-1.42
10:06:21.296875,-1.73
10:06:21.312500,-1.70
10:06:21.328125,-1.48
10:06:21.343750,-1.19
10:06:21.359375,-0.82
10:06:21.375000,-0.33
10:06:21.390625,0.36
10:06:21.406250,1.22
10:06:21.421875,2.13
10:06:21.437500,2.86
10:06:21.453125,3.18
10:06:21.468750,2.92
10:06:21.484375,2.02
10:06:21.500000,0.58
10:06:21.515625,-1.18
10:06:21.531250,-2.94
10:06:21.546875,-4.37
10:06:21.562500,-5.29
10:06:21.578125,-5.74
10:06:21.593750,-5.98
10:06:21.609375,-6.41
10:06:21.625000,-7.36
10:06:21.640625,-9.02
10:06:21.656250,-11.27
10:06:21.671875,-13.67
10:06:21.687500,-15.77
10:06:21.703125,-17.22
10:06:21.718750,-17.99
10:06:21.734375,-18.39
10:06:21.750000,-19.04
10:06:21.765625,-20.27
10:06:21.781250,-22.55
10:06:21.796875,-26.09
10:06:21.812500,-30.62
10:06:21.828125,-35.31
10:06:21.843750,-38.81
10:06:21.859375,-39.67
10:06:21.875000,-36.70
10:06:21.890625,-29.38
10:06:21.906250,-18.13
10:06:21.921875,-4.23
10:06:21.937500,10.63
10:06:21.953125,24.86
10:06:21.968750,37.40
10:06:21.984375,47.84
10:06:22,56.36
10:06:22.015625,63.39
10:06:22.031250,69.31
10:06:22.046875,74.29
10:06:22.062500,78.27
10:06:22.078125,81.04
10:06:22.093750,82.46
10:06:22.109375,82.42
10:06:22.125000,80.95
10:06:22.140625,78.27
10:06:22.156250,74.75
10:06:22.171875,71.02
10:06:22.187500,67.79
10:06:22.203125,65.57
10:06:22.218750,64.60
10:06:22.234375,64.63
10:06:22.250000,65.01
10:06:22.265625,64.84
10:06:22.281250,63.28
10:06:22.296875,59.68
10:06:22.312500,53.75
10:06:22.328125,45.62
10:06:22.343750,35.84
10:06:22.359375,25.23
10:06:22.375000,14.78
10:06:22.390625,5.34
10:06:22.406250,-2.61
10:06:22.421875,-8.97
10:06:22.437500,-13.94
10:06:22.453125,-17.68
10:06:22.468750,-20.16
10:06:22.484375,-21.20
10:06:22.500000,-20.70
10:06:22.515625,-18.93
10:06:22.531250,-16.61
10:06:22.546875,-14.63
10:06:22.562500,-13.70
10:06:22.578125,-14.07
10:06:22.593750,-15.50
10:06:22.609375,-17.65
10:06:22.625000,-20.43
10:06:22.640625,-24.20
10:06:22.656250,-29.68
10:06:22.671875,-37.42
10:06:22.687500,-47.43
10:06:22.703125,-58.87
10:06:22.718750,-70.24
10:06:22.734375,-79.67
10:06:22.750000,-85.36
10:06:22.765625,-86.08
10:06:22.781250,-81.34
10:06:22.796875,-71.60
10:06:22.812500,-58.16
10:06:22.828125,-42.87
10:06:22.843750,-27.66
10:06:22.859375,-14.05
10:06:22.875000,-2.84
10:06:22.890625,5.92
10:06:22.906250,12.68
10:06:22.921875,18.04
10:06:22.937500,22.47
10:06:22.953125,26.25
10:06:22.968750,29.51
10:06:22.984375,32.40
10:06:23,35.06
10:06:23.015625,37.63
10:06:23.031250,40.12
10:06:23.046875,42.34
10:06:23.062500,44.07
10:06:23.078125,45.12
10:06:23.093750,45.57
10:06:23.109375,45.73
10:06:23.125000,46.06
10:06:23.140625,46.90
10:06:23.156250,48.30
10:06:23.171875,49.79
10:06:23.187500,50.62
10:06:23.203125,49.95
10:06:23.218750,47.28
10:06:23.234375,42.61
10:06:23.250000,36.57
10:06:23.265625,30.06
10:06:23.281250,24.01
10:06:23.296875,19.00
10:06:23.312500,15.14
10:06:23.328125,12.18
10:06:23.343750,9.62
10:06:23.359375,6.94
10:06:23.375000,3.76
10:06:23.390625,-0.07
10:06:23.406250,-4.47
10:06:23.421875,-9.21
10:06:23.437500,-13.95
10:06:23.453125,-18.41
10:06:23.468750,-22.43
10:06:23.484375,-25.94
10:06:23.500000,-29.00
10:06:23.515625,-31.61
10:06:23.531250,-33.82
10:06:23.546875,-35.61
10:06:23.562500,-37.04
10:06:23.578125,-38.23
10:06:23.593750,-39.37
10:06:23.609375,-40.69
10:06:23.625000,-42.38
10:06:23.640625,-44.60
10:06:23.656250,-47.53
10:06:23.671875,-51.41
10:06:23.687500,-56.47
10:06:23.703125,-62.75
10:06:23.718750,-69.93
10:06:23.734375,-77.15
10:06:23.750000,-83.09
10:06:23.765625,-86.30
10:06:23.781250,-85.63
10:06:23.796875,-80.62
10:06:23.812500,-71.69
10:06:23.828125,-59.99
10:06:23.843750,-46.97
10:06:23.859375,-34.02
10:06:23.875000,-22.13
10:06:23.890625,-11.71
10:06:23.906250,-2.81
10:06:23.921875,4.77
10:06:23.937500,11.25
10:06:23.953125,16.75
10:06:23.968750,21.30
10:06:23.984375,24.88
10:06:24,27.47
10:06:24.015625,29.19
10:06:24.031250,30.23
10:06:24.046875,30.83
10:06:24.062500,31.18
10:06:24.078125,31.42
10:06:24.093750,31.56
10:06:24.109375,31.59
10:06:24.125000,31.47
10:06:24.140625,31.21
10:06:24.156250,30.78
10:06:24.171875,30.13
10:06:24.187500,29.14
10:06:24.203125,27.61
10:06:24.218750,25.45
10:06:24.234375,22.69
10:06:24.250000,19.49
10:06:24.265625,16.11
10:06:24.281250,12.85
10:06:24.296875,9.93
10:06:24.312500,7.44
10:06:24.328125,5.32
10:06:24.343750,3.35
10:06:24.359375,1.25
10:06:24.375000,-1.22
10:06:24.390625,-4.13
10:06:24.406250,-7.37
10:06:24.421875,-10.65
10:06:24.437500,-13.69
10:06:24.453125,-16.32
10:06:24.468750,-18.58
10:06:24.484375,-20.73
10:06:24.500000,-23.16
10:06:24.515625,-26.25
10:06:24.531250,-30.27
10:06:24.546875,-35.33
10:06:24.562500,-41.38
10:06:24.578125,-48.21
10:06:24.593750,-55.56
10:06:24.609375,-63.09
10:06:24.625000,-70.47
10:06:24.640625,-77.44
10:06:24.656250,-83.72
10:06:24.671875,-88.95
10:06:24.687500,-92.46
10:06:24.703125,-93.26
10:06:24.718750,-90.21
10:06:24.734375,-82.44
10:06:24.750000,-69.83
10:06:24.765625,-53.34
10:06:24.781250,-34.88
10:06:24.796875,-16.83
10:06:24.812500,-1.25
10:06:24.828125,10.72
10:06:24.843750,19.04
10:06:24.859375,24.48
10:06:24.875000,28.10
10:06:24.890625,30.72
10:06:24.906250,32.68
10:06:24.921875,33.97
10:06:24.937500,34.54
10:06:24.953125,34.48
10:06:24.968750,34.06
10:06:24.984375,33.71
10:06:25,33.74
10:06:25.015625,34.29
10:06:25.031250,35.27
10:06:25.046875,36.45
10:06:25.062500,37.58
10:06:25.078125,38.45
10:06:25.093750,39.01
10:06:25.109375,39.24
10:06:25.125000,39.18
10:06:25.140625,38.72
10:06:25.156250,37.66
10:06:25.171875,35.69
10:06:25.187500,32.64
10:06:25.203125,28.52
10:06:25.218750,23.66
10:06:25.234375,18.52
10:06:25.250000,13.45
10:06:25.265625,8.60
10:06:25.281250,3.77
10:06:25.296875,-1.32
10:06:25.312500,-6.89
10:06:25.328125,-12.88
10:06:25.343750,-18.98
10:06:25.359375,-24.82
10:06:25.375000,-30.00
10:06:25.390625,-34.34
10:06:25.406250,-37.84
10:06:25.421875,-40.69
10:06:25.437500,-43.21
10:06:25.453125,-45.82
10:06:25.468750,-48.97
10:06:25.484375,-53.01
10:06:25.500000,-58.04
10:06:25.515625,-63.74
10:06:25.531250,-69.34
10:06:25.546875,-73.69
10:06:25.562500,-75.53
10:06:25.578125,-73.85
10:06:25.593750,-68.19
10:06:25.609375,-58.89
10:06:25.625000,-46.91
10:06:25.640625,-33.65
10:06:25.656250,-20.49
10:06:25.671875,-8.45
10:06:25.687500,2.01
10:06:25.703125,10.96
10:06:25.718750,18.71
10:06:25.734375,25.50
10:06:25.750000,31.34
10:06:25.765625,36.01
10:06:25.781250,39.29
10:06:25.796875,41.11
10:06:25.812500,41.66
10:06:25.828125,41.30
10:06:25.843750,40.41
10:06:25.859375,39.25
10:06:25.875000,37.94
10:06:25.890625,36.56
10:06:25.906250,35.20
10:06:25.921875,33.94
10:06:25.937500,32.79
10:06:25.953125,31.61
10:06:25.968750,30.08
10:06:25.984375,27.90
10:06:26,24.84
10:06:26.015625,20.98
10:06:26.031250,16.57
10:06:26.046875,11.92
10:06:26.062500,7.32
10:06:26.078125,2.91
10:06:26.093750,-1.23
10:06:26.109375,-5.02
10:06:26.125000,-8.37
10:06:26.140625,-11.16
10:06:26.156250,-13.43
10:06:26.171875,-15.27
10:06:26.187500,-16.95
10:06:26.203125,-18.73
10:06:26.218750,-20.75
10:06:26.234375,-22.97
10:06:26.250000,-25.17
10:06:26.265625,-27.15
10:06:26.281250,-28.80
10:06:26.296875,-30.30
10:06:26.312500,-32.01
10:06:26.328125,-34.38
10:06:26.343750,-37.71
10:06:26.359375,-42.10
10:06:26.375000,-47.32
10:06:26.390625,-52.83
10:06:26.406250,-57.89
10:06:26.421875,-61.59
10:06:26.437500,-63.03
10:06:26.453125,-61.47
10:06:26.468750,-56.61
10:06:26.484375,-48.70
10:06:26.500000,-38.47
10:06:26.515625,-27.02
10:06:26.531250,-15.48
10:06:26.546875,-4.70
10:06:26.562500,4.81
10:06:26.578125,12.90
10:06:26.593750,19.61
10:06:26.609375,25.04
10:06:26.625000,29.30
10:06:26.640625,32.50
10:06:26.656250,34.74
10:06:26.671875,36.23
10:06:26.687500,37.17
10:06:26.703125,37.78
10:06:26.718750,38.21
10:06:26.734375,38.54
10:06:26.750000,38.75
10:06:26.765625,38.80
10:06:26.781250,38.65
10:06:26.796875,38.29
10:06:26.812500,37.81
10:06:26.828125,37.30
10:06:26.843750,36.79
10:06:26.859375,36.22
10:06:26.875000,35.45
10:06:26.890625,34.34
10:06:26.906250,32.78
10:06:26.921875,30.74
10:06:26.937500,28.29
10:06:26.953125,25.49
10:06:26.968750,22.40
10:06:26.984375,18.99
10:06:27,15.18
10:06:27.015625,10.87
10:06:27.031250,6.05
10:06:27.046875,0.88
10:06:27.062500,-4.39
10:06:27.078125,-9.39
10:06:27.093750,-13.92
10:06:27.109375,-18.03
10:06:27.125000,-22.05
10:06:27.140625,-26.46
10:06:27.156250,-31.72
10:06:27.171875,-38.00
10:06:27.187500,-45.08
10:06:27.203125,-52.34
10:06:27.218750,-58.81
10:06:27.234375,-63.45
10:06:27.250000,-65.27
10:06:27.265625,-63.65
10:06:27.281250,-58.39
10:06:27.296875,-49.88
10:06:27.312500,-38.97
10:06:27.328125,-26.78
10:06:27.343750,-14.45
10:06:27.359375,-2.90
10:06:27.375000,7.28
10:06:27.390625,15.87
10:06:27.406250,22.88
10:06:27.421875,28.46
10:06:27.437500,32.85
10:06:27.453125,36.23
10:06:27.468750,38.79
10:06:27.484375,40.62
10:06:27.500000,41.80
10:06:27.515625,42.39
10:06:27.531250,42.46
10:06:27.546875,42.17
10:06:27.562500,41.69
10:06:27.578125,41.25
10:06:27.593750,41.05
10:06:27.609375,41.18
10:06:27.625000,41.63
10:06:27.640625,42.32
10:06:27.656250,43.09
10:06:27.671875,43.79
10:06:27.687500,44.28
10:06:27.703125,44.49
10:06:27.718750,44.36
10:06:27.734375,43.81
10:06:27.750000,42.82
10:06:27.765625,41.31
10:06:27.781250,39.27
10:06:27.796875,36.72
10:06:27.812500,33.75
10:06:27.828125,30.52
10:06:27.843750,27.17
10:06:27.859375,23.84
10:06:27.875000,20.57
10:06:27.890625,17.37
10:06:27.906250,14.21
10:06:27.921875,11.04
10:06:27.937500,7.89
10:06:27.953125,4.79
10:06:27.968750,1.76
10:06:27.984375,-1.22
10:06:28,-4.21
10:06:28.015625,-7.31
10:06:28.031250,-10.63
10:06:28.046875,-14.23
10:06:28.062500,-18.13
10:06:28.078125,-22.26
10:06:28.093750,-26.46
10:06:28.109375,-30.48
10:06:28.125000,-34.07
10:06:28.140625,-37.05
10:06:28.156250,-39.47
10:06:28.171875,-41.60
10:06:28.187500,-43.95
10:06:28.203125,-47.07
10:06:28.218750,-51.37
10:06:28.234375,-56.94
10:06:28.250000,-63.43
10:06:28.265625,-70.00
10:06:28.281250,-75.52
10:06:28.296875,-78.73
10:06:28.312500,-78.55
10:06:28.328125,-74.34
10:06:28.343750,-66.12
10:06:28.359375,-54.55
10:06:28.375000,-40.85
10:06:28.390625,-26.43
10:06:28.406250,-12.63
10:06:28.421875,-0.40
10:06:28.437500,9.74
10:06:28.453125,17.78
10:06:28.468750,23.98
10:06:28.484375,28.74
10:06:28.500000,32.41
10:06:28.515625,35.27
10:06:28.531250,37.42
10:06:28.546875,38.91
10:06:28.562500,39.77
10:06:28.578125,40.08
10:06:28.593750,39.99
10:06:28.609375,39.72
10:06:28.625000,39.46
10:06:28.640625,39.37
10:06:28.656250,39.53
10:06:28.671875,39.95
10:06:28.687500,40.59
10:06:28.703125,41.41
10:06:28.718750,42.33
10:06:28.734375,43.21
10:06:28.750000,43.89
10:06:28.765625,44.19
10:06:28.781250,43.99
10:06:28.796875,43.24
10:06:28.812500,41.93
10:06:28.828125,40.11
10:06:28.843750,37.83
10:06:28.859375,35.18
10:06:28.875000,32.34
10:06:28.890625,29.46
10:06:28.906250,26.72
10:06:28.921875,24.17
10:06:28.937500,21.77
10:06:28.953125,19.37
10:06:28.968750,16.81
10:06:28.984375,13.96
10:06:29,10.85
10:06:29.015625,7.62
10:06:29.031250,4.50
10:06:29.046875,1.70
10:06:29.062500,-0.67
10:06:29.078125,-2.64
10:06:29.093750,-4.40
10:06:29.109375,-6.22
10:06:29.125000,-8.40
10:06:29.140625,-11.06
10:06:29.156250,-14.17
10:06:29.171875,-17.49
10:06:29.187500,-20.68
10:06:29.203125,-23.48
10:06:29.218750,-25.86
10:06:29.234375,-28.02
10:06:29.250000,-30.36
10:06:29.265625,-33.35
10:06:29.281250,-37.33
10:06:29.296875,-42.47
10:06:29.312500,-48.66
10:06:29.328125,-55.49
10:06:29.343750,-62.15
10:06:29.359375,-67.55
10:06:29.375000,-70.47
10:06:29.390625,-69.86
10:06:29.406250,-65.21
10:06:29.421875,-56.74
10:06:29.437500,-45.42
10:06:29.453125,-32.64
10:06:29.468750,-19.82
10:06:29.484375,-8.07
10:06:29.500000,1.95
10:06:29.515625,10.05
10:06:29.531250,16.27
10:06:29.546875,20.76
10:06:29.562500,23.75
10:06:29.578125,25.49
10:06:29.593750,26.29
10:06:29.609375,26.46
10:06:29.625000,26.28
10:06:29.640625,25.95
10:06:29.656250,25.61
10:06:29.671875,25.39
10:06:29.687500,25.45
10:06:29.703125,25.98
10:06:29.718750,27.14
10:06:29.734375,29.01
10:06:29.750000,31.52
10:06:29.765625,34.46
10:06:29.781250,37.47
10:06:29.796875,40.13
10:06:29.812500,42.07
10:06:29.828125,42.96
10:06:29.843750,42.68
10:06:29.859375,41.26
10:06:29.875000,38.95
10:06:29.890625,36.12
10:06:29.906250,33.14
10:06:29.921875,30.29
10:06:29.937500,27.64
10:06:29.953125,25.12
10:06:29.968750,22.58
10:06:29.984375,19.93
10:06:30,17.12
10:06:30.015625,14.21
10:06:30.031250,11.24
10:06:30.046875,8.22
10:06:30.062500,5.03
10:06:30.078125,1.58
10:06:30.093750,-2.24
10:06:30.109375,-6.47
10:06:30.125000,-11.09
10:06:30.140625,-16.06
10:06:30.156250,-21.28
10:06:30.171875,-26.65
10:06:30.187500,-31.99
10:06:30.203125,-37.10
10:06:30.218750,-41.84
10:06:30.234375,-46.22
10:06:30.250000,-50.46
10:06:30.265625,-55.04
10:06:30.281250,-60.49
10:06:30.296875,-67.24
10:06:30.312500,-75.27
10:06:30.328125,-83.95
10:06:30.343750,-92.03
10:06:30.359375,-97.92
10:06:30.375000,-100.21
10:06:30.390625,-98.11
10:06:30.406250,-91.74
10:06:30.421875,-81.99
10:06:30.437500,-70.20
10:06:30.453125,-57.61
10:06:30.468750,-45.08
10:06:30.484375,-33.07
10:06:30.500000,-21.75
10:06:30.515625,-11.29
10:06:30.531250,-1.81
10:06:30.546875,6.58
10:06:30.562500,13.97
10:06:30.578125,20.54
10:06:30.593750,26.58
10:06:30.609375,32.25
10:06:30.625000,37.57
10:06:30.640625,42.45
10:06:30.656250,46.80
10:06:30.671875,50.69
10:06:30.687500,54.28
10:06:30.703125,57.76
10:06:30.718750,61.22
10:06:30.734375,64.54
10:06:30.750000,67.47
10:06:30.765625,69.68
10:06:30.781250,70.92
10:06:30.796875,71.01
10:06:30.812500,69.94
10:06:30.828125,67.82
10:06:30.843750,64.82
10:06:30.859375,61.14
10:06:30.875000,56.90
10:06:30.890625,52.19
10:06:30.906250,47.05
10:06:30.921875,41.56
10:06:30.937500,35.87
10:06:30.953125,30.12
10:06:30.968750,24.44
10:06:30.984375,18.87
10:06:31,13.37
10:06:31.015625,7.96
10:06:31.031250,2.75
10:06:31.046875,-2.01
10:06:31.062500,-6.03
10:06:31.078125,-9.21
10:06:31.093750,-11.74
10:06:31.109375,-14.13
10:06:31.125000,-16.99
10:06:31.140625,-20.72
10:06:31.156250,-25.36
10:06:31.171875,-30.54
10:06:31.187500,-35.75
10:06:31.203125,-40.65
10:06:31.218750,-45.24
10:06:31.234375,-49.89
10:06:31.250000,-55.14
10:06:31.265625,-61.40
10:06:31.281250,-68.70
10:06:31.296875,-76.55
10:06:31.312500,-84.02
10:06:31.328125,-89.87
10:06:31.343750,-92.82
10:06:31.359375,-91.83
10:06:31.375000,-86.35
10:06:31.390625,-76.52
10:06:31.406250,-63.22
10:06:31.421875,-47.89
10:06:31.437500,-32.19
10:06:31.453125,-17.63
10:06:31.468750,-5.22
10:06:31.484375,4.64
10:06:31.500000,12.10
10:06:31.515625,17.65
10:06:31.531250,21.82
10:06:31.546875,25.09
10:06:31.562500,27.70
10:06:31.578125,29.76
10:06:31.593750,31.24
10:06:31.609375,32.11
10:06:31.625000,32.36
10:06:31.640625,32.10
10:06:31.656250,31.49
10:06:31.671875,30.77
10:06:31.687500,30.20
10:06:31.703125,29.98
10:06:31.718750,30.22
10:06:31.734375,30.89
10:06:31.750000,31.81
10:06:31.765625,32.69
10:06:31.781250,33.16
10:06:31.796875,32.93
10:06:31.812500,31.80
10:06:31.828125,29.78
10:06:31.843750,27.07
10:06:31.859375,24.03
10:06:31.875000,20.98
10:06:31.890625,18.09
10:06:31.906250,15.30
10:06:31.921875,12.21
10:06:31.937500,8.40
10:06:31.953125,3.54
10:06:31.968750,-2.38
10:06:31.984375,-8.98
10:06:32,-15.65
10:06:32.015625,-21.67
10:06:32.031250,-26.54
10:06:32.046875,-30.04
10:06:32.062500,-32.25
10:06:32.078125,-33.42
10:06:32.093750,-33.85
10:06:32.109375,-33.83
10:06:32.125000,-33.54
10:06:32.140625,-33.17
10:06:32.156250,-32.92
10:06:32.171875,-33.11
10:06:32.187500,-34.00
10:06:32.203125,-35.86
10:06:32.218750,-38.82
10:06:32.234375,-42.88
10:06:32.250000,-47.95
10:06:32.265625,-53.71
10:06:32.281250,-59.67
10:06:32.296875,-65.00
10:06:32.312500,-68.66
10:06:32.328125,-69.54
10:06:32.343750,-66.74
10:06:32.359375,-59.95
10:06:32.375000,-49.55
10:06:32.390625,-36.55
10:06:32.406250,-22.27
10:06:32.421875,-7.98
10:06:32.437500,5.39
10:06:32.453125,17.32
10:06:32.468750,27.61
10:06:32.484375,36.17
10:06:32.500000,42.83
10:06:32.515625,47.43
10:06:32.531250,49.92
10:06:32.546875,50.49
10:06:32.562500,49.66
10:06:32.578125,48.13
10:06:32.593750,46.54
10:06:32.609375,45.28
10:06:32.625000,44.43
10:06:32.640625,43.81
10:06:32.656250,43.26
10:06:32.671875,42.74
10:06:32.687500,42.41
10:06:32.703125,42.46
10:06:32.718750,43.01
10:06:32.734375,44.00
10:06:32.750000,45.15
10:06:32.765625,46.18
10:06:32.781250,46.83
10:06:32.796875,46.96
10:06:32.812500,46.45
10:06:32.828125,45.18
10:06:32.843750,42.98
10:06:32.859375,39.76
10:06:32.875000,35.57
10:06:32.890625,30.64
10:06:32.906250,25.32
10:06:32.921875,19.95
10:06:32.937500,14.75
10:06:32.953125,9.82
10:06:32.968750,5.20
10:06:32.984375,0.98
10:06:33,-2.74
10:06:33.015625,-5.86
10:06:33.031250,-8.43
10:06:33.046875,-10.76
10:06:33.062500,-13.36
10:06:33.078125,-16.81
10:06:33.093750,-21.55
10:06:33.109375,-27.71
10:06:33.125000,-35.07
10:06:33.140625,-43.22
10:06:33.156250,-51.75
10:06:33.171875,-60.50
10:06:33.187500,-69.63
10:06:33.203125,-79.45
10:06:33.218750,-90.07
10:06:33.234375,-101.05
10:06:33.250000,-111.23
10:06:33.265625,-118.93
10:06:33.281250,-122.55
10:06:33.296875,-121.10
10:06:33.312500,-114.68
10:06:33.328125,-104.59
10:06:33.343750,-92.85
10:06:33.359375,-81.72
10:06:33.375000,-73.08
10:06:33.390625,-68.02
10:06:33.406250,-66.63
10:06:33.421875,-67.91
10:06:33.437500,-69.79
10:06:33.453125,-69.57
10:06:33.468750,-64.55
10:06:33.484375,-52.97
10:06:33.500000,-34.70
10:06:33.515625,-11.52
10:06:33.531250,13.29
10:06:33.546875,35.90
10:06:33.562500,52.99
10:06:33.578125,62.56
10:06:33.593750,64.25
10:06:33.609375,59.26
10:06:33.625000,49.86
10:06:33.640625,38.75
10:06:33.656250,28.39
10:06:33.671875,20.48
10:06:33.687500,15.72
10:06:33.703125,13.89
10:06:33.718750,14.10
10:06:33.734375,15.22
10:06:33.750000,16.05
10:06:33.765625,15.56
10:06:33.781250,13.08
10:06:33.796875,8.67
10:06:33.812500,3.39
10:06:33.828125,-0.70
10:06:33.843750,-1.25
10:06:33.859375,3.35
10:06:33.875000,12.95
10:06:33.890625,25.37
10:06:33.906250,37.05
10:06:33.921875,44.41
10:06:33.937500,45.11
10:06:33.953125,38.80
10:06:33.968750,26.96
10:06:33.984375,12.15
10:06:34,-2.83
10:06:34.015625,-15.59
10:06:34.031250,-24.63
10:06:34.046875,-29.47
10:06:34.062500,-30.53
10:06:34.078125,-28.91
10:06:34.093750,-25.84
10:06:34.109375,-22.05
10:06:34.125000,-17.55
10:06:34.140625,-11.74
10:06:34.156250,-3.99
10:06:34.171875,5.83
10:06:34.187500,17.01
10:06:34.203125,28.28
10:06:34.218750,38.29
10:06:34.234375,46.15
10:06:34.250000,51.63
10:06:34.265625,54.91
10:06:34.281250,56.27
10:06:34.296875,55.86
10:06:34.312500,53.66
10:06:34.328125,49.77
10:06:34.343750,44.70
10:06:34.359375,39.46
10:06:34.375000,35.31
10:06:34.390625,33.35
10:06:34.406250,34.02
10:06:34.421875,36.88
10:06:34.437500,40.84
10:06:34.453125,44.59
10:06:34.468750,47.26
10:06:34.484375,48.73
10:06:34.500000,49.50
10:06:34.515625,50.39
10:06:34.531250,51.96
10:06:34.546875,54.25
10:06:34.562500,56.79
10:06:34.578125,58.84
10:06:34.593750,59.76
10:06:34.609375,59.14
10:06:34.625000,56.88
10:06:34.640625,53.07
10:06:34.656250,47.90
10:06:34.671875,41.58
10:06:34.687500,34.37
10:06:34.703125,26.56
10:06:34.718750,18.49
10:06:34.734375,10.51
10:06:34.750000,2.90
10:06:34.765625,-4.15
10:06:34.781250,-10.60
10:06:34.796875,-16.50
10:06:34.812500,-22.06
10:06:34.828125,-27.55
10:06:34.843750,-33.33
10:06:34.859375,-39.66
10:06:34.875000,-46.56
10:06:34.890625,-53.65
10:06:34.906250,-60.13
10:06:34.921875,-64.82
10:06:34.937500,-66.52
10:06:34.953125,-64.34
10:06:34.968750,-58.02
10:06:34.984375,-48.12
10:06:35,-35.78
10:06:35.015625,-22.45
10:06:35.031250,-9.47
10:06:35.046875,2.26
10:06:35.062500,12.34
10:06:35.078125,20.74
10:06:35.093750,27.60
10:06:35.109375,33.08
10:06:35.125000,37.29
10:06:35.140625,40.23
10:06:35.156250,41.96
10:06:35.171875,42.59
10:06:35.187500,42.38
10:06:35.203125,41.68
10:06:35.218750,40.93
10:06:35.234375,40.41
10:06:35.250000,40.31
10:06:35.265625,40.60
10:06:35.281250,41.17
10:06:35.296875,41.92
10:06:35.312500,42.84
10:06:35.328125,43.98
10:06:35.343750,45.34
10:06:35.359375,46.75
10:06:35.375000,47.90
10:06:35.390625,48.42
10:06:35.406250,48.08
10:06:35.421875,46.82
10:06:35.437500,44.82
10:06:35.453125,42.30
10:06:35.468750,39.45
10:06:35.484375,36.33
10:06:35.500000,32.93
10:06:35.515625,29.28
10:06:35.531250,25.46
10:06:35.546875,21.62
10:06:35.562500,17.89
10:06:35.578125,14.29
10:06:35.593750,10.69
10:06:35.609375,6.86
10:06:35.625000,2.58
10:06:35.640625,-2.29
10:06:35.656250,-7.70
10:06:35.671875,-13.40
10:06:35.687500,-19.01
10:06:35.703125,-24.16
10:06:35.718750,-28.54
10:06:35.734375,-32.06
10:06:35.750000,-34.90
10:06:35.765625,-37.45
10:06:35.781250,-40.28
10:06:35.796875,-43.99
10:06:35.812500,-48.98
10:06:35.828125,-55.28
10:06:35.843750,-62.41
10:06:35.859375,-69.39
10:06:35.875000,-74.89
10:06:35.890625,-77.55
10:06:35.906250,-76.35
10:06:35.921875,-70.84
10:06:35.937500,-61.37
10:06:35.953125,-48.83
10:06:35.968750,-34.51
10:06:35.984375,-19.73
10:06:36,-5.58
10:06:36.015625,7.22
10:06:36.031250,18.32
10:06:36.046875,27.72
10:06:36.062500,35.58
10:06:36.078125,42.12
10:06:36.093750,47.53
10:06:36.109375,51.95
10:06:36.125000,55.44
10:06:36.140625,58.05
10:06:36.156250,59.89
10:06:36.171875,61.07
10:06:36.187500,61.85
10:06:36.203125,62.51
10:06:36.218750,63.37
10:06:36.234375,64.66
10:06:36.250000,66.43
10:06:36.265625,68.59
10:06:36.281250,70.88
10:06:36.296875,72.93
10:06:36.312500,74.46
10:06:36.328125,75.31
10:06:36.343750,75.54
10:06:36.359375,75.31
10:06:36.375000,74.86
10:06:36.390625,74.35
10:06:36.406250,73.86
10:06:36.421875,73.36
10:06:36.437500,72.75
10:06:36.453125,71.89
10:06:36.468750,70.60
10:06:36.484375,68.79
10:06:36.500000,66.39
10:06:36.515625,63.38
10:06:36.531250,59.80
10:06:36.546875,55.69
10:06:36.562500,51.08
10:06:36.578125,45.95
10:06:36.593750,40.28
10:06:36.609375,34.04
10:06:36.625000,27.33
10:06:36.640625,20.23
10:06:36.656250,12.86
10:06:36.671875,5.29
10:06:36.687500,-2.48
10:06:36.703125,-10.37
10:06:36.718750,-18.03
10:06:36.734375,-24.83
10:06:36.750000,-30.02
10:06:36.765625,-33.09
10:06:36.781250,-34.17
10:06:36.796875,-34.11
10:06:36.812500,-34.26
10:06:36.828125,-35.98
10:06:36.843750,-40.07
10:06:36.859375,-46.59
10:06:36.875000,-54.94
10:06:36.890625,-64.31
10:06:36.906250,-73.93
10:06:36.921875,-83.24
10:06:36.937500,-91.70
10:06:36.953125,-98.51
10:06:36.968750,-102.70
10:06:36.984375,-103.21
10:06:37,-99.40
10:06:37.015625,-91.32
10:06:37.031250,-79.79
10:06:37.046875,-66.18
10:06:37.062500,-51.95
10:06:37.078125,-38.29
10:06:37.093750,-25.93
10:06:37.109375,-15.13
10:06:37.125000,-5.83
10:06:37.140625,2.06
10:06:37.156250,8.52
10:06:37.171875,13.41
10:06:37.187500,16.56
10:06:37.203125,17.95
10:06:37.218750,17.89
10:06:37.234375,16.96
10:06:37.250000,15.87
10:06:37.265625,15.20
10:06:37.281250,15.19
10:06:37.296875,15.80
10:06:37.312500,16.76
10:06:37.328125,17.85
10:06:37.343750,18.95
10:06:37.359375,20.05
10:06:37.375000,21.16
10:06:37.390625,22.12
10:06:37.406250,22.65
10:06:37.421875,22.46
10:06:37.437500,21.38
10:06:37.453125,19.53
10:06:37.468750,17.27
10:06:37.484375,15.05
10:06:37.500000,13.20
10:06:37.515625,11.77
10:06:37.531250,10.55
10:06:37.546875,9.17
10:06:37.562500,7.27
10:06:37.578125,4.65
10:06:37.593750,1.30
10:06:37.609375,-2.63
10:06:37.625000,-6.80
10:06:37.640625,-10.79
10:06:37.656250,-14.15
10:06:37.671875,-16.44
10:06:37.687500,-17.47
10:06:37.703125,-17.37
10:06:37.718750,-16.74
10:06:37.734375,-16.49
10:06:37.750000,-17.52
10:06:37.765625,-20.34
10:06:37.781250,-24.83
10:06:37.796875,-30.37
10:06:37.812500,-36.13
10:06:37.828125,-41.63
10:06:37.843750,-46.90
10:06:37.859375,-52.54
10:06:37.875000,-59.30
10:06:37.890625,-67.66
10:06:37.906250,-77.49
10:06:37.921875,-87.94
10:06:37.937500,-97.60
10:06:37.953125,-104.82
10:06:37.968750,-108.04
10:06:37.984375,-106.21
10:06:38,-98.95
10:06:38.015625,-86.76
10:06:38.031250,-70.88
10:06:38.046875,-53.05
10:06:38.062500,-35.15
10:06:38.078125,-18.76
10:06:38.093750,-4.87
10:06:38.109375,6.13
10:06:38.125000,14.40
10:06:38.140625,20.43
10:06:38.156250,24.82
10:06:38.171875,28.10
10:06:38.187500,30.68
10:06:38.203125,32.83
10:06:38.218750,34.68
10:06:38.234375,36.23
10:06:38.250000,37.43
10:06:38.265625,38.18
10:06:38.281250,38.41
10:06:38.296875,38.14
10:06:38.312500,37.54
10:06:38.328125,36.88
10:06:38.343750,36.50
10:06:38.359375,36.69
10:06:38.375000,37.54
10:06:38.390625,38.92
10:06:38.406250,40.53
10:06:38.421875,41.94
10:06:38.437500,42.77
10:06:38.453125,42.76
10:06:38.468750,41.82
10:06:38.484375,39.97
10:06:38.500000,37.35
10:06:38.515625,34.14
10:06:38.531250,30.58
10:06:38.546875,26.89
10:06:38.562500,23.19
10:06:38.578125,19.55
10:06:38.593750,15.96
10:06:38.609375,12.37
10:06:38.625000,8.78
10:06:38.640625,5.24
10:06:38.656250,1.92
10:06:38.671875,-1.02
10:06:38.687500,-3.51
10:06:38.703125,-5.61
10:06:38.718750,-7.53
10:06:38.734375,-9.55
10:06:38.750000,-11.91
10:06:38.765625,-14.73
10:06:38.781250,-17.98
10:06:38.796875,-21.51
10:06:38.812500,-25.18
10:06:38.828125,-28.93
10:06:38.843750,-32.79
10:06:38.859375,-36.81
10:06:38.875000,-41.09
10:06:38.890625,-45.75
10:06:38.906250,-50.89
10:06:38.921875,-56.65
10:06:38.937500,-62.98
10:06:38.953125,-69.55
10:06:38.968750,-75.58
10:06:38.984375,-79.91
10:06:39,-81.28
10:06:39.015625,-78.70
10:06:39.031250,-71.87
10:06:39.046875,-61.32
10:06:39.062500,-48.28
10:06:39.078125,-34.28
10:06:39.093750,-20.73
10:06:39.109375,-8.59
10:06:39.125000,1.68
10:06:39.140625,10.08
10:06:39.156250,16.77
10:06:39.171875,21.91
10:06:39.187500,25.65
10:06:39.203125,28.07
10:06:39.218750,29.31
10:06:39.234375,29.67
10:06:39.250000,29.53
10:06:39.265625,29.26
10:06:39.281250,29.11
10:06:39.296875,29.17
10:06:39.312500,29.33
10:06:39.328125,29.42
10:06:39.343750,29.39
10:06:39.359375,29.37
10:06:39.375000,29.60
10:06:39.390625,30.34
10:06:39.406250,31.70
10:06:39.421875,33.53
10:06:39.437500,35.47
10:06:39.453125,37.08
10:06:39.468750,38.06
10:06:39.484375,38.29
10:06:39.500000,37.88
10:06:39.515625,37.04
10:06:39.531250,35.91
10:06:39.546875,34.51
10:06:39.562500,32.75
10:06:39.578125,30.53
10:06:39.593750,27.86
10:06:39.609375,24.88
10:06:39.625000,21.80
10:06:39.640625,18.79
10:06:39.656250,15.91
10:06:39.671875,13.05
10:06:39.687500,10.09
10:06:39.703125,6.97
10:06:39.718750,3.74
10:06:39.734375,0.53
10:06:39.750000,-2.57
10:06:39.765625,-5.62
10:06:39.781250,-8.79
10:06:39.796875,-12.30
10:06:39.812500,-16.22
10:06:39.828125,-20.48
10:06:39.843750,-24.75
10:06:39.859375,-28.67
10:06:39.875000,-31.97
10:06:39.890625,-34.62
10:06:39.906250,-36.89
10:06:39.921875,-39.28
10:06:39.937500,-42.33
10:06:39.953125,-46.51
10:06:39.968750,-52.10
10:06:39.984375,-59.09
10:06:40,-67.12
10:06:40.015625,-75.46
10:06:40.031250,-82.98
10:06:40.046875,-88.38
10:06:40.062500,-90.41
10:06:40.078125,-88.14
10:06:40.093750,-81.30
10:06:40.109375,-70.40
10:06:40.125000,-56.64
10:06:40.140625,-41.63
10:06:40.156250,-26.97
10:06:40.171875,-13.90
10:06:40.187500,-3.09
10:06:40.203125,5.33
10:06:40.218750,11.60
10:06:40.234375,16.19
10:06:40.250000,19.56
10:06:40.265625,22.11
10:06:40.281250,24.06
10:06:40.296875,25.50
10:06:40.312500,26.40
10:06:40.328125,26.69
10:06:40.343750,26.41
10:06:40.359375,25.69
10:06:40.375000,24.83
10:06:40.390625,24.21
10:06:40.406250,24.16
10:06:40.421875,24.89
10:06:40.437500,26.40
10:06:40.453125,28.58
10:06:40.468750,31.21
10:06:40.484375,34.02
10:06:40.500000,36.73
10:06:40.515625,39.01
10:06:40.531250,40.60
10:06:40.546875,41.34
10:06:40.562500,41.21
10:06:40.578125,40.36
10:06:40.593750,39.07
10:06:40.609375,37.61
10:06:40.625000,36.13
10:06:40.640625,34.68
10:06:40.656250,33.15
10:06:40.671875,31.35
10:06:40.687500,29.05
10:06:40.703125,26.12
10:06:40.718750,22.48
10:06:40.734375,18.25
10:06:40.750000,13.70
10:06:40.765625,9.14
10:06:40.781250,4.88
10:06:40.796875,1.08
10:06:40.812500,-2.30
10:06:40.828125,-5.43
10:06:40.843750,-8.54
10:06:40.859375,-11.79
10:06:40.875000,-15.23
10:06:40.890625,-18.78
10:06:40.906250,-22.31
10:06:40.921875,-25.71
10:06:40.937500,-28.98
10:06:40.953125,-32.19
10:06:40.968750,-35.44
10:06:40.984375,-38.85
10:06:41,-42.52
10:06:41.015625,-46.57
10:06:41.031250,-51.11
10:06:41.046875,-56.23
10:06:41.062500,-61.78
10:06:41.078125,-67.25
10:06:41.093750,-71.63
10:06:41.109375,-73.70
10:06:41.125000,-72.27
10:06:41.140625,-66.71
10:06:41.156250,-57.16
10:06:41.171875,-44.57
10:06:41.187500,-30.33
10:06:41.203125,-15.91
10:06:41.218750,-2.46
10:06:41.234375,9.28
10:06:41.250000,18.94
10:06:41.265625,26.39
10:06:41.281250,31.60
10:06:41.296875,34.63
10:06:41.312500,35.72
10:06:41.328125,35.28
10:06:41.343750,33.83
10:06:41.359375,31.96
10:06:41.375000,30.11
10:06:41.390625,28.63
10:06:41.406250,27.68
10:06:41.421875,27.28
10:06:41.437500,27.42
10:06:41.453125,28.03
10:06:41.468750,29.03
10:06:41.484375,30.30
10:06:41.500000,31.72
10:06:41.515625,33.09
10:06:41.531250,34.19
10:06:41.546875,34.81
10:06:41.562500,34.75
10:06:41.578125,33.92
10:06:41.593750,32.37
10:06:41.609375,30.25
10:06:41.625000,27.83
10:06:41.640625,25.40
10:06:41.656250,23.17
10:06:41.671875,21.17
10:06:41.687500,19.28
10:06:41.703125,17.29
10:06:41.718750,14.94
10:06:41.734375,12.09
10:06:41.750000,8.79
10:06:41.765625,5.19
10:06:41.781250,1.56
10:06:41.796875,-1.89
10:06:41.812500,-5.05
10:06:41.828125,-7.93
10:06:41.843750,-10.69
10:06:41.859375,-13.51
10:06:41.875000,-16.57
10:06:41.890625,-20.02
10:06:41.906250,-23.91
10:06:41.921875,-28.23
10:06:41.937500,-32.82
10:06:41.953125,-37.53
10:06:41.968750,-42.19
10:06:41.984375,-46.80
10:06:42,-51.54
10:06:42.015625,-56.72
10:06:42.031250,-62.68
10:06:42.046875,-69.48
10:06:42.062500,-76.80
10:06:42.078125,-83.83
10:06:42.093750,-89.40
10:06:42.109375,-92.23
10:06:42.125000,-91.28
10:06:42.140625,-86.03
10:06:42.156250,-76.63
10:06:42.171875,-63.86
10:06:42.187500,-48.93
10:06:42.203125,-33.24
10:06:42.218750,-18.06
10:06:42.234375,-4.36
10:06:42.250000,7.29
10:06:42.265625,16.68
10:06:42.281250,23.89
10:06:42.296875,29.16
10:06:42.312500,32.86
10:06:42.328125,35.43
10:06:42.343750,37.26
10:06:42.359375,38.67
10:06:42.375000,39.78
10:06:42.390625,40.56
10:06:42.406250,40.91
10:06:42.421875,40.77
10:06:42.437500,40.23
10:06:42.453125,39.53
10:06:42.468750,38.99
10:06:42.484375,38.88
10:06:42.500000,39.28
10:06:42.515625,40.08
10:06:42.531250,41.05
10:06:42.546875,41.93
10:06:42.562500,42.52
10:06:42.578125,42.67
10:06:42.593750,42.31
10:06:42.609375,41.39
10:06:42.625000,39.88
10:06:42.640625,37.80
10:06:42.656250,35.24
10:06:42.671875,32.39
10:06:42.687500,29.45
10:06:42.703125,26.59
10:06:42.718750,23.83
10:06:42.734375,21.05
10:06:42.750000,18.06
10:06:42.765625,14.74
10:06:42.781250,11.12
10:06:42.796875,7.43
10:06:42.812500,3.97
10:06:42.828125,0.95
10:06:42.843750,-1.62
10:06:42.859375,-3.97
10:06:42.875000,-6.49
10:06:42.890625,-9.54
10:06:42.906250,-13.30
10:06:42.921875,-17.67
10:06:42.937500,-22.35
10:06:42.953125,-26.92
10:06:42.968750,-31.02
10:06:42.984375,-34.52
10:06:43,-37.54
10:06:43.015625,-40.47
10:06:43.031250,-43.84
10:06:43.046875,-48.16
10:06:43.062500,-53.66
10:06:43.078125,-60.13
10:06:43.093750,-66.78
10:06:43.109375,-72.39
10:06:43.125000,-75.56
10:06:43.140625,-75.14
10:06:43.156250,-70.57
10:06:43.171875,-62.02
10:06:43.187500,-50.37
10:06:43.203125,-36.88
10:06:43.218750,-22.96
10:06:43.234375,-9.76
10:06:43.250000,1.89
10:06:43.265625,11.55
10:06:43.281250,19.13
10:06:43.296875,24.75
10:06:43.312500,28.70
10:06:43.328125,31.25
10:06:43.343750,32.71
10:06:43.359375,33.30
10:06:43.375000,33.22
10:06:43.390625,32.68
10:06:43.406250,31.96
10:06:43.421875,31.33
10:06:43.437500,30.97
10:06:43.453125,30.96
10:06:43.468750,31.32
10:06:43.484375,32.01
10:06:43.500000,33.03
10:06:43.515625,34.37
10:06:43.531250,35.95
10:06:43.546875,37.54
10:06:43.562500,38.82
10:06:43.578125,39.40
10:06:43.593750,39.08
10:06:43.609375,37.87
10:06:43.625000,35.97
10:06:43.640625,33.64
10:06:43.656250,31.05
10:06:43.671875,28.20
10:06:43.687500,25.01
10:06:43.703125,21.42
10:06:43.718750,17.48
10:06:43.734375,13.40
10:06:43.750000,9.43
10:06:43.765625,5.73
10:06:43.781250,2.29
10:06:43.796875,-1.05
10:06:43.812500,-4.52
10:06:43.828125,-8.29
10:06:43.843750,-12.36
10:06:43.859375,-16.61
10:06:43.875000,-20.82
10:06:43.890625,-24.86
10:06:43.906250,-28.72
10:06:43.921875,-32.49
10:06:43.937500,-36.28
10:06:43.953125,-40.17
10:06:43.968750,-44.19
10:06:43.984375,-48.47
10:06:44,-53.27
10:06:44.015625,-58.94
10:06:44.031250,-65.66
10:06:44.046875,-73.13
10:06:44.062500,-80.36
10:06:44.078125,-85.83
10:06:44.093750,-87.88
10:06:44.109375,-85.34
10:06:44.125000,-77.95
10:06:44.140625,-66.46
10:06:44.156250,-52.33
10:06:44.171875,-37.21
10:06:44.187500,-22.45
10:06:44.203125,-8.91
10:06:44.218750,2.96
10:06:44.234375,12.94
10:06:44.250000,20.95
10:06:44.265625,26.96
10:06:44.281250,31.14
10:06:44.296875,33.84
10:06:44.312500,35.53
10:06:44.328125,36.66
10:06:44.343750,37.52
10:06:44.359375,38.19
10:06:44.375000,38.65
10:06:44.390625,38.88
10:06:44.406250,38.92
10:06:44.421875,38.94
10:06:44.437500,39.17
10:06:44.453125,39.81
10:06:44.468750,40.97
10:06:44.484375,42.62
10:06:44.500000,44.59
10:06:44.515625,46.57
10:06:44.531250,48.20
10:06:44.546875,49.12
10:06:44.562500,49.04
10:06:44.578125,47.88
10:06:44.593750,45.71
10:06:44.609375,42.79
10:06:44.625000,39.43
10:06:44.640625,35.94
10:06:44.656250,32.50
10:06:44.671875,29.19
10:06:44.687500,25.93
10:06:44.703125,22.59
10:06:44.718750,19.05
10:06:44.734375,15.25
10:06:44.750000,11.24
10:06:44.765625,7.23
10:06:44.781250,3.42
10:06:44.796875,-0.04
10:06:44.812500,-3.15
10:06:44.828125,-6.07
10:06:44.843750,-9.03
10:06:44.859375,-12.29
10:06:44.875000,-16.01
10:06:44.890625,-20.14
10:06:44.906250,-24.51
10:06:44.921875,-28.86
10:06:44.937500,-33.00
10:06:44.953125,-36.87
10:06:44.968750,-40.63
10:06:44.984375,-44.56
10:06:45,-49.01
10:06:45.015625,-54.33
10:06:45.031250,-60.66
10:06:45.046875,-67.84
10:06:45.062500,-75.29
10:06:45.078125,-81.94
10:06:45.093750,-86.40
10:06:45.109375,-87.20
10:06:45.125000,-83.32
10:06:45.140625,-74.48
10:06:45.156250,-61.39
10:06:45.171875,-45.56
10:06:45.187500,-28.93
10:06:45.203125,-13.30
10:06:45.218750,0.13
10:06:45.234375,10.89
10:06:45.250000,19.20
10:06:45.265625,25.65
10:06:45.281250,30.82
10:06:45.296875,35.08
10:06:45.312500,38.55
10:06:45.328125,41.19
10:06:45.343750,43.01
10:06:45.359375,44.11
10:06:45.375000,44.67
10:06:45.390625,44.89
10:06:45.406250,44.85
10:06:45.421875,44.54
10:06:45.437500,43.97
10:06:45.453125,43.29
10:06:45.468750,42.85
10:06:45.484375,43.04
10:06:45.500000,44.10
10:06:45.515625,45.90
10:06:45.531250,47.92
10:06:45.546875,49.45
10:06:45.562500,49.86
10:06:45.578125,48.84
10:06:45.593750,46.53
10:06:45.609375,43.40
10:06:45.625000,39.97
10:06:45.640625,36.69
10:06:45.656250,33.74
10:06:45.671875,31.09
10:06:45.687500,28.57
10:06:45.703125,26.02
10:06:45.718750,23.29
10:06:45.734375,20.31
10:06:45.750000,17.06
10:06:45.765625,13.59
10:06:45.781250,10.04
10:06:45.796875,6.59
10:06:45.812500,3.41
10:06:45.828125,0.56
10:06:45.843750,-2.09
10:06:45.859375,-4.81
10:06:45.875000,-7.92
10:06:45.890625,-11.62
10:06:45.906250,-15.85
10:06:45.921875,-20.36
10:06:45.937500,-24.75
10:06:45.953125,-28.71
10:06:45.968750,-32.15
10:06:45.984375,-35.24
10:06:46,-38.34
10:06:46.015625,-41.88
10:06:46.031250,-46.23
10:06:46.046875,-51.50
10:06:46.062500,-57.49
10:06:46.078125,-63.60
10:06:46.093750,-68.90
10:06:46.109375,-72.20
10:06:46.125000,-72.39
10:06:46.140625,-68.68
10:06:46.156250,-60.90
10:06:46.171875,-49.55
10:06:46.187500,-35.79
10:06:46.203125,-21.06
10:06:46.218750,-6.74
10:06:46.234375,6.05
10:06:46.250000,16.72
10:06:46.265625,25.09
10:06:46.281250,31.29
10:06:46.296875,35.61
10:06:46.312500,38.36
10:06:46.328125,39.77
10:06:46.343750,40.05
10:06:46.359375,39.39
10:06:46.375000,38.09
10:06:46.390625,36.51
10:06:46.406250,34.99
10:06:46.421875,33.86
10:06:46.437500,33.29
10:06:46.453125,33.30
10:06:46.468750,33.78
10:06:46.484375,34.59
10:06:46.500000,35.61
10:06:46.515625,36.78
10:06:46.531250,38.03
10:06:46.546875,39.28
10:06:46.562500,40.35
10:06:46.578125,41.02
10:06:46.593750,41.11
10:06:46.609375,40.50
10:06:46.625000,39.20
10:06:46.640625,37.36
10:06:46.656250,35.18
10:06:46.671875,32.83
10:06:46.687500,30.40
10:06:46.703125,27.85
10:06:46.718750,25.05
10:06:46.734375,21.90
10:06:46.750000,18.36
10:06:46.765625,14.55
10:06:46.781250,10.71
10:06:46.796875,7.04
10:06:46.812500,3.72
10:06:46.828125,0.71
10:06:46.843750,-2.12
10:06:46.859375,-5.01
10:06:46.875000,-8.16
10:06:46.890625,-11.65
10:06:46.906250,-15.45
10:06:46.921875,-19.45
10:06:46.937500,-23.51
10:06:46.953125,-27.50
10:06:46.968750,-31.39
10:06:46.984375,-35.21
10:06:47,-39.10
10:06:47.015625,-43.26
10:06:47.031250,-47.89
10:06:47.046875,-53.20
10:06:47.062500,-59.31
10:06:47.078125,-66.13
10:06:47.093750,-73.29
10:06:47.109375,-80.01
10:06:47.125000,-85.21
10:06:47.140625,-87.64
10:06:47.156250,-86.23
10:06:47.171875,-80.44
10:06:47.187500,-70.41
10:06:47.203125,-57.02
10:06:47.218750,-41.66
10:06:47.234375,-25.94
10:06:47.250000,-11.28
10:06:47.265625,1.32
10:06:47.281250,11.39
10:06:47.296875,18.94
10:06:47.312500,24.40
10:06:47.328125,28.47
10:06:47.343750,31.91
10:06:47.359375,35.34
10:06:47.375000,39.00
10:06:47.390625,42.81
10:06:47.406250,46.33
10:06:47.421875,49.10
10:06:47.437500,50.73
10:06:47.453125,51.19
10:06:47.468750,50.68
10:06:47.484375,49.61
10:06:47.500000,48.38
10:06:47.515625,47.29
10:06:47.531250,46.51
10:06:47.546875,46.07
10:06:47.562500,45.92
10:06:47.578125,45.93
10:06:47.593750,45.98
10:06:47.609375,45.90
10:06:47.625000,45.51
10:06:47.640625,44.67
10:06:47.656250,43.31
10:06:47.671875,41.37
10:06:47.687500,38.86
10:06:47.703125,35.83
10:06:47.718750,32.38
10:06:47.734375,28.70
10:06:47.750000,24.98
10:06:47.765625,21.42
10:06:47.781250,18.12
10:06:47.796875,15.07
10:06:47.812500,12.12
10:06:47.828125,9.08
10:06:47.843750,5.86
10:06:47.859375,2.47
10:06:47.875000,-0.95
10:06:47.890625,-4.22
10:06:47.906250,-7.20
10:06:47.921875,-9.89
10:06:47.937500,-12.42
10:06:47.953125,-15.06
10:06:47.968750,-18.02
10:06:47.984375,-21.42
10:06:48,-25.25
10:06:48.015625,-29.31
10:06:48.031250,-33.39
10:06:48.046875,-37.27
10:06:48.062500,-40.85
10:06:48.078125,-44.20
10:06:48.093750,-47.62
10:06:48.109375,-51.46
10:06:48.125000,-56.14
10:06:48.140625,-61.79
10:06:48.156250,-68.21
10:06:48.171875,-74.67
10:06:48.187500,-80.05
10:06:48.203125,-83.03
10:06:48.218750,-82.46
10:06:48.234375,-77.71
10:06:48.250000,-68.86
10:06:48.265625,-56.69
10:06:48.281250,-42.53
10:06:48.296875,-27.84
10:06:48.312500,-13.97
10:06:48.328125,-1.80
10:06:48.343750,8.22
10:06:48.359375,16.09
10:06:48.375000,22.05
10:06:48.390625,26.41
10:06:48.406250,29.48
10:06:48.421875,31.49
10:06:48.437500,32.66
10:06:48.453125,33.16
10:06:48.468750,33.23
10:06:48.484375,33.01
10:06:48.500000,32.61
10:06:48.515625,32.07
10:06:48.531250,31.47
10:06:48.546875,30.96
10:06:48.562500,30.74
10:06:48.578125,31.05
10:06:48.593750,31.98
10:06:48.609375,33.43
10:06:48.625000,35.08
10:06:48.640625,36.56
10:06:48.656250,37.55
10:06:48.671875,37.91
10:06:48.687500,37.65
10:06:48.703125,36.87
10:06:48.718750,35.67
10:06:48.734375,34.15
10:06:48.750000,32.37
10:06:48.765625,30.39
10:06:48.781250,28.31
10:06:48.796875,26.15
10:06:48.812500,23.84
10:06:48.828125,21.24
10:06:48.843750,18.20
10:06:48.859375,14.66
10:06:48.875000,10.76
10:06:48.890625,6.79
10:06:48.906250,3.10
10:06:48.921875,-0.06
10:06:48.937500,-2.64
10:06:48.953125,-4.79
10:06:48.968750,-6.74
10:06:48.984375,-8.80
10:06:49,-11.21
10:06:49.015625,-14.08
10:06:49.031250,-17.46
10:06:49.046875,-21.26
10:06:49.062500,-25.24
10:06:49.078125,-29.14
10:06:49.093750,-32.75
10:06:49.109375,-35.99
10:06:49.125000,-39.04
10:06:49.140625,-42.31
10:06:49.156250,-46.25
10:06:49.171875,-51.21
10:06:49.187500,-57.15
10:06:49.203125,-63.59
10:06:49.218750,-69.63
10:06:49.234375,-74.12
10:06:49.250000,-75.95
10:06:49.265625,-74.34
10:06:49.281250,-68.98
10:06:49.296875,-60.11
10:06:49.312500,-48.46
10:06:49.328125,-35.08
10:06:49.343750,-21.16
10:06:49.359375,-7.83
10:06:49.375000,4.01
10:06:49.390625,13.80
10:06:49.406250,21.34
10:06:49.421875,26.75
10:06:49.437500,30.34
10:06:49.453125,32.44
10:06:49.468750,33.36
10:06:49.484375,33.33
10:06:49.500000,32.58
10:06:49.515625,31.37
10:06:49.531250,30.07
10:06:49.546875,29.05
10:06:49.562500,28.63
10:06:49.578125,28.97
10:06:49.593750,30.03
10:06:49.609375,31.60
10:06:49.625000,33.37
10:06:49.640625,35.07
10:06:49.656250,36.54
10:06:49.671875,37.68
10:06:49.687500,38.40
10:06:49.703125,38.67
10:06:49.718750,38.38
10:06:49.734375,37.42
10:06:49.750000,35.70
10:06:49.765625,33.28
10:06:49.781250,30.31
10:06:49.796875,27.10
10:06:49.812500,23.92
10:06:49.828125,20.97
10:06:49.843750,18.30
10:06:49.859375,15.74
10:06:49.875000,13.11
10:06:49.890625,10.23
10:06:49.906250,7.09
10:06:49.921875,3.76
10:06:49.937500,0.41
10:06:49.953125,-2.83
10:06:49.968750,-5.93
10:06:49.984375,-8.94
10:06:50,-11.97
10:06:50.015625,-15.11
10:06:50.031250,-18.42
10:06:50.046875,-21.86
10:06:50.062500,-25.37
10:06:50.078125,-28.91
10:06:50.093750,-32.49
10:06:50.109375,-36.13
10:06:50.125000,-39.91
10:06:50.140625,-43.89
10:06:50.156250,-48.19
10:06:50.171875,-52.98
10:06:50.187500,-58.42
10:06:50.203125,-64.51
10:06:50.218750,-70.94
10:06:50.234375,-76.97
10:06:50.250000,-81.48
10:06:50.265625,-83.24
10:06:50.281250,-81.26
10:06:50.296875,-75.20
10:06:50.312500,-65.41
10:06:50.328125,-52.92
10:06:50.343750,-39.05
10:06:50.359375,-25.06
10:06:50.375000,-11.96
10:06:50.390625,-0.35
10:06:50.406250,9.47
10:06:50.421875,17.43
10:06:50.437500,23.62
10:06:50.453125,28.23
10:06:50.468750,31.53
10:06:50.484375,33.85
10:06:50.500000,35.52
10:06:50.515625,36.76
10:06:50.531250,37.69
10:06:50.546875,38.30
10:06:50.562500,38.60
10:06:50.578125,38.64
10:06:50.593750,38.61
10:06:50.609375,38.75
10:06:50.625000,39.26
10:06:50.640625,40.19
10:06:50.656250,41.40
10:06:50.671875,42.64
10:06:50.687500,43.68
10:06:50.703125,44.37
10:06:50.718750,44.67
10:06:50.734375,44.53
10:06:50.750000,43.84
10:06:50.765625,42.45
10:06:50.781250,40.21
10:06:50.796875,37.15
10:06:50.812500,33.51
10:06:50.828125,29.65
10:06:50.843750,25.88
10:06:50.859375,22.33
10:06:50.875000,18.93
10:06:50.890625,15.50
10:06:50.906250,11.92
10:06:50.921875,8.22
10:06:50.937500,4.57
10:06:50.953125,1.16
10:06:50.968750,-1.86
10:06:50.984375,-4.47
10:06:51,-6.76
10:06:51.015625,-8.90
10:06:51.031250,-11.15
10:06:51.046875,-13.78
10:06:51.062500,-17.06
10:06:51.078125,-21.06
10:06:51.093750,-25.61
10:06:51.109375,-30.30
10:06:51.125000,-34.69
10:06:51.140625,-38.47
10:06:51.156250,-41.71
10:06:51.171875,-44.72
10:06:51.187500,-47.95
10:06:51.203125,-51.79
10:06:51.218750,-56.40
10:06:51.234375,-61.76
10:06:51.250000,-67.60
10:06:51.265625,-73.37
10:06:51.281250,-78.22
10:06:51.296875,-81.07
10:06:51.312500,-80.84
10:06:51.328125,-76.83
10:06:51.343750,-69.05
10:06:51.359375,-58.25
10:06:51.375000,-45.72
10:06:51.390625,-32.78
10:06:51.406250,-20.42
10:06:51.421875,-9.16
10:06:51.437500,0.87
10:06:51.453125,9.63
10:06:51.468750,17.03
10:06:51.484375,22.86
10:06:51.500000,26.99
10:06:51.515625,29.38
10:06:51.531250,30.23
10:06:51.546875,29.94
10:06:51.562500,29.00
10:06:51.578125,27.91
10:06:51.593750,27.09
10:06:51.609375,26.80
10:06:51.625000,27.15
10:06:51.640625,28.14
10:06:51.656250,29.68
10:06:51.671875,31.61
10:06:51.687500,33.76
10:06:51.703125,35.91
10:06:51.718750,37.84
10:06:51.734375,39.33
10:06:51.750000,40.25
10:06:51.765625,40.60
10:06:51.781250,40.56
10:06:51.796875,40.39
10:06:51.812500,40.32
10:06:51.828125,40.43
10:06:51.843750,40.61
10:06:51.859375,40.59
10:06:51.875000,40.10
10:06:51.890625,38.93
10:06:51.906250,37.04
10:06:51.921875,34.52
10:06:51.937500,31.59
10:06:51.953125,28.49
10:06:51.968750,25.39
10:06:51.984375,22.39
10:06:52,19.42
10:06:52.015625,16.34
10:06:52.031250,12.94
10:06:52.046875,9.06
10:06:52.062500,4.64
10:06:52.078125,-0.22
10:06:52.093750,-5.32
10:06:52.109375,-10.52
10:06:52.125000,-15.75
10:06:52.140625,-21.08
10:06:52.156250,-26.66
10:06:52.171875,-32.69
10:06:52.187500,-39.31
10:06:52.203125,-46.58
10:06:52.218750,-54.38
10:06:52.234375,-62.31
10:06:52.250000,-69.68
10:06:52.265625,-75.47
10:06:52.281250,-78.53
10:06:52.296875,-77.89
10:06:52.312500,-73.05
10:06:52.328125,-64.23
10:06:52.343750,-52.37
10:06:52.359375,-38.89
10:06:52.375000,-25.31
10:06:52.390625,-12.92
10:06:52.406250,-2.51
10:06:52.421875,5.69
10:06:52.437500,11.87
10:06:52.453125,16.43
10:06:52.468750,19.81
10:06:52.484375,22.34
10:06:52.500000,24.24
10:06:52.515625,25.66
10:06:52.531250,26.71
10:06:52.546875,27.51
10:06:52.562500,28.14
10:06:52.578125,28.65
10:06:52.593750,29.07
10:06:52.609375,29.45
10:06:52.625000,29.88
10:06:52.640625,30.51
10:06:52.656250,31.43
10:06:52.671875,32.71
10:06:52.687500,34.25
10:06:52.703125,35.88
10:06:52.718750,37.32
10:06:52.734375,38.32
10:06:52.750000,38.65
10:06:52.765625,38.22
10:06:52.781250,37.03
10:06:52.796875,35.25
10:06:52.812500,33.06
10:06:52.828125,30.68
10:06:52.843750,28.23
10:06:52.859375,25.68
10:06:52.875000,22.91
10:06:52.890625,19.75
10:06:52.906250,16.12
10:06:52.921875,12.08
10:06:52.937500,7.84
10:06:52.953125,3.64
10:06:52.968750,-0.33
10:06:52.984375,-3.97
10:06:53,-7.28
10:06:53.015625,-10.37
10:06:53.031250,-13.40
10:06:53.046875,-16.56
10:06:53.062500,-20.00
10:06:53.078125,-23.84
10:06:53.093750,-28.03
10:06:53.109375,-32.46
10:06:53.125000,-36.98
10:06:53.140625,-41.52
10:06:53.156250,-46.16
10:06:53.171875,-51.10
10:06:53.187500,-56.55
10:06:53.203125,-62.60
10:06:53.218750,-69.06
10:06:53.234375,-75.50
10:06:53.250000,-81.20
10:06:53.265625,-85.24
10:06:53.281250,-86.71
10:06:53.296875,-84.85
10:06:53.312500,-79.30
10:06:53.328125,-70.21
10:06:53.343750,-58.26
10:06:53.359375,-44.53
10:06:53.375000,-30.22
10:06:53.390625,-16.38
10:06:53.406250,-3.80
10:06:53.421875,7.07
10:06:53.437500,16.01
10:06:53.453125,22.97
10:06:53.468750,28.04
10:06:53.484375,31.45
10:06:53.500000,33.51
10:06:53.515625,34.65
10:06:53.531250,35.31
10:06:53.546875,35.82
10:06:53.562500,36.37
10:06:53.578125,36.96
10:06:53.593750,37.59
10:06:53.609375,38.23
10:06:53.625000,38.91
10:06:53.640625,39.75
10:06:53.656250,40.83
10:06:53.671875,42.13
10:06:53.687500,43.54
10:06:53.703125,44.88
10:06:53.718750,45.91
10:06:53.734375,46.46
10:06:53.750000,46.38
10:06:53.765625,45.61
10:06:53.781250,44.14
10:06:53.796875,42.01
10:06:53.812500,39.33
10:06:53.828125,36.30
10:06:53.843750,33.14
10:06:53.859375,30.03
10:06:53.875000,27.07
10:06:53.890625,24.21
10:06:53.906250,21.31
10:06:53.921875,18.24
10:06:53.937500,14.94
10:06:53.953125,11.45
10:06:53.968750,7.82
10:06:53.984375,4.15
10:06:54,0.51
10:06:54.015625,-3.00
10:06:54.031250,-6.35
10:06:54.046875,-9.57
10:06:54.062500,-12.76
10:06:54.078125,-16.13
10:06:54.093750,-19.95
10:06:54.109375,-24.38
10:06:54.125000,-29.44
10:06:54.140625,-34.94
10:06:54.156250,-40.53
10:06:54.171875,-45.89
10:06:54.187500,-50.88
10:06:54.203125,-55.58
10:06:54.218750,-60.28
10:06:54.234375,-65.34
10:06:54.250000,-70.97
10:06:54.265625,-77.13
10:06:54.281250,-83.39
10:06:54.296875,-88.96
10:06:54.312500,-92.78
10:06:54.328125,-93.68
10:06:54.343750,-90.71
10:06:54.359375,-83.40
10:06:54.375000,-71.99
10:06:54.390625,-57.46
10:06:54.406250,-41.32
10:06:54.421875,-25.27
10:06:54.437500,-10.79
10:06:54.453125,1.19
10:06:54.468750,10.43
10:06:54.484375,17.18
10:06:54.500000,22.00
10:06:54.515625,25.50
10:06:54.531250,28.14
10:06:54.546875,30.23
10:06:54.562500,31.87
10:06:54.578125,33.16
10:06:54.593750,34.13
10:06:54.609375,34.85
10:06:54.625000,35.40
10:06:54.640625,35.87
10:06:54.656250,36.41
10:06:54.671875,37.10
10:06:54.687500,38.07
10:06:54.703125,39.35
10:06:54.718750,40.92
10:06:54.734375,42.66
10:06:54.750000,44.33
10:06:54.765625,45.64
10:06:54.781250,46.27
10:06:54.796875,45.97
10:06:54.812500,44.68
10:06:54.828125,42.54
10:06:54.843750,39.84
10:06:54.859375,36.93
10:06:54.875000,34.09
10:06:54.890625,31.41
10:06:54.906250,28.81
10:06:54.921875,26.04
10:06:54.937500,22.86
10:06:54.953125,19.09
10:06:54.968750,14.75
10:06:54.984375,10.06
10:06:55,5.35
10:06:55.015625,0.95
10:06:55.031250,-2.94
10:06:55.046875,-6.36
10:06:55.062500,-9.52
10:06:55.078125,-12.73
10:06:55.093750,-16.25
10:06:55.109375,-20.18
10:06:55.125000,-24.44
10:06:55.140625,-28.82
10:06:55.156250,-33.05
10:06:55.171875,-36.93
10:06:55.187500,-40.34
10:06:55.203125,-43.38
10:06:55.218750,-46.32
10:06:55.234375,-49.51
10:06:55.250000,-53.21
10:06:55.265625,-57.32
10:06:55.281250,-61.24
10:06:55.296875,-63.94
10:06:55.312500,-64.21
10:06:55.328125,-61.06
10:06:55.343750,-54.10
10:06:55.359375,-43.68
10:06:55.375000,-30.78
10:06:55.390625,-16.73
10:06:55.406250,-2.84
10:06:55.421875,9.87
10:06:55.437500,20.80
10:06:55.453125,29.73
10:06:55.468750,36.67
10:06:55.484375,41.81
10:06:55.500000,45.37
10:06:55.515625,47.56
10:06:55.531250,48.61
10:06:55.546875,48.79
10:06:55.562500,48.34
10:06:55.578125,47.49
10:06:55.593750,46.42
10:06:55.609375,45.21
10:06:55.625000,43.95
10:06:55.640625,42.68
10:06:55.656250,41.49
10:06:55.671875,40.43
10:06:55.687500,39.56
10:06:55.703125,38.90
10:06:55.718750,38.44
10:06:55.734375,38.13
10:06:55.750000,37.88
10:06:55.765625,37.59
10:06:55.781250,37.17
10:06:55.796875,36.53
10:06:55.812500,35.60
10:06:55.828125,34.38
10:06:55.843750,32.89
10:06:55.859375,31.20
10:06:55.875000,29.37
10:06:55.890625,27.35
10:06:55.906250,25.04
10:06:55.921875,22.28
10:06:55.937500,18.96
10:06:55.953125,15.12
10:06:55.968750,11.00
10:06:55.984375,6.92
10:06:56,3.25
10:06:56.015625,0.20
10:06:56.031250,-2.26
10:06:56.046875,-4.40
10:06:56.062500,-6.63
10:06:56.078125,-9.34
10:06:56.093750,-12.69
10:06:56.109375,-16.61
10:06:56.125000,-20.85
10:06:56.140625,-25.08
10:06:56.156250,-29.06
10:06:56.171875,-32.73
10:06:56.187500,-36.22
10:06:56.203125,-39.82
10:06:56.218750,-43.94
10:06:56.234375,-48.99
10:06:56.250000,-55.24
10:06:56.265625,-62.65
10:06:56.281250,-70.67
10:06:56.296875,-78.22
10:06:56.312500,-83.90
10:06:56.328125,-86.29
10:06:56.343750,-84.37
10:06:56.359375,-77.84
10:06:56.375000,-67.11
10:06:56.390625,-53.27
10:06:56.406250,-37.73
10:06:56.421875,-21.90
10:06:56.437500,-6.89
10:06:56.453125,6.56
10:06:56.468750,18.15
10:06:56.484375,27.91
10:06:56.500000,36.03
10:06:56.515625,42.74
10:06:56.531250,48.20
10:06:56.546875,52.43
10:06:56.562500,55.43
10:06:56.578125,57.22
10:06:56.593750,58.00
10:06:56.609375,58.09
10:06:56.625000,57.89
10:06:56.640625,57.75
10:06:56.656250,57.91
10:06:56.671875,58.40
10:06:56.687500,59.13
10:06:56.703125,59.85
10:06:56.718750,60.27
10:06:56.734375,60.15
10:06:56.750000,59.31
10:06:56.765625,57.65
10:06:56.781250,55.17
10:06:56.796875,51.86
10:06:56.812500,47.72
10:06:56.828125,42.74
10:06:56.843750,36.98
10:06:56.859375,30.63
10:06:56.875000,24.02
10:06:56.890625,17.56
10:06:56.906250,11.60
10:06:56.921875,6.27
10:06:56.937500,1.44
10:06:56.953125,-3.15
10:06:56.968750,-7.77
10:06:56.984375,-12.46
10:06:57,-17.08
10:06:57.015625,-21.35
10:06:57.031250,-25.02
10:06:57.046875,-27.96
10:06:57.062500,-30.25
10:06:57.078125,-32.08
10:06:57.093750,-33.69
10:06:57.109375,-35.27
10:06:57.125000,-36.93
10:06:57.140625,-38.69
10:06:57.156250,-40.48
10:06:57.171875,-42.18
10:06:57.187500,-43.67
10:06:57.203125,-44.89
10:06:57.218750,-45.92
10:06:57.234375,-47.02
10:06:57.250000,-48.60
10:06:57.265625,-51.10
10:06:57.281250,-54.88
10:06:57.296875,-60.00
10:06:57.312500,-66.17
10:06:57.328125,-72.66
10:06:57.343750,-78.41
10:06:57.359375,-82.15
10:06:57.375000,-82.77
10:06:57.390625,-79.56
10:06:57.406250,-72.41
10:06:57.421875,-61.86
10:06:57.437500,-48.93
10:06:57.453125,-34.88
10:06:57.468750,-20.91
10:06:57.484375,-8.00
10:06:57.500000,3.21
10:06:57.515625,12.38
10:06:57.531250,19.46
10:06:57.546875,24.48
10:06:57.562500,27.60
10:06:57.578125,29.02
10:06:57.593750,29.05
10:06:57.609375,28.11
10:06:57.625000,26.73
10:06:57.640625,25.44
10:06:57.656250,24.62
10:06:57.671875,24.47
10:06:57.687500,24.93
10:06:57.703125,25.85
10:06:57.718750,27.08
10:06:57.734375,28.56
10:06:57.750000,30.35
10:06:57.765625,32.48
10:06:57.781250,34.85
10:06:57.796875,37.26
10:06:57.812500,39.46
10:06:57.828125,41.15
10:06:57.843750,42.06
10:06:57.859375,41.96
10:06:57.875000,40.67
10:06:57.890625,38.16
10:06:57.906250,34.62
10:06:57.921875,30.47
10:06:57.937500,26.22
10:06:57.953125,22.33
10:06:57.968750,19.02
10:06:57.984375,16.29
10:06:58,14.02
10:06:58.015625,12.07
10:06:58.031250,10.45
10:06:58.046875,9.19
10:06:58.062500,8.20
10:06:58.078125,7.25
10:06:58.093750,5.92
10:06:58.109375,3.85
10:06:58.125000,0.83
10:06:58.140625,-3.01
10:06:58.156250,-7.29
10:06:58.171875,-11.58
10:06:58.187500,-15.57
10:06:58.203125,-19.22
10:06:58.218750,-22.81
10:06:58.234375,-26.82
10:06:58.250000,-31.76
10:06:58.265625,-37.97
10:06:58.281250,-45.46
10:06:58.296875,-53.71
10:06:58.312500,-61.75
10:06:58.328125,-68.24
10:06:58.343750,-71.82
10:06:58.359375,-71.46
10:06:58.375000,-66.79
10:06:58.390625,-58.17
10:06:58.406250,-46.71
10:06:58.421875,-33.88
10:06:58.437500,-21.17
10:06:58.453125,-9.72
10:06:58.468750,-0.15
10:06:58.484375,7.48
10:06:58.500000,13.46
10:06:58.515625,18.22
10:06:58.531250,22.13
10:06:58.546875,25.39
10:06:58.562500,27.98
10:06:58.578125,29.82
10:06:58.593750,30.73
10:06:58.609375,30.64
10:06:58.625000,29.66
10:06:58.640625,28.13
10:06:58.656250,26.76
10:06:58.671875,26.45
10:06:58.687500,28.12
10:06:58.703125,32.26
10:06:58.718750,38.75
10:06:58.734375,46.68
10:06:58.750000,54.63
10:06:58.765625,61.12
10:06:58.781250,65.03
10:06:58.796875,65.86
10:06:58.812500,63.75
10:06:58.828125,59.21
10:06:58.843750,52.89
10:06:58.859375,45.43
10:06:58.875000,37.46
10:06:58.890625,29.62
10:06:58.906250,22.49
10:06:58.921875,16.43
10:06:58.937500,11.53
10:06:58.953125,7.52
10:06:58.968750,3.96
10:06:58.984375,0.44
10:06:59,-3.25
10:06:59.015625,-7.13
10:06:59.031250,-11.08
10:06:59.046875,-14.98
10:06:59.062500,-18.81
10:06:59.078125,-22.62
10:06:59.093750,-26.52
10:06:59.109375,-30.58
10:06:59.125000,-34.77
10:06:59.140625,-38.99
10:06:59.156250,-43.05
10:06:59.171875,-46.78
10:06:59.187500,-50.13
10:06:59.203125,-53.23
10:06:59.218750,-56.43
10:06:59.234375,-60.21
10:06:59.250000,-64.95
10:06:59.265625,-70.78
10:06:59.281250,-77.40
10:06:59.296875,-84.06
10:06:59.312500,-89.69
10:06:59.328125,-93.11
10:06:59.343750,-93.34
10:06:59.359375,-89.77
10:06:59.375000,-82.39
10:06:59.390625,-71.76
10:06:59.406250,-58.98
10:06:59.421875,-45.37
10:06:59.437500,-32.19
10:06:59.453125,-20.29
10:06:59.468750,-10.03
10:06:59.484375,-1.35
10:06:59.500000,5.99
10:06:59.515625,12.30
10:06:59.531250,17.75
10:06:59.546875,22.49
10:06:59.562500,26.63
10:06:59.578125,30.29
10:06:59.593750,33.60
10:06:59.609375,36.57
10:06:59.625000,39.12
10:06:59.640625,41.16
10:06:59.656250,42.66
10:06:59.671875,43.74
10:06:59.687500,44.65
10:06:59.703125,45.68
10:06:59.718750,46.98
10:06:59.734375,48.54
10:06:59.750000,50.16
10:06:59.765625,51.53
10:06:59.781250,52.31
10:06:59.796875,52.28
10:06:59.812500,51.40
10:06:59.828125,49.80
10:06:59.843750,47.72
10:06:59.859375,45.41
10:06:59.875000,43.03
10:06:59.890625,40.57
10:06:59.906250,37.91
10:06:59.921875,34.89
10:06:59.937500,31.35
10:06:59.953125,27.23
10:06:59.968750,22.62
10:06:59.984375,17.74
10:07:00,12.91
10:07:00.015625,8.40
10:07:00.031250,4.35
10:07:00.046875,0.65
10:07:00.062500,-3.10
10:07:00.078125,-7.41
10:07:00.093750,-12.82
10:07:00.109375,-19.63
10:07:00.125000,-27.73
10:07:00.140625,-36.61
10:07:00.156250,-45.25
10:07:00.171875,-52.46
10:07:00.187500,-57.10
10:07:00.203125,-58.38
10:07:00.218750,-56.18
10:07:00.234375,-51.04
10:07:00.250000,-43.98
10:07:00.265625,-36.22
10:07:00.281250,-28.90
10:07:00.296875,-22.82
10:07:00.312500,-18.52
10:07:00.328125,-16.20
10:07:00.343750,-15.92
10:07:00.359375,-17.55
10:07:00.375000,-20.77
10:07:00.390625,-25.10
10:07:00.406250,-30.03
10:07:00.421875,-35.07
10:07:00.437500,-39.92
10:07:00.453125,-44.47
10:07:00.468750,-48.71
10:07:00.484375,-52.64
10:07:00.500000,-56.18
10:07:00.515625,-59.16
10:07:00.531250,-61.44
10:07:00.546875,-62.93
10:07:00.562500,-63.66
10:07:00.578125,-63.70
10:07:00.593750,-63.07
10:07:00.609375,-61.74
10:07:00.625000,-59.80
10:07:00.640625,-57.53
10:07:00.656250,-55.49
10:07:00.671875,-54.43
10:07:00.687500,-55.03
10:07:00.703125,-57.58
10:07:00.718750,-61.83
10:07:00.734375,-66.99
10:07:00.750000,-72.01
10:07:00.765625,-75.91
10:07:00.781250,-78.03
10:07:00.796875,-78.22
10:07:00.812500,-76.76
10:07:00.828125,-74.15
10:07:00.843750,-71.03
10:07:00.859375,-67.94
10:07:00.875000,-65.28
10:07:00.890625,-63.17
10:07:00.906250,-61.50
10:07:00.921875,-59.94
10:07:00.937500,-58.04
10:07:00.953125,-55.25
10:07:00.968750,-51.02
10:07:00.984375,-44.74
10:07:01,-35.79
10:07:01.015625,-23.65
10:07:01.031250,-8.06
10:07:01.046875,10.77
10:07:01.062500,31.99
10:07:01.078125,54.22
10:07:01.093750,75.76
10:07:01.109375,95.06
10:07:01.125000,111.12
10:07:01.140625,123.71
10:07:01.156250,133.27
10:07:01.171875,140.50
10:07:01.187500,146.03
10:07:01.203125,150.10
10:07:01.218750,152.55
10:07:01.234375,153.13
10:07:01.250000,151.76
10:07:01.265625,148.75
10:07:01.281250,144.76
10:07:01.296875,140.52
10:07:01.312500,136.55
10:07:01.328125,132.93
10:07:01.343750,129.40
10:07:01.359375,125.59
10:07:01.375000,121.24
10:07:01.390625,116.34
10:07:01.406250,111.09
10:07:01.421875,105.75
10:07:01.437500,100.44
10:07:01.453125,95.10
10:07:01.468750,89.53
10:07:01.484375,83.48
10:07:01.500000,76.82
10:07:01.515625,69.56
10:07:01.531250,61.91
10:07:01.546875,54.10
10:07:01.562500,46.33
10:07:01.578125,38.71
10:07:01.593750,31.19
10:07:01.609375,23.71
10:07:01.625000,16.31
10:07:01.640625,9.14
10:07:01.656250,2.37
10:07:01.671875,-3.97
10:07:01.687500,-10.21
10:07:01.703125,-16.95
10:07:01.718750,-24.90
10:07:01.734375,-34.50
10:07:01.750000,-45.69
10:07:01.765625,-57.86
10:07:01.781250,-70.16
10:07:01.796875,-81.83
10:07:01.812500,-92.46
10:07:01.828125,-101.88
10:07:01.843750,-109.91
10:07:01.859375,-115.99
10:07:01.875000,-119.23
10:07:01.890625,-118.63
10:07:01.906250,-113.58
10:07:01.921875,-104.16
10:07:01.937500,-91.17
10:07:01.953125,-75.82
10:07:01.968750,-59.37
10:07:01.984375,-42.81
10:07:02,-26.81
10:07:02.015625,-11.82
10:07:02.031250,1.85
10:07:02.046875,13.92
10:07:02.062500,24.31
10:07:02.078125,33.13
10:07:02.093750,40.73
10:07:02.109375,47.50
10:07:02.125000,53.74
10:07:02.140625,59.46
10:07:02.156250,64.46
10:07:02.171875,68.48
10:07:02.187500,71.39
10:07:02.203125,73.34
10:07:02.218750,74.75
10:07:02.234375,76.13
10:07:02.250000,77.82
10:07:02.265625,79.83
10:07:02.281250,81.84
10:07:02.296875,83.30
10:07:02.312500,83.72
10:07:02.328125,82.85
10:07:02.343750,80.73
10:07:02.359375,77.63
10:07:02.375000,73.80
10:07:02.390625,69.37
10:07:02.406250,64.33
10:07:02.421875,58.60
10:07:02.437500,52.21
10:07:02.453125,45.41
10:07:02.468750,38.59
10:07:02.484375,32.18
10:07:02.500000,26.48
10:07:02.515625,21.50
10:07:02.531250,17.02
10:07:02.546875,12.70
10:07:02.562500,8.18
10:07:02.578125,3.22
10:07:02.593750,-2.33
10:07:02.609375,-8.58
10:07:02.625000,-15.56
10:07:02.640625,-23.17
10:07:02.656250,-31.09
10:07:02.671875,-38.81
10:07:02.687500,-45.82
10:07:02.703125,-51.80
10:07:02.718750,-56.89
10:07:02.734375,-61.63
10:07:02.750000,-66.72
10:07:02.765625,-72.58
10:07:02.781250,-79.13
10:07:02.796875,-85.72
10:07:02.812500,-91.46
10:07:02.828125,-95.55
10:07:02.843750,-97.65
10:07:02.859375,-97.96
10:07:02.875000,-97.08
10:07:02.890625,-95.80
10:07:02.906250,-94.74
10:07:02.921875,-94.08
10:07:02.937500,-93.42
10:07:02.953125,-91.76
10:07:02.968750,-87.73
10:07:02.984375,-80.09
10:07:03,-68.26
10:07:03.015625,-52.64
10:07:03.031250,-34.69
10:07:03.046875,-16.47
10:07:03.062500,0.00
10:07:03.078125,13.37
10:07:03.093750,23.34
10:07:03.109375,30.51
10:07:03.125000,36.00
10:07:03.140625,40.87
10:07:03.156250,45.73
10:07:03.171875,50.57
10:07:03.187500,54.85
10:07:03.203125,57.97
10:07:03.218750,59.51
10:07:03.234375,59.54
10:07:03.250000,58.55
10:07:03.265625,57.25
10:07:03.281250,56.22
10:07:03.296875,55.73
10:07:03.312500,55.69
10:07:03.328125,55.82
10:07:03.343750,55.85
10:07:03.359375,55.56
10:07:03.375000,54.82
10:07:03.390625,53.51
10:07:03.406250,51.52
10:07:03.421875,48.85
10:07:03.437500,45.65
10:07:03.453125,42.24
10:07:03.468750,38.98
10:07:03.484375,36.11
10:07:03.500000,33.65
10:07:03.515625,31.39
10:07:03.531250,29.07
10:07:03.546875,26.42
10:07:03.562500,23.38
10:07:03.578125,19.98
10:07:03.593750,16.36
10:07:03.609375,12.63
10:07:03.625000,8.89
10:07:03.640625,5.22
10:07:03.656250,1.70
10:07:03.671875,-1.58
10:07:03.687500,-4.54
10:07:03.703125,-7.18
10:07:03.718750,-9.59
10:07:03.734375,-11.98
10:07:03.750000,-14.58
10:07:03.765625,-17.59
10:07:03.781250,-21.01
10:07:03.796875,-24.67
10:07:03.812500,-28.28
10:07:03.828125,-31.57
10:07:03.843750,-34.46
10:07:03.859375,-37.09
10:07:03.875000,-39.76
10:07:03.890625,-42.73
10:07:03.906250,-46.12
10:07:03.921875,-49.79
10:07:03.937500,-53.43
10:07:03.953125,-56.62
10:07:03.968750,-58.95
10:07:03.984375,-60.00
10:07:04,-59.39
10:07:04.015625,-56.68
10:07:04.031250,-51.50
10:07:04.046875,-43.71
10:07:04.062500,-33.47
10:07:04.078125,-21.42
10:07:04.093750,-8.50
10:07:04.109375,4.13
10:07:04.125000,15.42
10:07:04.140625,24.59
10:07:04.156250,31.20
10:07:04.171875,35.20
10:07:04.187500,36.79
10:07:04.203125,36.37
10:07:04.218750,34.42
10:07:04.234375,31.52
10:07:04.250000,28.23
10:07:04.265625,25.10
10:07:04.281250,22.57
10:07:04.296875,20.94
10:07:04.312500,20.35
10:07:04.328125,20.76
10:07:04.343750,22.03
10:07:04.359375,23.96
10:07:04.375000,26.35
10:07:04.390625,29.09
10:07:04.406250,32.01
10:07:04.421875,34.95
10:07:04.437500,37.68
10:07:04.453125,39.91
10:07:04.468750,41.43
10:07:04.484375,42.17
10:07:04.500000,42.23
10:07:04.515625,41.86
10:07:04.531250,41.32
10:07:04.546875,40.77
10:07:04.562500,40.23
10:07:04.578125,39.57
10:07:04.593750,38.70
10:07:04.609375,37.50
10:07:04.625000,35.89
10:07:04.640625,33.80
10:07:04.656250,31.17
10:07:04.671875,28.08
10:07:04.687500,24.86
10:07:04.703125,22.04
10:07:04.718750,20.20
10:07:04.734375,19.67
10:07:04.750000,20.30
10:07:04.765625,21.51
10:07:04.781250,22.42
10:07:04.796875,22.28
10:07:04.812500,20.82
10:07:04.828125,18.31
10:07:04.843750,15.51
10:07:04.859375,13.30
10:07:04.875000,12.35
10:07:04.890625,12.83
10:07:04.906250,14.38
10:07:04.921875,16.27
10:07:04.937500,17.62
10:07:04.953125,17.76
10:07:04.968750,16.48
10:07:04.984375,14.19
10:07:05,11.84
10:07:05.015625,10.73
10:07:05.031250,12.15
10:07:05.046875,17.12
10:07:05.062500,25.98
10:07:05.078125,38.25
10:07:05.093750,52.60
10:07:05.109375,67.18
10:07:05.125000,80.09
10:07:05.140625,89.89
10:07:05.156250,95.94
10:07:05.171875,98.28
10:07:05.187500,97.22
10:07:05.203125,92.93
10:07:05.218750,85.21
10:07:05.234375,73.78
10:07:05.250000,58.67
10:07:05.265625,40.66
10:07:05.281250,21.16
10:07:05.296875,1.91
10:07:05.312500,-15.57
10:07:05.328125,-30.29
10:07:05.343750,-41.80
10:07:05.359375,-50.00
10:07:05.375000,-54.98
10:07:05.390625,-57.10
10:07:05.406250,-57.17
10:07:05.421875,-56.46
10:07:05.437500,-56.35
10:07:05.453125,-57.81
10:07:05.468750,-60.96
10:07:05.484375,-64.99
10:07:05.500000,-68.64
10:07:05.515625,-70.82
10:07:05.531250,-71.17
10:07:05.546875,-70.08
10:07:05.562500,-68.36
10:07:05.578125,-66.69
10:07:05.593750,-65.32
10:07:05.609375,-64.02
10:07:05.625000,-62.42
10:07:05.640625,-60.37
10:07:05.656250,-58.11
10:07:05.671875,-56.19
10:07:05.687500,-55.13
10:07:05.703125,-55.10
10:07:05.718750,-55.84
10:07:05.734375,-56.74
10:07:05.750000,-57.27
10:07:05.765625,-57.20
10:07:05.781250,-56.81
10:07:05.796875,-56.68
10:07:05.812500,-57.25
10:07:05.828125,-58.52
10:07:05.843750,-59.82
10:07:05.859375,-60.11
10:07:05.875000,-58.30
10:07:05.890625,-53.89
10:07:05.906250,-47.12
10:07:05.921875,-38.94
10:07:05.937500,-30.64
10:07:05.953125,-23.48
10:07:05.968750,-18.24
10:07:05.984375,-15.12
10:07:06,-13.75
10:07:06.015625,-13.33
10:07:06.031250,-12.89
10:07:06.046875,-11.54
10:07:06.062500,-8.67
10:07:06.078125,-4.20
10:07:06.093750,1.39
10:07:06.109375,7.06
10:07:06.125000,11.58
10:07:06.140625,13.79
10:07:06.156250,13.15
10:07:06.171875,9.88
10:07:06.187500,4.99
10:07:06.203125,-0.05
10:07:06.218750,-3.80
10:07:06.234375,-5.21
10:07:06.250000,-4.02
10:07:06.265625,-0.67
10:07:06.281250,3.90
10:07:06.296875,8.55
10:07:06.312500,12.30
10:07:06.328125,14.51
10:07:06.343750,14.98
10:07:06.359375,13.88
10:07:06.375000,11.75
10:07:06.390625,9.29
10:07:06.406250,7.24
10:07:06.421875,6.17
10:07:06.437500,6.36
10:07:06.453125,7.68
10:07:06.468750,9.66
10:07:06.484375,11.62
10:07:06.500000,12.92
10:07:06.515625,13.16
10:07:06.531250,12.30
10:07:06.546875,10.71
10:07:06.562500,8.99
10:07:06.578125,7.77
10:07:06.593750,7.39
10:07:06.609375,7.77
10:07:06.625000,8.41
10:07:06.640625,8.58
10:07:06.656250,7.57
10:07:06.671875,4.98
10:07:06.687500,0.81
10:07:06.703125,-4.49
10:07:06.718750,-10.27
10:07:06.734375,-15.79
10:07:06.750000,-20.53
10:07:06.765625,-24.28
10:07:06.781250,-27.19
10:07:06.796875,-29.63
10:07:06.812500,-32.09
10:07:06.828125,-34.90
10:07:06.843750,-38.19
10:07:06.859375,-41.84
10:07:06.875000,-45.52
10:07:06.890625,-48.88
10:07:06.906250,-51.63
10:07:06.921875,-53.65
10:07:06.937500,-54.96
10:07:06.953125,-55.64
10:07:06.968750,-55.78
10:07:06.984375,-55.34
10:07:07,-54.05
10:07:07.015625,-51.46
10:07:07.031250,-47.03
10:07:07.046875,-40.32
10:07:07.062500,-31.20
10:07:07.078125,-19.97
10:07:07.093750,-7.43
10:07:07.109375,5.34
10:07:07.125000,17.25
10:07:07.140625,27.43
10:07:07.156250,35.46
10:07:07.171875,41.33
10:07:07.187500,45.34
10:07:07.203125,47.87
10:07:07.218750,49.20
10:07:07.234375,49.41
10:07:07.250000,48.46
10:07:07.265625,46.31
10:07:07.281250,43.07
10:07:07.296875,39.04
10:07:07.312500,34.72
10:07:07.328125,30.61
10:07:07.343750,27.09
10:07:07.359375,24.30
10:07:07.375000,22.20
10:07:07.390625,20.66
10:07:07.406250,19.57
10:07:07.421875,18.88
10:07:07.437500,18.48
10:07:07.453125,18.21
10:07:07.468750,17.76
10:07:07.484375,16.82
10:07:07.500000,15.13
10:07:07.515625,12.59
10:07:07.531250,9.25
10:07:07.546875,5.30
10:07:07.562500,0.90
10:07:07.578125,-3.71
10:07:07.593750,-8.32
10:07:07.609375,-12.63
10:07:07.625000,-16.36
10:07:07.640625,-19.39
10:07:07.656250,-21.84
10:07:07.671875,-24.12
10:07:07.687500,-26.71
10:07:07.703125,-29.96
10:07:07.718750,-33.84
10:07:07.734375,-37.96
10:07:07.750000,-41.80
10:07:07.765625,-45.01
10:07:07.781250,-47.61
10:07:07.796875,-50.03
10:07:07.812500,-52.83
10:07:07.828125,-56.44
10:07:07.843750,-61.01
10:07:07.859375,-66.41
10:07:07.875000,-72.33
10:07:07.890625,-78.41
10:07:07.906250,-84.17
10:07:07.921875,-89.00
10:07:07.937500,-92.01
10:07:07.953125,-92.19
10:07:07.968750,-88.66
10:07:07.984375,-81.09
10:07:08,-69.97
10:07:08.015625,-56.54
10:07:08.031250,-42.46
10:07:08.046875,-29.29
10:07:08.062500,-18.02
10:07:08.078125,-8.97
10:07:08.093750,-1.87
10:07:08.109375,3.81
10:07:08.125000,8.57
10:07:08.140625,12.75
10:07:08.156250,16.55
10:07:08.171875,20.08
10:07:08.187500,23.48
10:07:08.203125,26.83
10:07:08.218750,30.12
10:07:08.234375,33.24
10:07:08.250000,36.01
10:07:08.265625,38.30
10:07:08.281250,40.16
10:07:08.296875,41.80
10:07:08.312500,43.51
10:07:08.328125,45.47
10:07:08.343750,47.67
10:07:08.359375,49.82
10:07:08.375000,51.52
10:07:08.390625,52.41
10:07:08.406250,52.33
10:07:08.421875,51.32
10:07:08.437500,49.66
10:07:08.453125,47.62
10:07:08.468750,45.39
10:07:08.484375,43.04
10:07:08.500000,40.53
10:07:08.515625,37.74
10:07:08.531250,34.61
10:07:08.546875,31.08
10:07:08.562500,27.15
10:07:08.578125,22.86
10:07:08.593750,18.28
10:07:08.609375,13.54
10:07:08.625000,8.72
10:07:08.640625,3.93
10:07:08.656250,-0.72
10:07:08.671875,-5.16
10:07:08.687500,-9.26
10:07:08.703125,-12.95
10:07:08.718750,-16.19
10:07:08.734375,-19.03
10:07:08.750000,-21.59
10:07:08.765625,-24.06
10:07:08.781250,-26.64
10:07:08.796875,-29.50
10:07:08.812500,-32.87
10:07:08.828125,-37.07
10:07:08.843750,-42.47
10:07:08.859375,-49.35
10:07:08.875000,-57.63
10:07:08.890625,-66.60
10:07:08.906250,-74.88
10:07:08.921875,-80.75
10:07:08.937500,-82.55
10:07:08.953125,-79.28
10:07:08.968750,-70.88
10:07:08.984375,-58.27
10:07:09,-43.02
10:07:09.015625,-26.84
10:07:09.031250,-11.19
10:07:09.046875,2.94
10:07:09.062500,15.05
10:07:09.078125,24.96
10:07:09.093750,32.66
10:07:09.109375,38.18
10:07:09.125000,41.61
10:07:09.140625,43.12
10:07:09.156250,43.02
10:07:09.171875,41.78
10:07:09.187500,39.96
10:07:09.203125,38.13
10:07:09.218750,36.77
10:07:09.234375,36.13
10:07:09.250000,36.24
10:07:09.265625,36.96
10:07:09.281250,38.07
10:07:09.296875,39.30
10:07:09.312500,40.39
10:07:09.328125,41.12
10:07:09.343750,41.33
10:07:09.359375,40.98
10:07:09.375000,40.25
10:07:09.390625,39.53
10:07:09.406250,39.29
10:07:09.421875,39.85
10:07:09.437500,41.17
10:07:09.453125,42.82
10:07:09.468750,44.08
10:07:09.484375,44.22
10:07:09.500000,42.73
10:07:09.515625,39.42
10:07:09.531250,34.35
10:07:09.546875,27.74
10:07:09.562500,19.97
10:07:09.578125,11.58
10:07:09.593750,3.21
10:07:09.609375,-4.47
10:07:09.625000,-11.03
10:07:09.640625,-16.54
10:07:09.656250,-21.47
10:07:09.671875,-26.52
10:07:09.687500,-32.16
10:07:09.703125,-38.29
10:07:09.718750,-44.29
10:07:09.734375,-49.28
10:07:09.750000,-52.66
10:07:09.765625,-54.40
10:07:09.781250,-55.05
10:07:09.796875,-55.49
10:07:09.812500,-56.57
10:07:09.828125,-58.81
10:07:09.843750,-62.34
10:07:09.859375,-66.91
10:07:09.875000,-71.86
10:07:09.890625,-76.21
10:07:09.906250,-78.77
10:07:09.921875,-78.28
10:07:09.937500,-73.81
10:07:09.953125,-65.03
10:07:09.968750,-52.46
10:07:09.984375,-37.35
10:07:10,-21.36
10:07:10.015625,-6.09
10:07:10.031250,7.32
10:07:10.046875,18.31
10:07:10.062500,26.84
10:07:10.078125,33.19
10:07:10.093750,37.72
10:07:10.109375,40.75
10:07:10.125000,42.50
10:07:10.140625,43.19
10:07:10.156250,43.05
10:07:10.171875,42.42
10:07:10.187500,41.67
10:07:10.203125,41.15
10:07:10.218750,41.07
10:07:10.234375,41.48
10:07:10.250000,42.21
10:07:10.265625,43.05
10:07:10.281250,43.80
10:07:10.296875,44.34
10:07:10.312500,44.58
10:07:10.328125,44.47
10:07:10.343750,43.89
10:07:10.359375,42.74
10:07:10.375000,40.97
10:07:10.390625,38.69
10:07:10.406250,36.11
10:07:10.421875,33.53
10:07:10.437500,31.13
10:07:10.453125,28.93
10:07:10.468750,26.79
10:07:10.484375,24.45
10:07:10.500000,21.73
10:07:10.515625,18.59
10:07:10.531250,15.13
10:07:10.546875,11.51
10:07:10.562500,7.84
10:07:10.578125,4.13
10:07:10.593750,0.27
10:07:10.609375,-3.87
10:07:10.625000,-8.37
10:07:10.640625,-13.22
10:07:10.656250,-18.29
10:07:10.671875,-23.41
10:07:10.687500,-28.42
10:07:10.703125,-33.22
10:07:10.718750,-37.85
10:07:10.734375,-42.42
10:07:10.750000,-47.18
10:07:10.765625,-52.38
10:07:10.781250,-58.21
10:07:10.796875,-64.64
10:07:10.812500,-71.24
10:07:10.828125,-77.16
10:07:10.843750,-81.26
10:07:10.859375,-82.37
10:07:10.875000,-79.69
10:07:10.890625,-73.05
10:07:10.906250,-62.96
10:07:10.921875,-50.50
10:07:10.937500,-36.96
10:07:10.953125,-23.58
10:07:10.968750,-11.27
10:07:10.984375,-0.59
10:07:11,8.26
10:07:11.015625,15.26
10:07:11.031250,20.56
10:07:11.046875,24.33
10:07:11.062500,26.81
10:07:11.078125,28.27
10:07:11.093750,28.97
10:07:11.109375,29.18
10:07:11.125000,29.15
10:07:11.140625,29.08
10:07:11.156250,29.08
10:07:11.171875,29.19
10:07:11.187500,29.45
10:07:11.203125,29.88
10:07:11.218750,30.54
10:07:11.234375,31.47
10:07:11.250000,32.66
10:07:11.265625,33.96
10:07:11.281250,35.09
10:07:11.296875,35.72
10:07:11.312500,35.60
10:07:11.328125,34.71
10:07:11.343750,33.21
10:07:11.359375,31.44
10:07:11.375000,29.77
10:07:11.390625,28.45
10:07:11.406250,27.56
10:07:11.421875,26.94
10:07:11.437500,26.32
10:07:11.453125,25.38
10:07:11.468750,23.88
10:07:11.484375,21.74
10:07:11.500000,19.05
10:07:11.515625,16.00
10:07:11.531250,12.86
10:07:11.546875,9.76
10:07:11.562500,6.77
10:07:11.578125,3.77
10:07:11.593750,0.58
10:07:11.609375,-3.00
10:07:11.625000,-7.08
10:07:11.640625,-11.68
10:07:11.656250,-16.67
10:07:11.671875,-21.83
10:07:11.687500,-26.92
10:07:11.703125,-31.76
10:07:11.718750,-36.29
10:07:11.734375,-40.68
10:07:11.750000,-45.33
10:07:11.765625,-50.66
10:07:11.781250,-56.94
10:07:11.796875,-64.01
10:07:11.812500,-71.11
10:07:11.828125,-76.97
10:07:11.843750,-80.08
10:07:11.859375,-79.17
10:07:11.875000,-73.67
10:07:11.890625,-63.89
10:07:11.906250,-50.96
10:07:11.921875,-36.46
10:07:11.937500,-21.91
10:07:11.953125,-8.47
10:07:11.968750,3.28
10:07:11.984375,13.16
10:07:12,21.22
10:07:12.015625,27.58
10:07:12.031250,32.37
10:07:12.046875,35.77
10:07:12.062500,38.01
10:07:12.078125,39.40
10:07:12.093750,40.19
10:07:12.109375,40.55
10:07:12.125000,40.57
10:07:12.140625,40.33
10:07:12.156250,39.99
10:07:12.171875,39.81
10:07:12.187500,40.11
10:07:12.203125,41.11
10:07:12.218750,42.86
10:07:12.234375,45.15
10:07:12.250000,47.64
10:07:12.265625,49.87
10:07:12.281250,51.50
10:07:12.296875,52.28
10:07:12.312500,52.09
10:07:12.328125,50.97
10:07:12.343750,49.08
10:07:12.359375,46.66
10:07:12.375000,44.01
10:07:12.390625,41.34
10:07:12.406250,38.79
10:07:12.421875,36.36
10:07:12.437500,33.92
10:07:12.453125,31.32
10:07:12.468750,28.45
10:07:12.484375,25.21
10:07:12.500000,21.58
10:07:12.515625,17.61
10:07:12.531250,13.38
10:07:12.546875,9.03
10:07:12.562500,4.74
10:07:12.578125,0.66
10:07:12.593750,-3.09
10:07:12.609375,-6.56
10:07:12.625000,-9.89
10:07:12.640625,-13.28
10:07:12.656250,-16.89
10:07:12.671875,-20.72
10:07:12.687500,-24.68
10:07:12.703125,-28.57
10:07:12.718750,-32.23
10:07:12.734375,-35.56
10:07:12.750000,-38.64
10:07:12.765625,-41.63
10:07:12.781250,-44.78
10:07:12.796875,-48.44
10:07:12.812500,-52.95
10:07:12.828125,-58.56
10:07:12.843750,-65.22
10:07:12.859375,-72.47
10:07:12.875000,-79.30
10:07:12.890625,-84.36
10:07:12.906250,-86.23
10:07:12.921875,-83.92
10:07:12.937500,-77.10
10:07:12.953125,-66.26
10:07:12.968750,-52.56
10:07:12.984375,-37.47
10:07:13,-22.42
10:07:13.015625,-8.53
10:07:13.031250,3.49
10:07:13.046875,13.36
10:07:13.062500,21.05
10:07:13.078125,26.76
10:07:13.093750,30.71
10:07:13.109375,33.21
10:07:13.125000,34.52
10:07:13.140625,34.95
10:07:13.156250,34.79
10:07:13.171875,34.35
10:07:13.187500,33.92
10:07:13.203125,33.70
10:07:13.218750,33.81
10:07:13.234375,34.23
10:07:13.250000,34.93
10:07:13.265625,35.82
10:07:13.281250,36.86
10:07:13.296875,38.12
10:07:13.312500,39.59
10:07:13.328125,41.24
10:07:13.343750,42.86
10:07:13.359375,44.11
10:07:13.375000,44.64
10:07:13.390625,44.20
10:07:13.406250,42.75
10:07:13.421875,40.47
10:07:13.437500,37.74
10:07:13.453125,34.95
10:07:13.468750,32.36
10:07:13.484375,29.98
10:07:13.500000,27.64
10:07:13.515625,25.05
10:07:13.531250,21.95
10:07:13.546875,18.28
10:07:13.562500,14.16
10:07:13.578125,9.82
10:07:13.593750,5.52
10:07:13.609375,1.41
10:07:13.625000,-2.49
10:07:13.640625,-6.28
10:07:13.656250,-10.05
10:07:13.671875,-13.88
10:07:13.687500,-17.81
10:07:13.703125,-21.82
10:07:13.718750,-25.87
10:07:13.734375,-29.87
10:07:13.750000,-33.75
10:07:13.765625,-37.48
10:07:13.781250,-41.17
10:07:13.796875,-45.09
10:07:13.812500,-49.61
10:07:13.828125,-55.04
10:07:13.843750,-61.29
10:07:13.859375,-67.77
10:07:13.875000,-73.35
10:07:13.890625,-76.63
10:07:13.906250,-76.37
10:07:13.921875,-71.88
10:07:13.937500,-63.25
10:07:13.953125,-51.33
10:07:13.968750,-37.50
10:07:13.984375,-23.26
10:07:14,-9.99
10:07:14.015625,1.40
10:07:14.031250,10.43
10:07:14.046875,17.08
10:07:14.062500,21.61
10:07:14.078125,24.46
10:07:14.093750,26.08
10:07:14.109375,26.87
10:07:14.125000,27.14
10:07:14.140625,27.02
10:07:14.156250,26.58
10:07:14.171875,25.79
10:07:14.187500,24.67
10:07:14.203125,23.28
10:07:14.218750,21.80
10:07:14.234375,20.48
10:07:14.250000,19.61
10:07:14.265625,19.44
10:07:14.281250,20.07
10:07:14.296875,21.41
10:07:14.312500,23.16
10:07:14.328125,24.94
10:07:14.343750,26.37
10:07:14.359375,27.25
10:07:14.375000,27.60
10:07:14.390625,27.59
10:07:14.406250,27.46
10:07:14.421875,27.37
10:07:14.437500,27.32
10:07:14.453125,27.18
10:07:14.468750,26.76
10:07:14.484375,25.92
10:07:14.500000,24.60
10:07:14.515625,22.78
10:07:14.531250,20.45
10:07:14.546875,17.63
10:07:14.562500,14.46
10:07:14.578125,11.18
10:07:14.593750,8.16
10:07:14.609375,5.67
10:07:14.625000,3.80
10:07:14.640625,2.38
10:07:14.656250,1.05
10:07:14.671875,-0.59
10:07:14.687500,-2.80
10:07:14.703125,-5.65
10:07:14.718750,-9.01
10:07:14.734375,-12.73
10:07:14.750000,-16.67
10:07:14.765625,-20.80
10:07:14.781250,-25.19
10:07:14.796875,-29.98
10:07:14.812500,-35.28
10:07:14.828125,-41.05
10:07:14.843750,-47.08
10:07:14.859375,-52.84
10:07:14.875000,-57.54
10:07:14.890625,-60.21
10:07:14.906250,-59.98
10:07:14.921875,-56.27
10:07:14.937500,-49.00
10:07:14.953125,-38.55
10:07:14.968750,-25.61
10:07:14.984375,-11.08
10:07:15,4.10
10:07:15.015625,18.94
10:07:15.031250,32.51
10:07:15.046875,43.96
10:07:15.062500,52.70
10:07:15.078125,58.56
10:07:15.093750,61.78
10:07:15.109375,62.98
10:07:15.125000,62.90
10:07:15.140625,62.22
10:07:15.156250,61.37
10:07:15.171875,60.58
10:07:15.187500,59.92
10:07:15.203125,59.42
10:07:15.218750,59.10
10:07:15.234375,58.97
10:07:15.250000,58.88
10:07:15.265625,58.62
10:07:15.281250,57.92
10:07:15.296875,56.63
10:07:15.312500,54.71
10:07:15.328125,52.34
10:07:15.343750,49.73
10:07:15.359375,46.99
10:07:15.375000,44.07
10:07:15.390625,40.77
10:07:15.406250,36.88
10:07:15.421875,32.32
10:07:15.437500,27.20
10:07:15.453125,21.84
10:07:15.468750,16.61
10:07:15.484375,11.77
10:07:15.500000,7.40
10:07:15.515625,3.41
10:07:15.531250,-0.34
10:07:15.546875,-3.99
10:07:15.562500,-7.61
10:07:15.578125,-11.23
10:07:15.593750,-14.99
10:07:15.609375,-19.10
10:07:15.625000,-23.89
10:07:15.640625,-29.56
10:07:15.656250,-36.06
10:07:15.671875,-42.96
10:07:15.687500,-49.61
10:07:15.703125,-55.32
10:07:15.718750,-59.72
10:07:15.734375,-62.89
10:07:15.750000,-65.29
10:07:15.765625,-67.55
10:07:15.781250,-70.25
10:07:15.796875,-73.72
10:07:15.812500,-78.02
10:07:15.828125,-83.00
10:07:15.843750,-88.27
10:07:15.859375,-93.24
10:07:15.875000,-97.10
10:07:15.890625,-98.89
10:07:15.906250,-97.66
10:07:15.921875,-92.72
10:07:15.937500,-83.88
10:07:15.953125,-71.60
10:07:15.968750,-56.94
10:07:15.984375,-41.38
10:07:16,-26.41
10:07:16.015625,-13.22
10:07:16.031250,-2.40
10:07:16.046875,6.01
10:07:16.062500,12.34
10:07:16.078125,17.02
10:07:16.093750,20.30
10:07:16.109375,22.27
10:07:16.125000,22.93
10:07:16.140625,22.45
10:07:16.156250,21.22
10:07:16.171875,19.82
10:07:16.187500,18.85
10:07:16.203125,18.70
10:07:16.218750,19.49
10:07:16.234375,21.08
10:07:16.250000,23.22
10:07:16.265625,25.64
10:07:16.281250,28.09
10:07:16.296875,30.38
10:07:16.312500,32.31
10:07:16.328125,33.75
10:07:16.343750,34.55
10:07:16.359375,34.61
10:07:16.375000,33.93
10:07:16.390625,32.59
10:07:16.406250,30.77
10:07:16.421875,28.67
10:07:16.437500,26.42
10:07:16.453125,24.03
10:07:16.468750,21.43
10:07:16.484375,18.51
10:07:16.500000,15.22
10:07:16.515625,11.64
10:07:16.531250,7.88
10:07:16.546875,4.07
10:07:16.562500,0.27
10:07:16.578125,-3.49
10:07:16.593750,-7.21
10:07:16.609375,-10.86
10:07:16.625000,-14.37
10:07:16.640625,-17.66
10:07:16.656250,-20.74
10:07:16.671875,-23.77
10:07:16.687500,-27.03
10:07:16.703125,-30.95
10:07:16.718750,-35.95
10:07:16.734375,-42.27
10:07:16.750000,-49.77
10:07:16.765625,-57.89
10:07:16.781250,-65.66
10:07:16.796875,-71.87
10:07:16.812500,-75.52
10:07:16.828125,-76.01
10:07:16.843750,-73.34
10:07:16.859375,-67.99
10:07:16.875000,-60.67
10:07:16.890625,-52.04
10:07:16.906250,-42.52
10:07:16.921875,-32.38
10:07:16.937500,-21.88
10:07:16.953125,-11.46
10:07:16.968750,-1.82
10:07:16.984375,6.08
10:07:17,11.36
10:07:17.015625,13.53
10:07:17.031250,12.79
10:07:17.046875,10.05
10:07:17.062500,6.79
10:07:17.078125,4.56
10:07:17.093750,4.45
10:07:17.109375,6.63
10:07:17.125000,10.21
10:07:17.140625,13.35
10:07:17.156250,13.69
10:07:17.171875,9.11
10:07:17.187500,-1.55
10:07:17.203125,-17.79
10:07:17.218750,-37.09
10:07:17.234375,-55.09
10:07:17.250000,-66.52
10:07:17.265625,-66.68
10:07:17.281250,-53.25
10:07:17.296875,-27.34
10:07:17.312500,6.39
10:07:17.328125,41.08
10:07:17.343750,69.86
10:07:17.359375,87.93
10:07:17.375000,93.72
10:07:17.390625,88.70
10:07:17.406250,76.20
10:07:17.421875,59.81
10:07:17.437500,42.37
10:07:17.453125,25.74
10:07:17.468750,11.07
10:07:17.484375,-0.82
10:07:17.500000,-9.30
10:07:17.515625,-14.13
10:07:17.531250,-15.66
10:07:17.546875,-14.87
10:07:17.562500,-13.13
10:07:17.578125,-11.78
10:07:17.593750,-11.80
10:07:17.609375,-13.84
10:07:17.625000,-18.16
10:07:17.640625,-24.79
10:07:17.656250,-33.64
10:07:17.671875,-44.38
10:07:17.687500,-56.43
10:07:17.703125,-68.92
10:07:17.718750,-80.68
10:07:17.734375,-90.36
10:07:17.750000,-96.67
10:07:17.765625,-98.61
10:07:17.781250,-95.79
10:07:17.796875,-88.59
10:07:17.812500,-78.12
10:07:17.828125,-65.97
10:07:17.843750,-53.74
10:07:17.859375,-42.58
10:07:17.875000,-32.81
10:07:17.890625,-23.80
10:07:17.906250,-14.28
10:07:17.921875,-2.94
10:07:17.937500,10.80
10:07:17.953125,26.39
10:07:17.968750,42.22
10:07:17.984375,56.36
10:07:18,67.48
10:07:18.015625,75.53
10:07:18.031250,81.78
10:07:18.046875,88.02
10:07:18.062500,95.45
10:07:18.078125,103.83
10:07:18.093750,111.49
10:07:18.109375,116.10
10:07:18.125000,115.90
10:07:18.140625,110.54
10:07:18.156250,101.19
10:07:18.171875,89.79
10:07:18.187500,78.04
10:07:18.203125,66.86
10:07:18.218750,56.41
10:07:18.234375,46.67
10:07:18.250000,37.95
10:07:18.265625,31.05
10:07:18.281250,26.77
10:07:18.296875,25.49
10:07:18.312500,26.92
10:07:18.328125,30.36
10:07:18.343750,35.03
10:07:18.359375,40.21
10:07:18.375000,45.05
10:07:18.390625,48.32
10:07:18.406250,48.34
10:07:18.421875,43.59
10:07:18.437500,33.36
10:07:18.453125,18.25
10:07:18.468750,0.05
10:07:18.484375,-18.94
10:07:18.500000,-36.68
10:07:18.515625,-51.90
10:07:18.531250,-64.07
10:07:18.546875,-73.07
10:07:18.562500,-78.81
10:07:18.578125,-81.07
10:07:18.593750,-79.76
10:07:18.609375,-75.26
10:07:18.625000,-68.93
10:07:18.640625,-63.24
10:07:18.656250,-61.36
10:07:18.671875,-66.16
10:07:18.687500,-78.90
10:07:18.703125,-98.24
10:07:18.718750,-120.10
10:07:18.734375,-138.69
10:07:18.750000,-148.20
10:07:18.765625,-144.88
10:07:18.781250,-128.23
10:07:18.796875,-101.26
10:07:18.812500,-69.37
10:07:18.828125,-38.63
10:07:18.843750,-13.85
10:07:18.859375,2.86
10:07:18.875000,12.58
10:07:18.890625,19.03
10:07:18.906250,27.09
10:07:18.921875,41.02
10:07:18.937500,62.95
10:07:18.953125,92.29
10:07:18.968750,126.28
10:07:18.984375,160.97
10:07:19,192.37
10:07:19.015625,217.01
10:07:19.031250,232.17
10:07:19.046875,236.05
10:07:19.062500,228.06
10:07:19.078125,209.44
10:07:19.093750,183.46
10:07:19.109375,155.01
10:07:19.125000,129.35
10:07:19.140625,110.64
10:07:19.156250,100.64
10:07:19.171875,98.33
10:07:19.187500,100.48
10:07:19.203125,102.91
10:07:19.218750,101.93
10:07:19.234375,95.35
10:07:19.250000,82.98
10:07:19.265625,66.30
10:07:19.281250,47.82
10:07:19.296875,30.21
10:07:19.312500,15.51
10:07:19.328125,4.67
10:07:19.343750,-2.51
10:07:19.359375,-7.01
10:07:19.375000,-10.11
10:07:19.390625,-12.75
10:07:19.406250,-15.36
10:07:19.421875,-17.79
10:07:19.437500,-19.66
10:07:19.453125,-20.69
10:07:19.468750,-20.97
10:07:19.484375,-20.97
10:07:19.500000,-21.34
10:07:19.515625,-22.72
10:07:19.531250,-25.52
10:07:19.546875,-29.93
10:07:19.562500,-35.95
10:07:19.578125,-43.50
10:07:19.593750,-52.36
10:07:19.609375,-62.05
10:07:19.625000,-71.70
10:07:19.640625,-80.01
10:07:19.656250,-85.57
10:07:19.671875,-87.28
10:07:19.687500,-84.69
10:07:19.703125,-78.22
10:07:19.718750,-68.86
10:07:19.734375,-57.85
10:07:19.750000,-46.17
10:07:19.765625,-34.46
10:07:19.781250,-23.03
10:07:19.796875,-12.21
10:07:19.812500,-2.49
10:07:19.828125,5.44
10:07:19.843750,10.91
10:07:19.859375,13.59
10:07:19.875000,13.67
10:07:19.890625,11.82
10:07:19.906250,9.05
10:07:19.921875,6.31
10:07:19.937500,4.29
10:07:19.953125,3.25
10:07:19.968750,3.09
10:07:19.984375,3.47
10:07:20,4.10
10:07:20.015625,4.81
10:07:20.031250,5.64
10:07:20.046875,6.73
10:07:20.062500,8.16
10:07:20.078125,9.81
10:07:20.093750,11.36
10:07:20.109375,12.36
10:07:20.125000,12.40
10:07:20.140625,11.24
10:07:20.156250,8.86
10:07:20.171875,5.39
10:07:20.187500,1.13
10:07:20.203125,-3.57
10:07:20.218750,-8.26
10:07:20.234375,-12.57
10:07:20.250000,-16.20
10:07:20.265625,-19.12
10:07:20.281250,-21.52
10:07:20.296875,-23.76
10:07:20.312500,-26.13
10:07:20.328125,-28.66
10:07:20.343750,-31.05
10:07:20.359375,-32.83
10:07:20.375000,-33.56
10:07:20.390625,-33.15
10:07:20.406250,-31.96
10:07:20.421875,-30.79
10:07:20.437500,-30.55
10:07:20.453125,-32.01
10:07:20.468750,-35.48
10:07:20.484375,-40.71
10:07:20.500000,-46.89
10:07:20.515625,-52.75
10:07:20.531250,-56.90
10:07:20.546875,-58.14
10:07:20.562500,-55.76
10:07:20.578125,-49.71
10:07:20.593750,-40.56
10:07:20.609375,-29.34
10:07:20.625000,-17.23
10:07:20.640625,-5.39
10:07:20.656250,5.32
10:07:20.671875,14.32
10:07:20.687500,21.37
10:07:20.703125,26.49
10:07:20.718750,29.88
10:07:20.734375,31.92
10:07:20.750000,33.07
10:07:20.765625,33.80
10:07:20.781250,34.48
10:07:20.796875,35.31
10:07:20.812500,36.33
10:07:20.828125,37.45
10:07:20.843750,38.58
10:07:20.859375,39.71
10:07:20.875000,40.97
10:07:20.890625,42.54
10:07:20.906250,44.52
10:07:20.921875,46.77
10:07:20.937500,48.86
10:07:20.953125,50.15
10:07:20.968750,50.06
10:07:20.984375,48.34
10:07:21,45.11
10:07:21.015625,40.88
10:07:21.031250,36.24
10:07:21.046875,31.69
10:07:21.062500,27.41
10:07:21.078125,23.29
10:07:21.093750,19.09
10:07:21.109375,14.59
10:07:21.125000,9.74
10:07:21.140625,4.62
10:07:21.156250,-0.53
10:07:21.171875,-5.52
10:07:21.187500,-10.21
10:07:21.203125,-14.56
10:07:21.218750,-18.64
10:07:21.234375,-22.59
10:07:21.250000,-26.62
10:07:21.265625,-30.84
10:07:21.281250,-35.29
10:07:21.296875,-39.82
10:07:21.312500,-44.17
10:07:21.328125,-48.07
10:07:21.343750,-51.35
10:07:21.359375,-54.04
10:07:21.375000,-56.39
10:07:21.390625,-58.74
10:07:21.406250,-61.45
10:07:21.421875,-64.65
10:07:21.437500,-68.15
10:07:21.453125,-71.32
10:07:21.468750,-73.24
10:07:21.484375,-72.80
10:07:21.500000,-69.07
10:07:21.515625,-61.59
10:07:21.531250,-50.57
10:07:21.546875,-36.87
10:07:21.562500,-21.84
10:07:21.578125,-6.92
10:07:21.593750,6.71
10:07:21.609375,18.29
10:07:21.625000,27.55
10:07:21.640625,34.54
10:07:21.656250,39.48
10:07:21.671875,42.69
10:07:21.687500,44.49
10:07:21.703125,45.26
10:07:21.718750,45.36
10:07:21.734375,45.05
10:07:21.750000,44.50
10:07:21.765625,43.73
10:07:21.781250,42.70
10:07:21.796875,41.39
10:07:21.812500,39.92
10:07:21.828125,38.44
10:07:21.843750,37.19
10:07:21.859375,36.31
10:07:21.875000,35.88
10:07:21.890625,35.89
10:07:21.906250,36.28
10:07:21.921875,36.99
10:07:21.937500,37.89
10:07:21.953125,38.87
10:07:21.968750,39.73
10:07:21.984375,40.24
10:07:22,40.16
10:07:22.015625,39.33
10:07:22.031250,37.66
10:07:22.046875,35.16
10:07:22.062500,31.97
10:07:22.078125,28.24
10:07:22.093750,24.16
10:07:22.109375,19.85
10:07:22.125000,15.41
10:07:22.140625,10.88
10:07:22.156250,6.29
10:07:22.171875,1.72
10:07:22.187500,-2.70
10:07:22.203125,-6.76
10:07:22.218750,-10.28
10:07:22.234375,-13.13
10:07:22.250000,-15.40
10:07:22.265625,-17.31
10:07:22.281250,-19.27
10:07:22.296875,-21.67
10:07:22.312500,-24.72
10:07:22.328125,-28.43
10:07:22.343750,-32.58
10:07:22.359375,-36.83
10:07:22.375000,-40.90
10:07:22.390625,-44.75
10:07:22.406250,-48.54
10:07:22.421875,-52.60
10:07:22.437500,-57.28
10:07:22.453125,-62.78
10:07:22.468750,-69.05
10:07:22.484375,-75.64
10:07:22.500000,-81.76
10:07:22.515625,-86.32
10:07:22.531250,-88.20
10:07:22.546875,-86.50
10:07:22.562500,-80.83
10:07:22.578125,-71.41
10:07:22.593750,-59.09
10:07:22.609375,-45.03
10:07:22.625000,-30.53
10:07:22.640625,-16.67
10:07:22.656250,-4.28
10:07:22.671875,6.16
10:07:22.687500,14.44
10:07:22.703125,20.59
10:07:22.718750,24.89
10:07:22.734375,27.71
10:07:22.750000,29.50
10:07:22.765625,30.67
10:07:22.781250,31.48
10:07:22.796875,32.05
10:07:22.812500,32.39
10:07:22.828125,32.47
10:07:22.843750,32.32
10:07:22.859375,32.09
10:07:22.875000,31.98
10:07:22.890625,32.22
10:07:22.906250,32.98
10:07:22.921875,34.26
10:07:22.937500,35.90
10:07:22.953125,37.63
10:07:22.968750,39.09
10:07:22.984375,39.99
10:07:23,40.18
10:07:23.015625,39.60
10:07:23.031250,38.37
10:07:23.046875,36.67
10:07:23.062500,34.64
10:07:23.078125,32.45
10:07:23.093750,30.16
10:07:23.109375,27.77
10:07:23.125000,25.26
10:07:23.140625,22.58
10:07:23.156250,19.69
10:07:23.171875,16.58
10:07:23.187500,13.25
10:07:23.203125,9.72
10:07:23.218750,6.03
10:07:23.234375,2.23
10:07:23.250000,-1.58
10:07:23.265625,-5.30
10:07:23.281250,-8.80
10:07:23.296875,-11.99
10:07:23.312500,-14.87
10:07:23.328125,-17.52
10:07:23.343750,-20.12
10:07:23.359375,-22.83
10:07:23.375000,-25.78
10:07:23.390625,-28.99
10:07:23.406250,-32.41
10:07:23.421875,-35.97
10:07:23.437500,-39.68
10:07:23.453125,-43.65
10:07:23.468750,-48.11
10:07:23.484375,-53.22
10:07:23.500000,-58.90
10:07:23.515625,-64.66
10:07:23.531250,-69.53
10:07:23.546875,-72.32
10:07:23.562500,-71.93
10:07:23.578125,-67.71
10:07:23.593750,-59.78
10:07:23.609375,-48.91
10:07:23.625000,-36.33
10:07:23.640625,-23.30
10:07:23.656250,-10.80
10:07:23.671875,0.56
10:07:23.687500,10.49
10:07:23.703125,18.85
10:07:23.718750,25.50
10:07:23.734375,30.30
10:07:23.750000,33.15
10:07:23.765625,34.16
10:07:23.781250,33.64
10:07:23.796875,32.17
10:07:23.812500,30.34
10:07:23.828125,28.72
10:07:23.843750,27.65
10:07:23.859375,27.23
10:07:23.875000,27.40
10:07:23.890625,28.02
10:07:23.906250,29.02
10:07:23.921875,30.33
10:07:23.937500,31.87
10:07:23.953125,33.50
10:07:23.968750,34.99
10:07:23.984375,36.12
10:07:24,36.71
10:07:24.015625,36.70
10:07:24.031250,36.11
10:07:24.046875,34.96
10:07:24.062500,33.24
10:07:24.078125,30.97
10:07:24.093750,28.18
10:07:24.109375,25.00
10:07:24.125000,21.61
10:07:24.140625,18.18
10:07:24.156250,14.84
10:07:24.171875,11.64
10:07:24.187500,8.62
10:07:24.203125,5.79
10:07:24.218750,3.19
10:07:24.234375,0.81
10:07:24.250000,-1.43
10:07:24.265625,-3.65
10:07:24.281250,-6.01
10:07:24.296875,-8.65
10:07:24.312500,-11.63
10:07:24.328125,-14.91
10:07:24.343750,-18.35
10:07:24.359375,-21.80
10:07:24.375000,-25.14
10:07:24.390625,-28.39
10:07:24.406250,-31.73
10:07:24.421875,-35.54
10:07:24.437500,-40.29
10:07:24.453125,-46.35
10:07:24.468750,-53.78
10:07:24.484375,-62.14
10:07:24.500000,-70.52
10:07:24.515625,-77.72
10:07:24.531250,-82.49
10:07:24.546875,-83.95
10:07:24.562500,-81.74
10:07:24.578125,-76.09
10:07:24.593750,-67.74
10:07:24.609375,-57.73
10:07:24.625000,-47.16
10:07:24.640625,-36.99
10:07:24.656250,-27.92
10:07:24.671875,-20.32
10:07:24.687500,-14.26
10:07:24.703125,-9.60
10:07:24.718750,-6.02
10:07:24.734375,-3.17
10:07:24.750000,-0.69
10:07:24.765625,1.72
10:07:24.781250,4.27
10:07:24.796875,7.02
10:07:24.812500,9.82
10:07:24.828125,12.40
10:07:24.843750,14.45
10:07:24.859375,15.87
10:07:24.875000,16.84
10:07:24.890625,17.80
10:07:24.906250,19.27
10:07:24.921875,21.57
10:07:24.937500,24.59
10:07:24.953125,27.93
10:07:24.968750,31.01
10:07:24.984375,33.39
10:07:25,34.88
10:07:25.015625,35.61
10:07:25.031250,35.82
10:07:25.046875,35.74
10:07:25.062500,35.47
10:07:25.078125,34.96
10:07:25.093750,34.10
10:07:25.109375,32.76
10:07:25.125000,30.87
10:07:25.140625,28.39
10:07:25.156250,25.42
10:07:25.171875,22.09
10:07:25.187500,18.66
10:07:25.203125,15.39
10:07:25.218750,12.50
10:07:25.234375,10.08
10:07:25.250000,8.03
10:07:25.265625,6.16
10:07:25.281250,4.14
10:07:25.296875,1.68
10:07:25.312500,-1.43
10:07:25.328125,-5.26
10:07:25.343750,-9.75
10:07:25.359375,-14.74
10:07:25.375000,-20.00
10:07:25.390625,-25.37
10:07:25.406250,-30.77
10:07:25.421875,-36.27
10:07:25.437500,-42.07
10:07:25.453125,-48.42
10:07:25.468750,-55.42
10:07:25.484375,-62.84
10:07:25.500000,-70.04
10:07:25.515625,-75.94
10:07:25.531250,-79.31
10:07:25.546875,-79.09
10:07:25.562500,-74.80
10:07:25.578125,-66.69
10:07:25.593750,-55.65
10:07:25.609375,-42.99
10:07:25.625000,-29.94
10:07:25.640625,-17.50
10:07:25.656250,-6.26
10:07:25.671875,3.48
10:07:25.687500,11.60
10:07:25.703125,18.09
10:07:25.718750,23.10
10:07:25.734375,26.93
10:07:25.750000,29.99
10:07:25.765625,32.75
10:07:25.781250,35.51
10:07:25.796875,38.33
10:07:25.812500,41.05
10:07:25.828125,43.42
10:07:25.843750,45.28
10:07:25.859375,46.70
10:07:25.875000,47.82
10:07:25.890625,48.70
10:07:25.906250,49.24
10:07:25.921875,49.11
10:07:25.937500,47.99
10:07:25.953125,45.79
10:07:25.968750,42.79
10:07:25.984375,39.53
10:07:26,36.64
10:07:26.015625,34.59
10:07:26.031250,33.46
10:07:26.046875,33.04
10:07:26.062500,32.92
10:07:26.078125,32.64
10:07:26.093750,31.86
10:07:26.109375,30.34
10:07:26.125000,27.95
10:07:26.140625,24.73
10:07:26.156250,20.82
10:07:26.171875,16.57
10:07:26.187500,12.43
10:07:26.203125,8.84
10:07:26.218750,6.12
10:07:26.234375,4.34
10:07:26.250000,3.22
10:07:26.265625,2.27
10:07:26.281250,0.88
10:07:26.296875,-1.42
10:07:26.312500,-4.80
10:07:26.328125,-9.07
10:07:26.343750,-13.77
10:07:26.359375,-18.36
10:07:26.375000,-22.43
10:07:26.390625,-25.82
10:07:26.406250,-28.66
10:07:26.421875,-31.35
10:07:26.437500,-34.40
10:07:26.453125,-38.22
10:07:26.468750,-42.92
10:07:26.484375,-48.09
10:07:26.500000,-52.78
10:07:26.515625,-55.70
10:07:26.531250,-55.58
10:07:26.546875,-51.59
10:07:26.562500,-43.65
10:07:26.578125,-32.46
10:07:26.593750,-19.31
10:07:26.609375,-5.69
10:07:26.625000,7.00
10:07:26.640625,17.82
10:07:26.656250,26.25
10:07:26.671875,32.26
10:07:26.687500,36.11
10:07:26.703125,38.24
10:07:26.718750,39.08
10:07:26.734375,38.94
10:07:26.750000,38.00
10:07:26.765625,36.32
10:07:26.781250,33.98
10:07:26.796875,31.07
10:07:26.812500,27.79
10:07:26.828125,24.38
10:07:26.843750,21.09
10:07:26.859375,18.13
10:07:26.875000,15.70
10:07:26.890625,13.94
10:07:26.906250,12.89
10:07:26.921875,12.45
10:07:26.937500,12.39
10:07:26.953125,12.33
10:07:26.968750,11.93
10:07:26.984375,10.90
10:07:27,9.21
10:07:27.015625,6.94
10:07:27.031250,4.33
10:07:27.046875,1.62
10:07:27.062500,-1.01
10:07:27.078125,-3.44
10:07:27.093750,-5.65
10:07:27.109375,-7.68
10:07:27.125000,-9.59
10:07:27.140625,-11.48
10:07:27.156250,-13.43
10:07:27.171875,-15.49
10:07:27.187500,-17.67
10:07:27.203125,-19.92
10:07:27.218750,-22.09
10:07:27.234375,-24.06
10:07:27.250000,-25.72
10:07:27.265625,-27.11
10:07:27.281250,-28.38
10:07:27.296875,-29.76
10:07:27.312500,-31.53
10:07:27.328125,-33.89
10:07:27.343750,-36.98
10:07:27.359375,-40.77
10:07:27.375000,-45.07
10:07:27.390625,-49.40
10:07:27.406250,-53.07
10:07:27.421875,-55.21
10:07:27.437500,-55.08
10:07:27.453125,-52.21
10:07:27.468750,-46.62
10:07:27.484375,-38.78
10:07:27.500000,-29.43
10:07:27.515625,-19.39
10:07:27.531250,-9.34
10:07:27.546875,0.23
10:07:27.562500,8.96
10:07:27.578125,16.57
10:07:27.593750,22.79
10:07:27.609375,27.41
10:07:27.625000,30.37
10:07:27.640625,31.79
10:07:27.656250,31.98
10:07:27.671875,31.33
10:07:27.687500,30.22
10:07:27.703125,28.93
10:07:27.718750,27.65
10:07:27.734375,26.52
10:07:27.750000,25.66
10:07:27.765625,25.19
10:07:27.781250,25.25
10:07:27.796875,25.87
10:07:27.812500,26.98
10:07:27.828125,28.44
10:07:27.843750,30.08
10:07:27.859375,31.77
10:07:27.875000,33.38
10:07:27.890625,34.85
10:07:27.906250,36.03
10:07:27.921875,36.74
10:07:27.937500,36.72
10:07:27.953125,35.79
10:07:27.968750,33.81
10:07:27.984375,30.86
10:07:28,27.12
10:07:28.015625,22.89
10:07:28.031250,18.46
10:07:28.046875,13.98
10:07:28.062500,9.51
10:07:28.078125,4.95
10:07:28.093750,0.17
10:07:28.109375,-4.87
10:07:28.125000,-10.09
10:07:28.140625,-15.30
10:07:28.156250,-20.25
10:07:28.171875,-24.80
10:07:28.187500,-28.98
10:07:28.203125,-33.00
10:07:28.218750,-37.17
10:07:28.234375,-41.78
10:07:28.250000,-47.07
10:07:28.265625,-53.11
10:07:28.281250,-59.79
10:07:28.296875,-66.79
10:07:28.312500,-73.49
10:07:28.328125,-78.92
10:07:28.343750,-81.95
10:07:28.359375,-81.49
10:07:28.375000,-76.90
10:07:28.390625,-68.26
10:07:28.406250,-56.37
10:07:28.421875,-42.53
10:07:28.437500,-28.18
10:07:28.453125,-14.46
10:07:28.468750,-2.09
10:07:28.484375,8.65
10:07:28.500000,17.70
10:07:28.515625,25.10
10:07:28.531250,30.94
10:07:28.546875,35.34
10:07:28.562500,38.53
10:07:28.578125,40.88
10:07:28.593750,42.78
10:07:28.609375,44.47
10:07:28.625000,45.97
10:07:28.640625,47.10
10:07:28.656250,47.50
10:07:28.671875,46.91
10:07:28.687500,45.23
10:07:28.703125,42.64
10:07:28.718750,39.54
10:07:28.734375,36.33
10:07:28.750000,33.36
10:07:28.765625,30.75
10:07:28.781250,28.41
10:07:28.796875,26.19
10:07:28.812500,23.86
10:07:28.828125,21.32
10:07:28.843750,18.56
10:07:28.859375,15.69
10:07:28.875000,12.82
10:07:28.890625,10.10
10:07:28.906250,7.64
10:07:28.921875,5.51
10:07:28.937500,3.72
10:07:28.953125,2.17
10:07:28.968750,0.68
10:07:28.984375,-0.95
10:07:29,-2.88
10:07:29.015625,-5.12
10:07:29.031250,-7.55
10:07:29.046875,-9.97
10:07:29.062500,-12.23
10:07:29.078125,-14.24
10:07:29.093750,-16.01
10:07:29.109375,-17.57
10:07:29.125000,-18.92
10:07:29.140625,-20.04
10:07:29.156250,-20.98
10:07:29.171875,-21.87
10:07:29.187500,-23.02
10:07:29.203125,-24.86
10:07:29.218750,-27.80
10:07:29.234375,-32.16
10:07:29.250000,-37.98
10:07:29.265625,-45.00
10:07:29.281250,-52.52
10:07:29.296875,-59.43
10:07:29.312500,-64.34
10:07:29.328125,-65.89
10:07:29.343750,-63.16
10:07:29.359375,-55.96
10:07:29.375000,-45.01
10:07:29.390625,-31.64
10:07:29.406250,-17.45
10:07:29.421875,-3.82
10:07:29.437500,8.28
10:07:29.453125,18.43
10:07:29.468750,26.52
10:07:29.484375,32.64
10:07:29.500000,36.92
10:07:29.515625,39.52
10:07:29.531250,40.73
10:07:29.546875,40.88
10:07:29.562500,40.39
10:07:29.578125,39.60
10:07:29.593750,38.73
10:07:29.609375,37.87
10:07:29.625000,37.04
10:07:29.640625,36.25
10:07:29.656250,35.58
10:07:29.671875,35.24
10:07:29.687500,35.41
10:07:29.703125,36.20
10:07:29.718750,37.50
10:07:29.734375,39.03
10:07:29.750000,40.38
10:07:29.765625,41.12
10:07:29.781250,41.07
10:07:29.796875,40.21
10:07:29.812500,38.72
10:07:29.828125,36.79
10:07:29.843750,34.54
10:07:29.859375,31.99
10:07:29.875000,29.07
10:07:29.890625,25.71
10:07:29.906250,21.91
10:07:29.921875,17.79
10:07:29.937500,13.47
10:07:29.953125,9.16
10:07:29.968750,5.00
10:07:29.984375,1.08
10:07:30,-2.56
10:07:30.015625,-5.94
10:07:30.031250,-9.18
10:07:30.046875,-12.45
10:07:30.062500,-15.92
10:07:30.078125,-19.73
10:07:30.093750,-23.91
10:07:30.109375,-28.32
10:07:30.125000,-32.71
10:07:30.140625,-36.84
10:07:30.156250,-40.57
10:07:30.171875,-43.96
10:07:30.187500,-47.32
10:07:30.203125,-50.99
10:07:30.218750,-55.12
10:07:30.234375,-59.43
10:07:30.250000,-63.18
10:07:30.265625,-65.32
10:07:30.281250,-64.85
10:07:30.296875,-61.14
10:07:30.312500,-54.20
10:07:30.328125,-44.57
10:07:30.343750,-33.15
10:07:30.359375,-20.91
10:07:30.375000,-8.71
10:07:30.390625,2.80
10:07:30.406250,13.04
10:07:30.421875,21.62
10:07:30.437500,28.22
10:07:30.453125,32.84
10:07:30.468750,35.70
10:07:30.484375,37.27
10:07:30.500000,38.04
10:07:30.515625,38.32
10:07:30.531250,38.30
10:07:30.546875,37.99
10:07:30.562500,37.45
10:07:30.578125,36.87
10:07:30.593750,36.58
10:07:30.609375,36.89
10:07:30.625000,37.89
10:07:30.640625,39.37
10:07:30.656250,40.83
10:07:30.671875,41.69
10:07:30.687500,41.52
10:07:30.703125,40.20
10:07:30.718750,37.89
10:07:30.734375,34.91
10:07:30.750000,31.54
10:07:30.765625,27.99
10:07:30.781250,24.32
10:07:30.796875,20.57
10:07:30.812500,16.82
10:07:30.828125,13.22
10:07:30.843750,9.93
10:07:30.859375,7.01
10:07:30.875000,4.36
10:07:30.890625,1.75
10:07:30.906250,-1.11
10:07:30.921875,-4.44
10:07:30.937500,-8.28
10:07:30.953125,-12.54
10:07:30.968750,-17.02
10:07:30.984375,-21.53
10:07:31,-25.97
10:07:31.015625,-30.30
10:07:31.031250,-34.54
10:07:31.046875,-38.69
10:07:31.062500,-42.83
10:07:31.078125,-47.05
10:07:31.093750,-51.59
10:07:31.109375,-56.77
10:07:31.125000,-62.88
10:07:31.140625,-69.95
10:07:31.156250,-77.53
10:07:31.171875,-84.66
10:07:31.187500,-89.98
10:07:31.203125,-92.12
10:07:31.218750,-90.08
10:07:31.234375,-83.50
10:07:31.250000,-72.84
10:07:31.265625,-59.11
10:07:31.281250,-43.74
10:07:31.296875,-28.17
10:07:31.312500,-13.59
10:07:31.328125,-0.78
10:07:31.343750,9.90
10:07:31.359375,18.52
10:07:31.375000,25.36
10:07:31.390625,30.78
10:07:31.406250,35.10
10:07:31.421875,38.50
10:07:31.437500,41.03
10:07:31.453125,42.72
10:07:31.468750,43.62
10:07:31.484375,43.86
10:07:31.500000,43.61
10:07:31.515625,43.07
10:07:31.531250,42.40
10:07:31.546875,41.74
10:07:31.562500,41.22
10:07:31.578125,41.02
10:07:31.593750,41.28
10:07:31.609375,42.06
10:07:31.625000,43.24
10:07:31.640625,44.53
10:07:31.656250,45.52
10:07:31.671875,45.78
10:07:31.687500,45.07
10:07:31.703125,43.39
10:07:31.718750,40.96
10:07:31.734375,38.09
10:07:31.750000,35.05
10:07:31.765625,32.01
10:07:31.781250,28.96
10:07:31.796875,25.80
10:07:31.812500,22.42
10:07:31.828125,18.77
10:07:31.843750,14.87
10:07:31.859375,10.86
10:07:31.875000,6.94
10:07:31.890625,3.27
10:07:31.906250,-0.04
10:07:31.921875,-3.10
10:07:31.937500,-6.09
10:07:31.953125,-9.31
10:07:31.968750,-12.94
10:07:31.984375,-17.00
10:07:32,-21.31
10:07:32.015625,-25.55
10:07:32.031250,-29.47
10:07:32.046875,-32.94
10:07:32.062500,-36.14
10:07:32.078125,-39.37
10:07:32.093750,-43.06
10:07:32.109375,-47.54
10:07:32.125000,-53.01
10:07:32.140625,-59.41
10:07:32.156250,-66.35
10:07:32.171875,-73.13
10:07:32.187500,-78.72
10:07:32.203125,-81.95
10:07:32.218750,-81.74
10:07:32.234375,-77.43
10:07:32.250000,-68.98
10:07:32.265625,-57.01
10:07:32.281250,-42.66
10:07:32.296875,-27.29
10:07:32.312500,-12.21
10:07:32.328125,1.52
10:07:32.343750,13.21
10:07:32.359375,22.53
10:07:32.375000,29.52
10:07:32.390625,34.48
10:07:32.406250,37.93
10:07:32.421875,40.37
10:07:32.437500,42.24
10:07:32.453125,43.74
10:07:32.468750,44.93
10:07:32.484375,45.86
10:07:32.500000,46.57
10:07:32.515625,47.17
10:07:32.531250,47.72
10:07:32.546875,48.20
10:07:32.562500,48.47
10:07:32.578125,48.45
10:07:32.593750,48.24
10:07:32.609375,48.11
10:07:32.625000,48.45
10:07:32.640625,49.45
10:07:32.656250,51.02
10:07:32.671875,52.69
10:07:32.687500,53.80
10:07:32.703125,53.73
10:07:32.718750,52.16
10:07:32.734375,49.14
10:07:32.750000,44.93
10:07:32.765625,39.92
10:07:32.781250,34.32
10:07:32.796875,28.16
10:07:32.812500,21.38
10:07:32.828125,14.03
10:07:32.843750,6.50
10:07:32.859375,-0.49
10:07:32.875000,-6.14
10:07:32.890625,-9.93
10:07:32.906250,-11.95
10:07:32.921875,-12.95
10:07:32.937500,-14.09
10:07:32.953125,-16.42
10:07:32.968750,-20.53
10:07:32.984375,-26.34
10:07:33,-33.34
10:07:33.015625,-40.86
10:07:33.031250,-48.37
10:07:33.046875,-55.55
10:07:33.062500,-62.18
10:07:33.078125,-68.07
10:07:33.093750,-73.01
10:07:33.109375,-76.99
10:07:33.125000,-80.20
10:07:33.140625,-83.00
10:07:33.156250,-85.60
10:07:33.171875,-87.83
10:07:33.187500,-88.98
10:07:33.203125,-87.93
10:07:33.218750,-83.59
10:07:33.234375,-75.37
10:07:33.250000,-63.46
10:07:33.265625,-48.92
10:07:33.281250,-33.26
10:07:33.296875,-18.09
10:07:33.312500,-4.70
10:07:33.328125,6.24
10:07:33.343750,14.61
10:07:33.359375,20.81
10:07:33.375000,25.45
10:07:33.390625,29.23
10:07:33.406250,32.68
10:07:33.421875,36.11
10:07:33.437500,39.58
10:07:33.453125,42.95
10:07:33.468750,46.00
10:07:33.484375,48.50
10:07:33.500000,50.23
10:07:33.515625,50.97
10:07:33.531250,50.57
10:07:33.546875,48.98
10:07:33.562500,46.42
10:07:33.578125,43.37
10:07:33.593750,40.52
10:07:33.609375,38.48
10:07:33.625000,37.53
10:07:33.640625,37.51
10:07:33.656250,37.87
10:07:33.671875,37.96
10:07:33.687500,37.32
10:07:33.703125,35.84
10:07:33.718750,33.71
10:07:33.734375,31.21
10:07:33.750000,28.49
10:07:33.765625,25.51
10:07:33.781250,22.07
10:07:33.796875,17.97
10:07:33.812500,13.21
10:07:33.828125,8.03
10:07:33.843750,2.82
10:07:33.859375,-2.05
10:07:33.875000,-6.44
10:07:33.890625,-10.48
10:07:33.906250,-14.47
10:07:33.921875,-18.66
10:07:33.937500,-23.05
10:07:33.953125,-27.37
10:07:33.968750,-31.17
10:07:33.984375,-34.15
10:07:34,-36.32
10:07:34.015625,-38.10
10:07:34.031250,-40.15
10:07:34.046875,-43.14
10:07:34.062500,-47.41
10:07:34.078125,-52.80
10:07:34.093750,-58.65
10:07:34.109375,-63.89
10:07:34.125000,-67.36
10:07:34.140625,-68.00
10:07:34.156250,-65.20
10:07:34.171875,-58.94
10:07:34.187500,-49.81
10:07:34.203125,-38.80
10:07:34.218750,-27.05
10:07:34.234375,-15.54
10:07:34.250000,-4.97
10:07:34.265625,4.29
10:07:34.281250,12.10
10:07:34.296875,18.48
10:07:34.312500,23.51
10:07:34.328125,27.41
10:07:34.343750,30.40
10:07:34.359375,32.65
10:07:34.375000,34.28
10:07:34.390625,35.26
10:07:34.406250,35.59
10:07:34.421875,35.33
10:07:34.437500,34.74
10:07:34.453125,34.27
10:07:34.468750,34.37
10:07:34.484375,35.34
10:07:34.500000,37.23
10:07:34.515625,39.74
10:07:34.531250,42.35
10:07:34.546875,44.49
10:07:34.562500,45.68
10:07:34.578125,45.73
10:07:34.593750,44.71
10:07:34.609375,42.90
10:07:34.625000,40.65
10:07:34.640625,38.27
10:07:34.656250,35.92
10:07:34.671875,33.64
10:07:34.687500,31.39
10:07:34.703125,29.13
10:07:34.718750,26.84
10:07:34.734375,24.49
10:07:34.750000,22.06
10:07:34.765625,19.47
10:07:34.781250,16.65
10:07:34.796875,13.55
10:07:34.812500,10.15
10:07:34.828125,6.51
10:07:34.843750,2.69
10:07:34.859375,-1.27
10:07:34.875000,-5.36
10:07:34.890625,-9.57
10:07:34.906250,-13.91
10:07:34.921875,-18.30
10:07:34.937500,-22.61
10:07:34.953125,-26.74
10:07:34.968750,-30.65
10:07:34.984375,-34.51
10:07:35,-38.69
10:07:35.015625,-43.70
10:07:35.031250,-50.01
10:07:35.046875,-57.83
10:07:35.062500,-66.90
10:07:35.078125,-76.38
10:07:35.093750,-84.99
10:07:35.109375,-91.23
10:07:35.125000,-93.76
10:07:35.140625,-91.79
10:07:35.156250,-85.35
10:07:35.171875,-75.27
10:07:35.187500,-62.98
10:07:35.203125,-50.12
10:07:35.218750,-38.06
10:07:35.234375,-27.69
10:07:35.250000,-19.29
10:07:35.265625,-12.70
10:07:35.281250,-7.55
10:07:35.296875,-3.44
10:07:35.312500,-0.12
10:07:35.328125,2.62
10:07:35.343750,4.94
10:07:35.359375,7.03
10:07:35.375000,9.03
10:07:35.390625,11.03
10:07:35.406250,12.94
10:07:35.421875,14.63
10:07:35.437500,16.06
10:07:35.453125,17.31
10:07:35.468750,18.64
10:07:35.484375,20.34
10:07:35.500000,22.56
10:07:35.515625,25.19
10:07:35.531250,27.90
10:07:35.546875,30.30
10:07:35.562500,32.13
10:07:35.578125,33.32
10:07:35.593750,33.97
10:07:35.609375,34.22
10:07:35.625000,34.06
10:07:35.640625,33.31
10:07:35.656250,31.73
10:07:35.671875,29.21
10:07:35.687500,25.86
10:07:35.703125,22.06
10:07:35.718750,18.35
10:07:35.734375,15.20
10:07:35.750000,12.85
10:07:35.765625,11.23
10:07:35.781250,9.97
10:07:35.796875,8.62
10:07:35.812500,6.71
10:07:35.828125,4.02
10:07:35.843750,0.58
10:07:35.859375,-3.37
10:07:35.875000,-7.51
10:07:35.890625,-11.54
10:07:35.906250,-15.33
10:07:35.921875,-18.88
10:07:35.937500,-22.34
10:07:35.953125,-25.92
10:07:35.968750,-29.89
10:07:35.984375,-34.51
10:07:36,-39.97
10:07:36.015625,-46.21
10:07:36.031250,-52.82
10:07:36.046875,-58.93
10:07:36.062500,-63.37
10:07:36.078125,-64.93
10:07:36.093750,-62.75
10:07:36.109375,-56.59
10:07:36.125000,-46.89
10:07:36.140625,-34.70
10:07:36.156250,-21.34
10:07:36.171875,-8.03
10:07:36.187500,4.27
10:07:36.203125,15.03
10:07:36.218750,24.01
10:07:36.234375,31.17
10:07:36.250000,36.53
10:07:36.265625,40.11
10:07:36.281250,41.92
10:07:36.296875,42.05
10:07:36.312500,40.76
10:07:36.328125,38.43
10:07:36.343750,35.61
10:07:36.359375,32.87
10:07:36.375000,30.69
10:07:36.390625,29.44
10:07:36.406250,29.32
10:07:36.421875,30.41
10:07:36.437500,32.68
10:07:36.453125,36.02
10:07:36.468750,40.14
10:07:36.484375,44.65
10:07:36.500000,49.00
10:07:36.515625,52.61
10:07:36.531250,54.94
10:07:36.546875,55.65
10:07:36.562500,54.63
10:07:36.578125,52.06
10:07:36.593750,48.33
10:07:36.609375,43.83
10:07:36.625000,38.95
10:07:36.640625,33.90
10:07:36.656250,28.76
10:07:36.671875,23.58
10:07:36.687500,18.40
10:07:36.703125,13.30
10:07:36.718750,8.40
10:07:36.734375,3.78
10:07:36.750000,-0.62
10:07:36.765625,-4.96
10:07:36.781250,-9.45
10:07:36.796875,-14.27
10:07:36.812500,-19.48
10:07:36.828125,-24.97
10:07:36.843750,-30.57
10:07:36.859375,-36.09
10:07:36.875000,-41.38
10:07:36.890625,-46.39
10:07:36.906250,-51.21
10:07:36.921875,-56.02
10:07:36.937500,-61.08
10:07:36.953125,-66.57
10:07:36.968750,-72.39
10:07:36.984375,-77.97
10:07:37,-82.29
10:07:37.015625,-84.02
10:07:37.031250,-81.90
10:07:37.046875,-75.16
10:07:37.062500,-63.80
10:07:37.078125,-48.60
10:07:37.093750,-30.86
10:07:37.109375,-12.14
10:07:37.125000,6.09
10:07:37.140625,22.49
10:07:37.156250,36.03
10:07:37.171875,45.97
10:07:37.187500,52.07
10:07:37.203125,54.65
10:07:37.218750,54.54
10:07:37.234375,52.88
10:07:37.250000,50.75
10:07:37.265625,48.81
10:07:37.281250,47.27
10:07:37.296875,45.92
10:07:37.312500,44.50
10:07:37.328125,42.92
10:07:37.343750,41.38
10:07:37.359375,40.22
10:07:37.375000,39.74
10:07:37.390625,39.90
10:07:37.406250,40.31
10:07:37.421875,40.48
10:07:37.437500,40.00
10:07:37.453125,38.79
10:07:37.468750,37.11
10:07:37.484375,35.37
10:07:37.500000,33.84
10:07:37.515625,32.56
10:07:37.531250,31.27
10:07:37.546875,29.59
10:07:37.562500,27.22
10:07:37.578125,24.04
10:07:37.593750,20.19
10:07:37.609375,15.88
10:07:37.625000,11.37
10:07:37.640625,6.81
10:07:37.656250,2.25
10:07:37.671875,-2.27
10:07:37.687500,-6.72
10:07:37.703125,-11.00
10:07:37.718750,-15.02
10:07:37.734375,-18.75
10:07:37.750000,-22.30
10:07:37.765625,-25.84
10:07:37.781250,-29.54
10:07:37.796875,-33.47
10:07:37.812500,-37.49
10:07:37.828125,-41.32
10:07:37.843750,-44.68
10:07:37.859375,-47.54
10:07:37.875000,-50.17
10:07:37.890625,-53.11
10:07:37.906250,-56.95
10:07:37.921875,-61.99
10:07:37.937500,-68.00
10:07:37.953125,-74.13
10:07:37.968750,-79.12
10:07:37.984375,-81.57
10:07:38,-80.39
10:07:38.015625,-75.13
10:07:38.031250,-66.06
10:07:38.046875,-54.12
10:07:38.062500,-40.54
10:07:38.078125,-26.59
10:07:38.093750,-13.26
10:07:38.109375,-1.20
10:07:38.125000,9.27
10:07:38.140625,18.03
10:07:38.156250,25.10
10:07:38.171875,30.58
10:07:38.187500,34.60
10:07:38.203125,37.36
10:07:38.218750,39.06
10:07:38.234375,39.89
10:07:38.250000,40.03
10:07:38.265625,39.62
10:07:38.281250,38.81
10:07:38.296875,37.77
10:07:38.312500,36.76
10:07:38.328125,36.08
10:07:38.343750,36.00
10:07:38.359375,36.66
10:07:38.375000,38.00
10:07:38.390625,39.77
10:07:38.406250,41.56
10:07:38.421875,42.95
10:07:38.437500,43.65
10:07:38.453125,43.50
10:07:38.468750,42.56
10:07:38.484375,40.95
10:07:38.500000,38.86
10:07:38.515625,36.46
10:07:38.531250,33.87
10:07:38.546875,31.20
10:07:38.562500,28.44
10:07:38.578125,25.54
10:07:38.593750,22.37
10:07:38.609375,18.88
10:07:38.625000,15.08
10:07:38.640625,11.11
10:07:38.656250,7.13
10:07:38.671875,3.28
10:07:38.687500,-0.41
10:07:38.703125,-4.04
10:07:38.718750,-7.70
10:07:38.734375,-11.50
10:07:38.750000,-15.40
10:07:38.765625,-19.32
10:07:38.781250,-23.10
10:07:38.796875,-26.61
10:07:38.812500,-29.86
10:07:38.828125,-32.94
10:07:38.843750,-36.09
10:07:38.859375,-39.64
10:07:38.875000,-43.90
10:07:38.890625,-48.98
10:07:38.906250,-54.61
10:07:38.921875,-60.13
10:07:38.937500,-64.51
10:07:38.953125,-66.66
10:07:38.968750,-65.66
10:07:38.984375,-61.09
10:07:39,-53.17
10:07:39.015625,-42.66
10:07:39.031250,-30.68
10:07:39.046875,-18.35
10:07:39.062500,-6.65
10:07:39.078125,3.83
10:07:39.093750,12.79
10:07:39.109375,20.16
10:07:39.125000,25.98
10:07:39.140625,30.27
10:07:39.156250,33.07
10:07:39.171875,34.45
10:07:39.187500,34.57
10:07:39.203125,33.75
10:07:39.218750,32.37
10:07:39.234375,30.81
10:07:39.250000,29.36
10:07:39.265625,28.21
10:07:39.281250,27.43
10:07:39.296875,27.11
10:07:39.312500,27.27
10:07:39.328125,27.93
10:07:39.343750,28.97
10:07:39.359375,30.14
10:07:39.375000,31.10
10:07:39.390625,31.48
10:07:39.406250,31.07
10:07:39.421875,29.82
10:07:39.437500,27.92
10:07:39.453125,25.63
10:07:39.468750,23.14
10:07:39.484375,20.59
10:07:39.500000,17.94
10:07:39.515625,15.13
10:07:39.531250,12.11
10:07:39.546875,8.87
10:07:39.562500,5.49
10:07:39.578125,2.05
10:07:39.593750,-1.38
10:07:39.609375,-4.85
10:07:39.625000,-8.43
10:07:39.640625,-12.24
10:07:39.656250,-16.32
10:07:39.671875,-20.61
10:07:39.687500,-24.93
10:07:39.703125,-29.07
10:07:39.718750,-32.88
10:07:39.734375,-36.43
10:07:39.750000,-39.98
10:07:39.765625,-43.93
10:07:39.781250,-48.68
10:07:39.796875,-54.46
10:07:39.812500,-61.21
10:07:39.828125,-68.50
10:07:39.843750,-75.63
10:07:39.859375,-81.72
10:07:39.875000,-85.88
10:07:39.890625,-87.42
10:07:39.906250,-85.96
10:07:39.921875,-81.58
10:07:39.937500,-74.72
10:07:39.953125,-66.04
10:07:39.968750,-56.24
10:07:39.984375,-45.83
10:07:40,-35.14
10:07:40.015625,-24.40
10:07:40.031250,-13.85
10:07:40.046875,-3.84
10:07:40.062500,5.16
10:07:40.078125,12.73
10:07:40.093750,18.66
10:07:40.109375,23.09
10:07:40.125000,26.44
10:07:40.140625,29.32
10:07:40.156250,32.26
10:07:40.171875,35.58
10:07:40.187500,39.37
10:07:40.203125,43.55
10:07:40.218750,47.95
10:07:40.234375,52.44
10:07:40.250000,56.89
10:07:40.265625,61.22
10:07:40.281250,65.23
10:07:40.296875,68.65
10:07:40.312500,71.16
10:07:40.328125,72.46
10:07:40.343750,72.40
10:07:40.359375,71.06
10:07:40.375000,68.79
10:07:40.390625,66.05
10:07:40.406250,63.30
10:07:40.421875,60.77
10:07:40.437500,58.45
10:07:40.453125,56.04
10:07:40.468750,53.20
10:07:40.484375,49.65
10:07:40.500000,45.33
10:07:40.515625,40.44
10:07:40.531250,35.33
10:07:40.546875,30.32
10:07:40.562500,25.63
10:07:40.578125,21.26
10:07:40.593750,17.01
10:07:40.609375,12.59
10:07:40.625000,7.70
10:07:40.640625,2.20
10:07:40.656250,-3.83
10:07:40.671875,-10.07
10:07:40.687500,-16.02
10:07:40.703125,-21.20
10:07:40.718750,-25.40
10:07:40.734375,-28.76
10:07:40.750000,-31.79
10:07:40.765625,-35.25
10:07:40.781250,-39.77
10:07:40.796875,-45.67
10:07:40.812500,-52.69
10:07:40.828125,-59.99
10:07:40.843750,-66.35
10:07:40.859375,-70.41
10:07:40.875000,-71.11
10:07:40.890625,-67.92
10:07:40.906250,-61.00
10:07:40.921875,-51.11
10:07:40.937500,-39.34
10:07:40.953125,-26.83
10:07:40.968750,-14.55
10:07:40.984375,-3.11
10:07:41,7.16
10:07:41.015625,16.13
10:07:41.031250,23.76
10:07:41.046875,30.03
10:07:41.062500,34.89
10:07:41.078125,38.34
10:07:41.093750,40.42
10:07:41.109375,41.25
10:07:41.125000,41.04
10:07:41.140625,40.06
10:07:41.156250,38.57
10:07:41.171875,36.79
10:07:41.187500,34.87
10:07:41.203125,32.93
10:07:41.218750,31.03
10:07:41.234375,29.26
10:07:41.250000,27.65
10:07:41.265625,26.18
10:07:41.281250,24.71
10:07:41.296875,23.01
10:07:41.312500,20.93
10:07:41.328125,18.43
10:07:41.343750,15.58
10:07:41.359375,12.48
10:07:41.375000,9.16
10:07:41.390625,5.47
10:07:41.406250,1.21
10:07:41.421875,-3.69
10:07:41.437500,-9.04
