13:06:08,-0.00
13:06:08.015625,-0.00
13:06:08.031250,-0.00
13:06:08.046875,-0.00
13:06:08.062500,-0.00
13:06:08.078125,-0.00
13:06:08.093750,-0.00
13:06:08.109375,-0.00
13:06:08.125000,-0.00
13:06:08.140625,-0.00
13:06:08.156250,0.00
13:06:08.171875,0.01
13:06:08.187500,0.01
13:06:08.203125,-0.00
13:06:08.218750,-0.03
13:06:08.234375,-0.05
13:06:08.250000,-0.05
13:06:08.265625,0.00
13:06:08.281250,0.13
13:06:08.296875,0.36
13:06:08.312500,0.66
13:06:08.328125,1.01
13:06:08.343750,1.37
13:06:08.359375,1.72
13:06:08.375000,2.06
13:06:08.390625,2.40
13:06:08.406250,2.79
13:06:08.421875,3.24
13:06:08.437500,3.80
13:06:08.453125,4.42
13:06:08.468750,5.06
13:06:08.484375,5.66
13:06:08.500000,6.20
13:06:08.515625,6.68
13:06:08.531250,7.15
13:06:08.546875,7.68
13:06:08.562500,8.31
13:06:08.578125,9.14
13:06:08.593750,10.09
13:06:08.609375,11.04
13:06:08.625000,11.88
13:06:08.640625,12.56
13:06:08.656250,13.14
13:06:08.671875,13.76
13:06:08.687500,14.65
13:06:08.703125,15.96
13:06:08.718750,17.91
13:06:08.734375,20.32
13:06:08.750000,22.90
13:06:08.765625,25.38
13:06:08.781250,27.58
13:06:08.796875,29.57
13:06:08.812500,31.68
13:06:08.828125,34.32
13:06:08.843750,37.81
13:06:08.859375,42.54
13:06:08.875000,48.15
13:06:08.890625,54.10
13:06:08.906250,59.83
13:06:08.921875,64.97
13:06:08.937500,69.58
13:06:08.953125,74.14
13:06:08.968750,79.34
13:06:08.984375,85.71
13:06:09,93.76
13:06:09.015625,103.00
13:06:09.031250,112.62
13:06:09.046875,121.73
13:06:09.062500,129.77
13:06:09.078125,136.75
13:06:09.093750,143.30
13:06:09.109375,150.75
13:06:09.125000,157.77
13:06:09.140625,166.64
13:06:09.156250,177.95
13:06:09.171875,191.79
13:06:09.187500,206.97
13:06:09.203125,220.57
13:06:09.218750,228.25
13:06:09.234375,225.36
13:06:09.250000,208.53
13:06:09.265625,176.87
13:06:09.281250,132.76
13:06:09.296875,80.05
13:06:09.312500,23.07
13:06:09.328125,-34.94
13:06:09.343750,-92.44
13:06:09.359375,-149.16
13:06:09.375000,-205.23
13:06:09.390625,-260.37
13:06:09.406250,-313.74
13:06:09.421875,-363.87
13:06:09.437500,-409.83
13:06:09.453125,-450.91
13:06:09.468750,-486.50
13:06:09.484375,-515.74
13:06:09.500000,-537.23
13:06:09.515625,-549.22
13:06:09.531250,-549.96
13:06:09.546875,-538.37
13:06:09.562500,-514.20
13:06:09.578125,-478.67
13:06:09.593750,-433.88
13:06:09.609375,-382.45
13:06:09.625000,-327.03
13:06:09.640625,-269.85
13:06:09.656250,-212.63
13:06:09.671875,-156.64
13:06:09.687500,-102.92
13:06:09.703125,-52.34
13:06:09.718750,-5.89
13:06:09.734375,35.54
13:06:09.750000,71.31
13:06:09.765625,101.14
13:06:09.781250,125.21
13:06:09.796875,144.03
13:06:09.812500,158.32
13:06:09.828125,168.76
13:06:09.843750,175.97
13:06:09.859375,180.32
13:06:09.875000,182.09
13:06:09.890625,181.50
13:06:09.906250,178.86
13:06:09.921875,174.52
13:06:09.937500,168.91
13:06:09.953125,162.45
13:06:09.968750,155.44
13:06:09.984375,148.11
13:06:10,140.54
13:06:10.015625,132.80
13:06:10.031250,124.93
13:06:10.046875,117.03
13:06:10.062500,109.21
13:06:10.078125,101.60
13:06:10.093750,94.26
13:06:10.109375,87.19
13:06:10.125000,80.33
13:06:10.140625,73.57
13:06:10.156250,66.90
13:06:10.171875,60.35
13:06:10.187500,54.06
13:06:10.203125,48.19
13:06:10.218750,42.86
13:06:10.234375,38.08
13:06:10.250000,33.73
13:06:10.265625,29.57
13:06:10.281250,25.38
13:06:10.296875,21.08
13:06:10.312500,16.72
13:06:10.328125,12.56
13:06:10.343750,8.88
13:06:10.359375,5.87
13:06:10.375000,3.55
13:06:10.390625,1.68
13:06:10.406250,-0.12
13:06:10.421875,-2.19
13:06:10.437500,-4.67
13:06:10.453125,-7.44
13:06:10.468750,-10.14
13:06:10.484375,-12.38
13:06:10.500000,-13.92
13:06:10.515625,-14.81
13:06:10.531250,-15.34
13:06:10.546875,-15.90
13:06:10.562500,-16.76
13:06:10.578125,-18.04
13:06:10.593750,-19.82
13:06:10.609375,-22.25
13:06:10.625000,-25.37
13:06:10.640625,-28.88
13:06:10.656250,-31.71
13:06:10.671875,-32.20
13:06:10.687500,-28.69
13:06:10.703125,-20.50
13:06:10.718750,-8.48
13:06:10.734375,5.20
13:06:10.750000,17.98
13:06:10.765625,28.07
13:06:10.781250,35.03
13:06:10.796875,39.50
13:06:10.812500,42.38
13:06:10.828125,44.01
13:06:10.843750,44.06
13:06:10.859375,41.99
13:06:10.875000,37.83
13:06:10.890625,32.47
13:06:10.906250,27.30
13:06:10.921875,23.53
13:06:10.937500,21.53
13:06:10.953125,20.76
13:06:10.968750,20.17
13:06:10.984375,18.90
13:06:11,16.62
13:06:11.015625,13.64
13:06:11.031250,10.74
13:06:11.046875,8.78
13:06:11.062500,8.30
13:06:11.078125,9.37
13:06:11.093750,11.49
13:06:11.109375,13.72
13:06:11.125000,15.09
13:06:11.140625,14.91
13:06:11.156250,13.03
13:06:11.171875,9.81
13:06:11.187500,5.98
13:06:11.203125,2.29
13:06:11.218750,-0.70
13:06:11.234375,-2.71
13:06:11.250000,-3.77
13:06:11.265625,-4.03
13:06:11.281250,-3.65
13:06:11.296875,-2.75
13:06:11.312500,-1.47
13:06:11.328125,0.05
13:06:11.343750,1.45
13:06:11.359375,2.29
13:06:11.375000,2.23
13:06:11.390625,1.24
13:06:11.406250,-0.27
13:06:11.421875,-1.60
13:06:11.437500,-2.03
13:06:11.453125,-1.27
13:06:11.468750,0.47
13:06:11.484375,2.61
13:06:11.500000,4.56
13:06:11.515625,6.12
13:06:11.531250,7.48
13:06:11.546875,9.06
13:06:11.562500,11.09
13:06:11.578125,13.40
13:06:11.593750,15.51
13:06:11.609375,16.89
13:06:11.625000,17.25
13:06:11.640625,16.65
13:06:11.656250,15.41
13:06:11.671875,13.79
13:06:11.687500,11.91
13:06:11.703125,9.78
13:06:11.718750,7.19
13:06:11.734375,4.11
13:06:11.750000,0.75
13:06:11.765625,-2.61
13:06:11.781250,-5.72
13:06:11.796875,-8.50
13:06:11.812500,-11.01
13:06:11.828125,-13.33
13:06:11.843750,-15.48
13:06:11.859375,-17.31
13:06:11.875000,-18.59
13:06:11.890625,-19.08
13:06:11.906250,-18.67
13:06:11.921875,-17.44
13:06:11.937500,-15.58
13:06:11.953125,-13.39
13:06:11.968750,-11.15
13:06:11.984375,-9.15
13:06:12,-7.62
13:06:12.015625,-6.71
13:06:12.031250,-6.41
13:06:12.046875,-6.61
13:06:12.062500,-7.04
13:06:12.078125,-7.43
13:06:12.093750,-7.59
13:06:12.109375,-7.49
13:06:12.125000,-7.24
13:06:12.140625,-7.01
13:06:12.156250,-6.88
13:06:12.171875,-6.85
13:06:12.187500,-6.83
13:06:12.203125,-6.69
13:06:12.218750,-6.39
13:06:12.234375,-5.96
13:06:12.250000,-5.49
13:06:12.265625,-4.97
13:06:12.281250,-4.39
13:06:12.296875,-3.67
13:06:12.312500,-2.73
13:06:12.328125,-1.60
13:06:12.343750,-0.35
13:06:12.359375,0.87
13:06:12.375000,1.88
13:06:12.390625,2.55
13:06:12.406250,2.83
13:06:12.421875,2.76
13:06:12.437500,2.45
13:06:12.453125,2.09
13:06:12.468750,1.85
13:06:12.484375,1.83
13:06:12.500000,1.98
13:06:12.515625,2.14
13:06:12.531250,2.08
13:06:12.546875,1.68
13:06:12.562500,0.97
13:06:12.578125,0.11
13:06:12.593750,-0.65
13:06:12.609375,-1.14
13:06:12.625000,-1.33
13:06:12.640625,-1.33
13:06:12.656250,-1.33
13:06:12.671875,-1.49
13:06:12.687500,-1.84
13:06:12.703125,-2.30
13:06:12.718750,-2.71
13:06:12.734375,-2.88
13:06:12.750000,-2.68
13:06:12.765625,-2.06
13:06:12.781250,-1.08
13:06:12.796875,0.10
13:06:12.812500,1.30
13:06:12.828125,2.35
13:06:12.843750,3.15
13:06:12.859375,3.73
13:06:12.875000,4.16
13:06:12.890625,4.53
13:06:12.906250,4.88
13:06:12.921875,5.11
13:06:12.937500,5.12
13:06:12.953125,4.83
13:06:12.968750,4.29
13:06:12.984375,3.69
13:06:13,3.27
13:06:13.015625,3.24
13:06:13.031250,3.64
13:06:13.046875,4.32
13:06:13.062500,4.99
13:06:13.078125,5.35
13:06:13.093750,5.20
13:06:13.109375,4.54
13:06:13.125000,3.50
13:06:13.140625,2.38
13:06:13.156250,1.41
13:06:13.171875,0.81
13:06:13.187500,0.64
13:06:13.203125,0.87
13:06:13.218750,1.37
13:06:13.234375,1.94
13:06:13.250000,2.34
13:06:13.265625,2.34
13:06:13.281250,1.83
13:06:13.296875,0.82
13:06:13.312500,-0.46
13:06:13.328125,-1.70
13:06:13.343750,-2.61
13:06:13.359375,-3.07
13:06:13.375000,-3.14
13:06:13.390625,-3.06
13:06:13.406250,-3.08
13:06:13.421875,-3.39
13:06:13.437500,-4.06
13:06:13.453125,-5.00
13:06:13.468750,-6.09
13:06:13.484375,-7.08
13:06:13.500000,-7.71
13:06:13.515625,-7.66
13:06:13.531250,-6.76
13:06:13.546875,-5.02
13:06:13.562500,-2.74
13:06:13.578125,-0.40
13:06:13.593750,1.52
13:06:13.609375,2.76
13:06:13.625000,3.34
13:06:13.640625,3.50
13:06:13.656250,3.52
13:06:13.671875,3.57
13:06:13.687500,3.67
13:06:13.703125,3.73
13:06:13.718750,3.65
13:06:13.734375,3.42
13:06:13.750000,3.11
13:06:13.765625,2.79
13:06:13.781250,2.52
13:06:13.796875,2.33
13:06:13.812500,2.19
13:06:13.828125,2.13
13:06:13.843750,2.16
13:06:13.859375,2.30
13:06:13.875000,2.54
13:06:13.890625,2.82
13:06:13.906250,3.05
13:06:13.921875,3.18
13:06:13.937500,3.21
13:06:13.953125,3.19
13:06:13.968750,3.15
13:06:13.984375,3.08
13:06:14,2.92
13:06:14.015625,2.62
13:06:14.031250,2.11
13:06:14.046875,1.43
13:06:14.062500,0.69
13:06:14.078125,0.04
13:06:14.093750,-0.42
13:06:14.109375,-0.71
13:06:14.125000,-0.90
13:06:14.140625,-1.16
13:06:14.156250,-1.63
13:06:14.171875,-2.38
13:06:14.187500,-3.39
13:06:14.203125,-4.56
13:06:14.218750,-5.69
13:06:14.234375,-6.61
13:06:14.250000,-7.19
13:06:14.265625,-7.42
13:06:14.281250,-7.37
13:06:14.296875,-7.24
13:06:14.312500,-7.24
13:06:14.328125,-7.54
13:06:14.343750,-8.18
13:06:14.359375,-9.08
13:06:14.375000,-9.98
13:06:14.390625,-10.49
13:06:14.406250,-10.32
13:06:14.421875,-9.30
13:06:14.437500,-7.55
13:06:14.453125,-5.40
13:06:14.468750,-3.26
13:06:14.484375,-1.42
13:06:14.500000,0.06
13:06:14.515625,1.33
13:06:14.531250,2.56
13:06:14.546875,3.83
13:06:14.562500,4.97
13:06:14.578125,5.72
13:06:14.593750,5.86
13:06:14.609375,5.35
13:06:14.625000,4.40
13:06:14.640625,3.36
13:06:14.656250,2.59
13:06:14.671875,2.28
13:06:14.687500,2.46
13:06:14.703125,3.00
13:06:14.718750,3.81
13:06:14.734375,4.81
13:06:14.750000,6.04
13:06:14.765625,7.51
13:06:14.781250,9.17
13:06:14.796875,10.80
13:06:14.812500,12.10
13:06:14.828125,12.79
13:06:14.843750,12.73
13:06:14.859375,12.01
13:06:14.875000,10.88
13:06:14.890625,9.64
13:06:14.906250,8.55
13:06:14.921875,7.70
13:06:14.937500,7.03
13:06:14.953125,6.48
13:06:14.968750,5.98
13:06:14.984375,5.57
13:06:15,5.31
13:06:15.015625,5.27
13:06:15.031250,5.43
13:06:15.046875,5.74
13:06:15.062500,6.14
13:06:15.078125,6.59
13:06:15.093750,7.07
13:06:15.109375,7.55
13:06:15.125000,7.96
13:06:15.140625,8.17
13:06:15.156250,8.05
13:06:15.171875,7.43
13:06:15.187500,6.21
13:06:15.203125,4.35
13:06:15.218750,1.92
13:06:15.234375,-0.94
13:06:15.250000,-3.92
13:06:15.265625,-6.67
13:06:15.281250,-8.88
13:06:15.296875,-10.42
13:06:15.312500,-11.44
13:06:15.328125,-12.29
13:06:15.343750,-13.39
13:06:15.359375,-14.98
13:06:15.375000,-17.01
13:06:15.390625,-19.13
13:06:15.406250,-20.93
13:06:15.421875,-22.08
13:06:15.437500,-22.46
13:06:15.453125,-22.15
13:06:15.468750,-21.24
13:06:15.484375,-19.85
13:06:15.500000,-18.05
13:06:15.515625,-15.97
13:06:15.531250,-13.81
13:06:15.546875,-11.74
13:06:15.562500,-9.82
13:06:15.578125,-7.91
13:06:15.593750,-5.82
13:06:15.609375,-3.46
13:06:15.625000,-1.02
13:06:15.640625,1.17
13:06:15.656250,2.73
13:06:15.671875,3.56
13:06:15.687500,3.96
13:06:15.703125,4.44
13:06:15.718750,5.56
13:06:15.734375,7.58
13:06:15.750000,10.49
13:06:15.765625,13.87
13:06:15.781250,16.89
13:06:15.796875,18.37
13:06:15.812500,17.07
13:06:15.828125,12.24
13:06:15.843750,4.25
13:06:15.859375,-5.17
13:06:15.875000,-13.44
13:06:15.890625,-18.22
13:06:15.906250,-18.50
13:06:15.921875,-15.06
13:06:15.937500,-9.84
13:06:15.953125,-4.89
13:06:15.968750,-1.28
13:06:15.984375,1.01
13:06:16,2.57
13:06:16.015625,3.75
13:06:16.031250,4.19
13:06:16.046875,3.15
13:06:16.062500,0.07
13:06:16.078125,-4.81
13:06:16.093750,-10.46
13:06:16.109375,-15.44
13:06:16.125000,-18.62
13:06:16.140625,-19.53
13:06:16.156250,-18.46
13:06:16.171875,-16.27
13:06:16.187500,-14.04
13:06:16.203125,-12.74
13:06:16.218750,-12.89
13:06:16.234375,-14.42
13:06:16.250000,-16.72
13:06:16.265625,-18.83
13:06:16.281250,-19.86
13:06:16.296875,-19.30
13:06:16.312500,-17.08
13:06:16.328125,-13.51
13:06:16.343750,-9.01
13:06:16.359375,-4.09
13:06:16.375000,0.69
13:06:16.390625,4.74
13:06:16.406250,7.50
13:06:16.421875,8.73
13:06:16.437500,8.60
13:06:16.453125,7.69
13:06:16.468750,6.80
13:06:16.484375,6.59
13:06:16.500000,7.31
13:06:16.515625,8.77
13:06:16.531250,10.41
13:06:16.546875,11.63
13:06:16.562500,11.99
13:06:16.578125,11.43
13:06:16.593750,10.20
13:06:16.609375,8.73
13:06:16.625000,7.44
13:06:16.640625,6.55
13:06:16.656250,6.12
13:06:16.671875,6.00
13:06:16.687500,6.07
13:06:16.703125,6.24
13:06:16.718750,6.45
13:06:16.734375,6.69
13:06:16.750000,6.88
13:06:16.765625,6.96
13:06:16.781250,6.84
13:06:16.796875,6.57
13:06:16.812500,6.34
13:06:16.828125,6.40
13:06:16.843750,6.87
13:06:16.859375,7.61
13:06:16.875000,8.11
13:06:16.890625,7.67
13:06:16.906250,5.77
13:06:16.921875,2.48
13:06:16.937500,-1.33
13:06:16.953125,-4.18
13:06:16.968750,-4.46
13:06:16.984375,-1.15
13:06:17,5.62
13:06:17.015625,14.49
13:06:17.031250,23.28
13:06:17.046875,29.74
13:06:17.062500,32.35
13:06:17.078125,30.72
13:06:17.093750,25.61
13:06:17.109375,18.58
13:06:17.125000,11.42
13:06:17.140625,5.67
13:06:17.156250,2.31
13:06:17.171875,1.50
13:06:17.187500,2.68
13:06:17.203125,4.74
13:06:17.218750,6.36
13:06:17.234375,6.45
13:06:17.250000,4.47
13:06:17.265625,0.65
13:06:17.281250,-4.12
13:06:17.296875,-8.64
13:06:17.312500,-11.74
13:06:17.328125,-12.75
13:06:17.343750,-11.64
13:06:17.359375,-9.02
13:06:17.375000,-5.89
13:06:17.390625,-3.33
13:06:17.406250,-2.06
13:06:17.421875,-2.19
13:06:17.437500,-3.13
13:06:17.453125,-3.84
13:06:17.468750,-3.25
13:06:17.484375,-0.74
13:06:17.500000,3.60
13:06:17.515625,8.90
13:06:17.531250,13.85
13:06:17.546875,17.17
13:06:17.562500,18.02
13:06:17.578125,16.23
13:06:17.593750,12.38
13:06:17.609375,7.54
13:06:17.625000,2.89
13:06:17.640625,-0.62
13:06:17.656250,-2.68
13:06:17.671875,-3.62
13:06:17.687500,-4.25
13:06:17.703125,-5.47
13:06:17.718750,-7.78
13:06:17.734375,-10.98
13:06:17.750000,-14.21
13:06:17.765625,-16.29
13:06:17.781250,-16.24
13:06:17.796875,-13.70
13:06:17.812500,-9.06
13:06:17.828125,-3.33
13:06:17.843750,2.34
13:06:17.859375,6.92
13:06:17.875000,9.84
13:06:17.890625,10.92
13:06:17.906250,10.29
13:06:17.921875,8.28
13:06:17.937500,5.28
13:06:17.953125,1.79
13:06:17.968750,-1.69
13:06:17.984375,-4.78
13:06:18,-7.34
13:06:18.015625,-9.45
13:06:18.031250,-11.32
13:06:18.046875,-13.16
13:06:18.062500,-15.07
13:06:18.078125,-17.06
13:06:18.093750,-19.21
13:06:18.109375,-21.64
13:06:18.125000,-24.50
13:06:18.140625,-27.71
13:06:18.156250,-30.85
13:06:18.171875,-33.18
13:06:18.187500,-33.86
13:06:18.203125,-32.32
13:06:18.218750,-28.53
13:06:18.234375,-23.09
13:06:18.250000,-16.98
13:06:18.265625,-11.29
13:06:18.281250,-6.80
13:06:18.296875,-3.76
13:06:18.312500,-1.95
13:06:18.328125,-0.81
13:06:18.343750,0.23
13:06:18.359375,1.56
13:06:18.375000,3.23
13:06:18.390625,5.02
13:06:18.406250,6.63
13:06:18.421875,7.80
13:06:18.437500,8.45
13:06:18.453125,8.62
13:06:18.468750,8.40
13:06:18.484375,7.86
13:06:18.500000,7.02
13:06:18.515625,5.92
13:06:18.531250,4.72
13:06:18.546875,3.58
13:06:18.562500,2.71
13:06:18.578125,2.24
13:06:18.593750,2.23
13:06:18.609375,2.61
13:06:18.625000,3.25
13:06:18.640625,3.90
13:06:18.656250,4.29
13:06:18.671875,4.23
13:06:18.687500,3.60
13:06:18.703125,2.51
13:06:18.718750,1.22
13:06:18.734375,0.06
13:06:18.750000,-0.70
13:06:18.765625,-0.93
13:06:18.781250,-0.69
13:06:18.796875,-0.18
13:06:18.812500,0.30
13:06:18.828125,0.46
13:06:18.843750,0.05
13:06:18.859375,-1.03
13:06:18.875000,-2.76
13:06:18.890625,-4.97
13:06:18.906250,-7.40
13:06:18.921875,-9.74
13:06:18.937500,-11.73
13:06:18.953125,-13.16
13:06:18.968750,-13.84
13:06:18.984375,-13.63
13:06:19,-12.48
13:06:19.015625,-10.49
13:06:19.031250,-7.90
13:06:19.046875,-5.09
13:06:19.062500,-2.46
13:06:19.078125,-0.32
13:06:19.093750,1.19
13:06:19.109375,2.15
13:06:19.125000,2.78
13:06:19.140625,3.33
13:06:19.156250,3.93
13:06:19.171875,4.61
13:06:19.187500,5.24
13:06:19.203125,5.69
13:06:19.218750,5.90
13:06:19.234375,5.96
13:06:19.250000,6.08
13:06:19.265625,6.44
13:06:19.281250,7.09
13:06:19.296875,7.86
13:06:19.312500,8.45
13:06:19.328125,8.56
13:06:19.343750,8.07
13:06:19.359375,7.11
13:06:19.375000,5.98
13:06:19.390625,5.00
13:06:19.406250,4.36
13:06:19.421875,4.05
13:06:19.437500,3.86
13:06:19.453125,3.57
13:06:19.468750,2.99
13:06:19.484375,2.09
13:06:19.500000,0.92
13:06:19.515625,-0.37
13:06:19.531250,-1.69
13:06:19.546875,-2.97
13:06:19.562500,-4.29
13:06:19.578125,-5.80
13:06:19.593750,-7.67
13:06:19.609375,-10.02
13:06:19.625000,-12.80
13:06:19.640625,-15.77
13:06:19.656250,-18.60
13:06:19.671875,-21.02
13:06:19.687500,-22.91
13:06:19.703125,-24.32
13:06:19.718750,-25.38
13:06:19.734375,-26.11
13:06:19.750000,-26.32
13:06:19.765625,-25.65
13:06:19.781250,-23.76
13:06:19.796875,-20.52
13:06:19.812500,-16.14
13:06:19.828125,-11.09
13:06:19.843750,-5.87
13:06:19.859375,-0.87
13:06:19.875000,3.75
13:06:19.890625,7.99
13:06:19.906250,11.86
13:06:19.921875,15.29
13:06:19.937500,18.13
13:06:19.953125,20.26
13:06:19.968750,21.69
13:06:19.984375,22.58
13:06:20,23.15
13:06:20.015625,23.54
13:06:20.031250,23.74
13:06:20.046875,23.60
13:06:20.062500,22.94
13:06:20.078125,21.76
13:06:20.093750,20.22
13:06:20.109375,18.62
13:06:20.125000,17.23
13:06:20.140625,16.10
13:06:20.156250,15.13
13:06:20.171875,14.08
13:06:20.187500,12.80
13:06:20.203125,11.34
13:06:20.218750,9.93
13:06:20.234375,8.80
13:06:20.250000,8.06
13:06:20.265625,7.55
13:06:20.281250,6.92
13:06:20.296875,5.83
13:06:20.312500,4.10
13:06:20.328125,1.84
13:06:20.343750,-0.59
13:06:20.359375,-2.76
13:06:20.375000,-4.31
13:06:20.390625,-5.12
13:06:20.406250,-5.37
13:06:20.421875,-5.46
13:06:20.437500,-5.86
13:06:20.453125,-6.96
13:06:20.468750,-8.87
13:06:20.484375,-11.35
13:06:20.500000,-13.82
13:06:20.515625,-15.56
13:06:20.531250,-15.97
13:06:20.546875,-14.81
13:06:20.562500,-12.22
13:06:20.578125,-8.66
13:06:20.593750,-4.71
13:06:20.609375,-0.80
13:06:20.625000,2.81
13:06:20.640625,5.98
13:06:20.656250,8.67
13:06:20.671875,10.78
13:06:20.687500,12.27
13:06:20.703125,13.12
13:06:20.718750,13.37
13:06:20.734375,13.15
13:06:20.750000,12.56
13:06:20.765625,11.67
13:06:20.781250,10.49
13:06:20.796875,9.05
13:06:20.812500,7.38
13:06:20.828125,5.54
13:06:20.843750,3.61
13:06:20.859375,1.64
13:06:20.875000,-0.28
13:06:20.890625,-2.06
13:06:20.906250,-3.54
13:06:20.921875,-4.55
13:06:20.937500,-5.01
13:06:20.953125,-4.99
13:06:20.968750,-4.69
13:06:20.984375,-4.33
13:06:21,-4.07
13:06:21.015625,-3.93
13:06:21.031250,-3.79
13:06:21.046875,-3.52
13:06:21.062500,-3.05
13:06:21.078125,-2.44
13:06:21.093750,-1.86
13:06:21.109375,-1.44
13:06:21.125000,-1.25
13:06:21.140625,-1.25
13:06:21.156250,-1.39
13:06:21.171875,-1.64
13:06:21.187500,-2.10
13:06:21.203125,-2.98
13:06:21.218750,-4.42
13:06:21.234375,-6.50
13:06:21.250000,-9.10
13:06:21.265625,-12.00
13:06:21.281250,-14.92
13:06:21.296875,-17.64
13:06:21.312500,-20.03
13:06:21.328125,-22.00
13:06:21.343750,-23.45
13:06:21.359375,-24.12
13:06:21.375000,-23.70
13:06:21.390625,-21.89
13:06:21.406250,-18.63
13:06:21.421875,-14.21
13:06:21.437500,-9.27
13:06:21.453125,-4.55
13:06:21.468750,-0.70
13:06:21.484375,2.04
13:06:21.500000,3.75
13:06:21.515625,4.71
13:06:21.531250,5.18
13:06:21.546875,5.28
13:06:21.562500,4.97
13:06:21.578125,4.25
13:06:21.593750,3.24
13:06:21.609375,2.24
13:06:21.625000,1.60
13:06:21.640625,1.60
13:06:21.656250,2.39
13:06:21.671875,4.01
13:06:21.687500,6.40
13:06:21.703125,9.49
13:06:21.718750,13.16
13:06:21.734375,17.24
13:06:21.750000,21.53
13:06:21.765625,25.78
13:06:21.781250,29.66
13:06:21.796875,32.72
13:06:21.812500,34.45
13:06:21.828125,34.36
13:06:21.843750,32.22
13:06:21.859375,28.17
13:06:21.875000,22.86
13:06:21.890625,17.25
13:06:21.906250,12.42
13:06:21.921875,9.13
13:06:21.937500,7.62
13:06:21.953125,7.63
13:06:21.968750,8.47
13:06:21.984375,9.35
13:06:22,9.58
13:06:22.015625,8.83
13:06:22.031250,7.07
13:06:22.046875,4.64
13:06:22.062500,2.10
13:06:22.078125,0.07
13:06:22.093750,-1.01
13:06:22.109375,-0.97
13:06:22.125000,-0.02
13:06:22.140625,1.31
13:06:22.156250,2.32
13:06:22.171875,2.35
13:06:22.187500,0.96
13:06:22.203125,-1.96
13:06:22.218750,-6.19
13:06:22.234375,-11.23
13:06:22.250000,-16.39
13:06:22.265625,-20.95
13:06:22.281250,-24.23
13:06:22.296875,-25.69
13:06:22.312500,-25.08
13:06:22.328125,-22.48
13:06:22.343750,-18.38
13:06:22.359375,-13.55
13:06:22.375000,-8.92
13:06:22.390625,-5.18
13:06:22.406250,-2.63
13:06:22.421875,-1.06
13:06:22.437500,0.08
13:06:22.453125,1.38
13:06:22.468750,3.13
13:06:22.484375,5.28
13:06:22.500000,7.54
13:06:22.515625,9.59
13:06:22.531250,11.32
13:06:22.546875,12.81
13:06:22.562500,14.17
13:06:22.578125,15.40
13:06:22.593750,16.39
13:06:22.609375,17.00
13:06:22.625000,17.24
13:06:22.640625,17.31
13:06:22.656250,17.47
13:06:22.671875,17.91
13:06:22.687500,18.56
13:06:22.703125,19.16
13:06:22.718750,19.44
13:06:22.734375,19.22
13:06:22.750000,18.56
13:06:22.765625,17.64
13:06:22.781250,16.76
13:06:22.796875,16.16
13:06:22.812500,15.96
13:06:22.828125,16.14
13:06:22.843750,16.42
13:06:22.859375,16.38
13:06:22.875000,15.48
13:06:22.890625,13.36
13:06:22.906250,10.00
13:06:22.921875,5.86
13:06:22.937500,1.68
13:06:22.953125,-1.72
13:06:22.968750,-3.87
13:06:22.984375,-4.74
13:06:23,-4.74
13:06:23.015625,-4.53
13:06:23.031250,-4.67
13:06:23.046875,-5.47
13:06:23.062500,-6.92
13:06:23.078125,-8.78
13:06:23.093750,-10.69
13:06:23.109375,-12.37
13:06:23.125000,-13.64
13:06:23.140625,-14.41
13:06:23.156250,-14.71
13:06:23.171875,-14.66
13:06:23.187500,-14.50
13:06:23.203125,-14.57
13:06:23.218750,-15.28
13:06:23.234375,-16.83
13:06:23.250000,-19.09
13:06:23.265625,-21.58
13:06:23.281250,-23.59
13:06:23.296875,-24.55
13:06:23.312500,-24.23
13:06:23.328125,-22.89
13:06:23.343750,-21.09
13:06:23.359375,-19.35
13:06:23.375000,-17.97
13:06:23.390625,-16.89
13:06:23.406250,-15.85
13:06:23.421875,-14.70
13:06:23.437500,-13.44
13:06:23.453125,-12.24
13:06:23.468750,-11.30
13:06:23.484375,-10.67
13:06:23.500000,-10.28
13:06:23.515625,-10.00
13:06:23.531250,-9.78
13:06:23.546875,-9.70
13:06:23.562500,-9.88
13:06:23.578125,-10.35
13:06:23.593750,-10.94
13:06:23.609375,-11.26
13:06:23.625000,-10.85
13:06:23.640625,-9.28
13:06:23.656250,-6.42
13:06:23.671875,-2.46
13:06:23.687500,2.08
13:06:23.703125,6.48
13:06:23.718750,10.11
13:06:23.734375,12.59
13:06:23.750000,13.94
13:06:23.765625,14.50
13:06:23.781250,14.75
13:06:23.796875,15.06
13:06:23.812500,15.56
13:06:23.828125,16.10
13:06:23.843750,16.37
13:06:23.859375,16.06
13:06:23.875000,14.97
13:06:23.890625,13.05
13:06:23.906250,10.42
13:06:23.921875,7.31
13:06:23.937500,4.04
13:06:23.953125,0.98
13:06:23.968750,-1.59
13:06:23.984375,-3.53
13:06:24,-4.92
13:06:24.015625,-6.02
13:06:24.031250,-7.19
13:06:24.046875,-8.70
13:06:24.062500,-10.65
13:06:24.078125,-12.93
13:06:24.093750,-15.27
13:06:24.109375,-17.32
13:06:24.125000,-18.75
13:06:24.140625,-19.29
13:06:24.156250,-18.79
13:06:24.171875,-17.23
13:06:24.187500,-14.78
13:06:24.203125,-11.68
13:06:24.218750,-8.27
13:06:24.234375,-4.81
13:06:24.250000,-1.49
13:06:24.265625,1.69
13:06:24.281250,4.85
13:06:24.296875,8.15
13:06:24.312500,11.71
13:06:24.328125,15.44
13:06:24.343750,19.01
13:06:24.359375,21.90
13:06:24.375000,23.63
13:06:24.390625,23.95
13:06:24.406250,23.00
13:06:24.421875,21.35
13:06:24.437500,19.73
13:06:24.453125,18.75
13:06:24.468750,18.69
13:06:24.484375,19.42
13:06:24.500000,20.54
13:06:24.515625,21.61
13:06:24.531250,22.34
13:06:24.546875,22.66
13:06:24.562500,22.61
13:06:24.578125,22.32
13:06:24.593750,21.84
13:06:24.609375,21.14
13:06:24.625000,20.13
13:06:24.640625,18.65
13:06:24.656250,16.60
13:06:24.671875,14.01
13:06:24.687500,11.07
13:06:24.703125,8.12
13:06:24.718750,5.51
13:06:24.734375,3.53
13:06:24.750000,2.29
13:06:24.765625,1.71
13:06:24.781250,1.62
13:06:24.796875,1.81
13:06:24.812500,2.12
13:06:24.828125,2.36
13:06:24.843750,2.38
13:06:24.859375,2.00
13:06:24.875000,1.11
13:06:24.890625,-0.23
13:06:24.906250,-1.82
13:06:24.921875,-3.34
13:06:24.937500,-4.54
13:06:24.953125,-5.36
13:06:24.968750,-5.93
13:06:24.984375,-6.42
13:06:25,-6.87
13:06:25.015625,-7.05
13:06:25.031250,-6.51
13:06:25.046875,-4.89
13:06:25.062500,-2.10
13:06:25.078125,1.48
13:06:25.093750,5.15
13:06:25.109375,8.16
13:06:25.125000,10.05
13:06:25.140625,10.81
13:06:25.156250,10.78
13:06:25.171875,10.35
13:06:25.187500,9.78
13:06:25.203125,9.08
13:06:25.218750,8.15
13:06:25.234375,6.95
13:06:25.250000,5.64
13:06:25.265625,4.57
13:06:25.281250,4.04
13:06:25.296875,4.19
13:06:25.312500,4.88
13:06:25.328125,5.78
13:06:25.343750,6.58
13:06:25.359375,7.07
13:06:25.375000,7.20
13:06:25.390625,6.98
13:06:25.406250,6.46
13:06:25.421875,5.63
13:06:25.437500,4.51
13:06:25.453125,3.17
13:06:25.468750,1.74
13:06:25.484375,0.37
13:06:25.500000,-0.92
13:06:25.515625,-2.19
13:06:25.531250,-3.57
13:06:25.546875,-5.15
13:06:25.562500,-6.90
13:06:25.578125,-8.63
13:06:25.593750,-10.11
13:06:25.609375,-11.13
13:06:25.625000,-11.60
13:06:25.640625,-11.60
13:06:25.656250,-11.33
13:06:25.671875,-11.05
13:06:25.687500,-11.01
13:06:25.703125,-11.38
13:06:25.718750,-12.21
13:06:25.734375,-13.43
13:06:25.750000,-14.88
13:06:25.765625,-16.36
13:06:25.781250,-17.72
13:06:25.796875,-18.88
13:06:25.812500,-19.83
13:06:25.828125,-20.56
13:06:25.843750,-21.01
13:06:25.859375,-21.00
13:06:25.875000,-20.30
13:06:25.890625,-18.71
13:06:25.906250,-16.20
13:06:25.921875,-12.93
13:06:25.937500,-9.28
13:06:25.953125,-5.69
13:06:25.968750,-2.50
13:06:25.984375,0.12
13:06:26,2.25
13:06:26.015625,4.03
13:06:26.031250,5.60
13:06:26.046875,6.98
13:06:26.062500,8.07
13:06:26.078125,8.78
13:06:26.093750,9.11
13:06:26.109375,9.16
13:06:26.125000,9.10
13:06:26.140625,9.08
13:06:26.156250,9.14
13:06:26.171875,9.25
13:06:26.187500,9.31
13:06:26.203125,9.26
13:06:26.218750,9.12
13:06:26.234375,9.01
13:06:26.250000,9.05
13:06:26.265625,9.33
13:06:26.281250,9.84
13:06:26.296875,10.50
13:06:26.312500,11.13
13:06:26.328125,11.54
13:06:26.343750,11.59
13:06:26.359375,11.21
13:06:26.375000,10.43
13:06:26.390625,9.35
13:06:26.406250,8.09
13:06:26.421875,6.79
13:06:26.437500,5.60
13:06:26.453125,4.59
13:06:26.468750,3.76
13:06:26.484375,3.02
13:06:26.500000,2.21
13:06:26.515625,1.17
13:06:26.531250,-0.19
13:06:26.546875,-1.82
13:06:26.562500,-3.53
13:06:26.578125,-5.05
13:06:26.593750,-6.18
13:06:26.609375,-6.85
13:06:26.625000,-7.17
13:06:26.640625,-7.33
13:06:26.656250,-7.54
13:06:26.671875,-7.94
13:06:26.687500,-8.58
13:06:26.703125,-9.43
13:06:26.718750,-10.42
13:06:26.734375,-11.51
13:06:26.750000,-12.64
13:06:26.765625,-13.77
13:06:26.781250,-14.85
13:06:26.796875,-15.85
13:06:26.812500,-16.81
13:06:26.828125,-17.81
13:06:26.843750,-18.99
13:06:26.859375,-20.46
13:06:26.875000,-22.24
13:06:26.890625,-24.15
13:06:26.906250,-25.83
13:06:26.921875,-26.80
13:06:26.937500,-26.62
13:06:26.953125,-25.06
13:06:26.968750,-22.19
13:06:26.984375,-18.40
13:06:27,-14.22
13:06:27.015625,-10.14
13:06:27.031250,-6.46
13:06:27.046875,-3.26
13:06:27.062500,-0.51
13:06:27.078125,1.83
13:06:27.093750,3.76
13:06:27.109375,5.25
13:06:27.125000,6.29
13:06:27.140625,6.95
13:06:27.156250,7.38
13:06:27.171875,7.71
13:06:27.187500,7.99
13:06:27.203125,8.19
13:06:27.218750,8.24
13:06:27.234375,8.12
13:06:27.250000,7.87
13:06:27.265625,7.63
13:06:27.281250,7.57
13:06:27.296875,7.83
13:06:27.312500,8.46
13:06:27.328125,9.39
13:06:27.343750,10.39
13:06:27.359375,11.16
13:06:27.375000,11.37
13:06:27.390625,10.88
13:06:27.406250,9.70
13:06:27.421875,8.07
13:06:27.437500,6.39
13:06:27.453125,5.08
13:06:27.468750,4.49
13:06:27.484375,4.86
13:06:27.500000,6.24
13:06:27.515625,8.54
13:06:27.531250,11.51
13:06:27.546875,14.75
13:06:27.562500,17.73
13:06:27.578125,19.89
13:06:27.593750,20.72
13:06:27.609375,19.92
13:06:27.625000,17.40
13:06:27.640625,13.27
13:06:27.656250,7.82
13:06:27.671875,1.44
13:06:27.687500,-5.38
13:06:27.703125,-12.02
13:06:27.718750,-17.76
13:06:27.734375,-21.83
13:06:27.750000,-23.62
13:06:27.765625,-22.86
13:06:27.781250,-19.80
13:06:27.796875,-15.15
13:06:27.812500,-9.97
13:06:27.828125,-5.30
13:06:27.843750,-1.95
13:06:27.859375,-0.27
13:06:27.875000,-0.21
13:06:27.890625,-1.46
13:06:27.906250,-3.70
13:06:27.921875,-6.76
13:06:27.937500,-10.65
13:06:27.953125,-15.36
13:06:27.968750,-20.65
13:06:27.984375,-25.86
13:06:28,-29.98
13:06:28.015625,-31.94
13:06:28.031250,-31.02
13:06:28.046875,-27.11
13:06:28.062500,-20.81
13:06:28.078125,-13.15
13:06:28.093750,-5.22
13:06:28.109375,2.15
13:06:28.125000,8.48
13:06:28.140625,13.59
13:06:28.156250,17.37
13:06:28.171875,19.70
13:06:28.187500,20.41
13:06:28.203125,19.46
13:06:28.218750,17.05
13:06:28.234375,13.62
13:06:28.250000,9.84
13:06:28.265625,6.42
13:06:28.281250,3.99
13:06:28.296875,2.99
13:06:28.312500,3.60
13:06:28.328125,5.75
13:06:28.343750,9.07
13:06:28.359375,12.93
13:06:28.375000,16.62
13:06:28.390625,19.44
13:06:28.406250,20.92
13:06:28.421875,20.94
13:06:28.437500,19.71
13:06:28.453125,17.66
13:06:28.468750,15.28
13:06:28.484375,12.94
13:06:28.500000,10.78
13:06:28.515625,8.78
13:06:28.531250,6.85
13:06:28.546875,4.94
13:06:28.562500,3.08
13:06:28.578125,1.33
13:06:28.593750,-0.28
13:06:28.609375,-1.84
13:06:28.625000,-3.48
13:06:28.640625,-5.30
13:06:28.656250,-7.27
13:06:28.671875,-9.18
13:06:28.687500,-10.70
13:06:28.703125,-11.53
13:06:28.718750,-11.49
13:06:28.734375,-10.62
13:06:28.750000,-9.18
13:06:28.765625,-7.52
13:06:28.781250,-5.96
13:06:28.796875,-4.76
13:06:28.812500,-4.00
13:06:28.828125,-3.63
13:06:28.843750,-3.55
13:06:28.859375,-3.67
13:06:28.875000,-3.95
13:06:28.890625,-4.43
13:06:28.906250,-5.12
13:06:28.921875,-6.04
13:06:28.937500,-7.15
13:06:28.953125,-8.45
13:06:28.968750,-9.99
13:06:28.984375,-11.95
13:06:29,-14.51
13:06:29.015625,-17.72
13:06:29.031250,-21.30
13:06:29.046875,-24.65
13:06:29.062500,-26.91
13:06:29.078125,-27.31
13:06:29.093750,-25.41
13:06:29.109375,-21.34
13:06:29.125000,-15.72
13:06:29.140625,-9.52
13:06:29.156250,-3.68
13:06:29.171875,1.13
13:06:29.187500,4.68
13:06:29.203125,7.12
13:06:29.218750,8.81
13:06:29.234375,10.17
13:06:29.250000,11.46
13:06:29.265625,12.78
13:06:29.281250,14.04
13:06:29.296875,15.05
13:06:29.312500,15.62
13:06:29.328125,15.65
13:06:29.343750,15.14
13:06:29.359375,14.21
13:06:29.375000,13.05
13:06:29.390625,11.85
13:06:29.406250,10.77
13:06:29.421875,9.99
13:06:29.437500,9.64
13:06:29.453125,9.76
13:06:29.468750,10.28
13:06:29.484375,10.95
13:06:29.500000,11.42
13:06:29.515625,11.37
13:06:29.531250,10.69
13:06:29.546875,9.46
13:06:29.562500,7.96
13:06:29.578125,6.47
13:06:29.593750,5.17
13:06:29.609375,4.05
13:06:29.625000,3.00
13:06:29.640625,1.88
13:06:29.656250,0.64
13:06:29.671875,-0.72
13:06:29.687500,-2.14
13:06:29.703125,-3.55
13:06:29.718750,-4.86
13:06:29.734375,-5.95
13:06:29.750000,-6.71
13:06:29.765625,-7.03
13:06:29.781250,-6.91
13:06:29.796875,-6.49
13:06:29.812500,-6.04
13:06:29.828125,-5.86
13:06:29.843750,-6.23
13:06:29.859375,-7.25
13:06:29.875000,-8.85
13:06:29.890625,-10.74
13:06:29.906250,-12.56
13:06:29.921875,-14.02
13:06:29.937500,-14.97
13:06:29.953125,-15.54
13:06:29.968750,-16.01
13:06:29.984375,-16.74
13:06:30,-18.05
13:06:30.015625,-20.05
13:06:30.031250,-22.66
13:06:30.046875,-25.56
13:06:30.062500,-28.23
13:06:30.078125,-29.99
13:06:30.093750,-30.16
13:06:30.109375,-28.28
13:06:30.125000,-24.25
13:06:30.140625,-18.44
13:06:30.156250,-11.69
13:06:30.171875,-4.98
13:06:30.187500,0.78
13:06:30.203125,5.07
13:06:30.218750,7.79
13:06:30.234375,9.16
13:06:30.250000,9.54
13:06:30.265625,9.20
13:06:30.281250,8.30
13:06:30.296875,6.93
13:06:30.312500,5.25
13:06:30.328125,3.57
13:06:30.343750,2.33
13:06:30.359375,2.00
13:06:30.375000,2.87
13:06:30.390625,4.90
13:06:30.406250,7.70
13:06:30.421875,10.58
13:06:30.437500,12.87
13:06:30.453125,14.15
13:06:30.468750,14.43
13:06:30.484375,14.14
13:06:30.500000,13.84
13:06:30.515625,13.93
13:06:30.531250,14.47
13:06:30.546875,15.08
13:06:30.562500,15.22
13:06:30.578125,14.43
13:06:30.593750,12.63
13:06:30.609375,10.13
13:06:30.625000,7.46
13:06:30.640625,5.16
13:06:30.656250,3.52
13:06:30.671875,2.51
13:06:30.687500,1.85
13:06:30.703125,1.17
13:06:30.718750,0.13
13:06:30.734375,-1.37
13:06:30.750000,-3.21
13:06:30.765625,-5.05
13:06:30.781250,-6.49
13:06:30.796875,-7.19
13:06:30.812500,-7.07
13:06:30.828125,-6.31
13:06:30.843750,-5.29
13:06:30.859375,-4.38
13:06:30.875000,-3.88
13:06:30.890625,-3.95
13:06:30.906250,-4.60
13:06:30.921875,-5.82
13:06:30.937500,-7.54
13:06:30.953125,-9.64
13:06:30.968750,-11.88
13:06:30.984375,-13.93
13:06:31,-15.42
13:06:31.015625,-16.03
13:06:31.031250,-15.58
13:06:31.046875,-14.02
13:06:31.062500,-11.44
13:06:31.078125,-8.05
13:06:31.093750,-4.17
13:06:31.109375,-0.16
13:06:31.125000,3.59
13:06:31.140625,6.82
13:06:31.156250,9.49
13:06:31.171875,11.76
13:06:31.187500,13.91
13:06:31.203125,16.11
13:06:31.218750,18.29
13:06:31.234375,20.13
13:06:31.250000,21.12
13:06:31.265625,20.87
13:06:31.281250,19.22
13:06:31.296875,16.41
13:06:31.312500,12.99
13:06:31.328125,9.68
13:06:31.343750,7.09
13:06:31.359375,5.57
13:06:31.375000,5.09
13:06:31.390625,5.34
13:06:31.406250,5.83
13:06:31.421875,6.15
13:06:31.437500,6.16
13:06:31.453125,5.94
13:06:31.468750,5.83
13:06:31.484375,6.12
13:06:31.500000,6.97
13:06:31.515625,8.30
13:06:31.531250,9.82
13:06:31.546875,11.13
13:06:31.562500,11.86
13:06:31.578125,11.78
13:06:31.593750,10.84
13:06:31.609375,9.17
13:06:31.625000,7.03
13:06:31.640625,4.73
13:06:31.656250,2.59
13:06:31.671875,0.88
13:06:31.687500,-0.22
13:06:31.703125,-0.72
13:06:31.718750,-0.83
13:06:31.734375,-0.97
13:06:31.750000,-1.64
13:06:31.765625,-3.24
13:06:31.781250,-5.98
13:06:31.796875,-9.72
13:06:31.812500,-14.04
13:06:31.828125,-18.36
13:06:31.843750,-22.12
13:06:31.859375,-24.94
13:06:31.875000,-26.76
13:06:31.890625,-27.78
13:06:31.906250,-28.47
13:06:31.921875,-29.26
13:06:31.937500,-30.41
13:06:31.953125,-31.77
13:06:31.968750,-32.76
13:06:31.984375,-32.63
13:06:32,-30.71
13:06:32.015625,-26.78
13:06:32.031250,-21.17
13:06:32.046875,-14.70
13:06:32.062500,-8.32
13:06:32.078125,-2.88
13:06:32.093750,1.10
13:06:32.109375,3.45
13:06:32.125000,4.28
13:06:32.140625,3.95
13:06:32.156250,3.05
13:06:32.171875,2.28
13:06:32.187500,2.33
13:06:32.203125,3.63
13:06:32.218750,6.12
13:06:32.234375,9.31
13:06:32.250000,12.42
13:06:32.265625,14.77
13:06:32.281250,16.02
13:06:32.296875,16.27
13:06:32.312500,15.88
13:06:32.328125,15.30
13:06:32.343750,14.81
13:06:32.359375,14.47
13:06:32.375000,14.11
13:06:32.390625,13.50
13:06:32.406250,12.39
13:06:32.421875,10.67
13:06:32.437500,8.34
13:06:32.453125,5.55
13:06:32.468750,2.58
13:06:32.484375,-0.25
13:06:32.500000,-2.64
13:06:32.515625,-4.38
13:06:32.531250,-5.38
13:06:32.546875,-5.74
13:06:32.562500,-5.64
13:06:32.578125,-5.33
13:06:32.593750,-5.07
13:06:32.609375,-5.03
13:06:32.625000,-5.26
13:06:32.640625,-5.68
13:06:32.656250,-6.13
13:06:32.671875,-6.49
13:06:32.687500,-6.72
13:06:32.703125,-6.89
13:06:32.718750,-7.20
13:06:32.734375,-7.82
13:06:32.750000,-8.83
13:06:32.765625,-10.14
13:06:32.781250,-11.43
13:06:32.796875,-12.27
13:06:32.812500,-12.19
13:06:32.828125,-10.86
13:06:32.843750,-8.29
13:06:32.859375,-4.75
13:06:32.875000,-0.74
13:06:32.890625,3.19
13:06:32.906250,6.63
13:06:32.921875,9.37
13:06:32.937500,11.42
13:06:32.953125,12.91
13:06:32.968750,13.98
13:06:32.984375,14.73
13:06:33,15.16
13:06:33.015625,15.21
13:06:33.031250,14.85
13:06:33.046875,14.05
13:06:33.062500,12.90
13:06:33.078125,11.52
13:06:33.093750,10.05
13:06:33.109375,8.62
13:06:33.125000,7.33
13:06:33.140625,6.26
13:06:33.156250,5.47
13:06:33.171875,5.03
13:06:33.187500,5.02
13:06:33.203125,5.46
13:06:33.218750,6.27
13:06:33.234375,7.21
13:06:33.250000,7.99
13:06:33.265625,8.34
13:06:33.281250,8.10
13:06:33.296875,7.29
13:06:33.312500,6.07
13:06:33.328125,4.66
13:06:33.343750,3.24
13:06:33.359375,1.94
13:06:33.375000,0.78
13:06:33.390625,-0.26
13:06:33.406250,-1.25
13:06:33.421875,-2.24
13:06:33.437500,-3.27
13:06:33.453125,-4.34
13:06:33.468750,-5.43
13:06:33.484375,-6.50
13:06:33.500000,-7.50
13:06:33.515625,-8.39
13:06:33.531250,-9.23
13:06:33.546875,-10.11
13:06:33.562500,-11.14
13:06:33.578125,-12.42
13:06:33.593750,-13.92
13:06:33.609375,-15.59
13:06:33.625000,-17.27
13:06:33.640625,-18.75
13:06:33.656250,-19.77
13:06:33.671875,-20.03
13:06:33.687500,-19.20
13:06:33.703125,-17.07
13:06:33.718750,-13.63
13:06:33.734375,-9.16
13:06:33.750000,-4.17
13:06:33.765625,0.73
13:06:33.781250,5.06
13:06:33.796875,8.58
13:06:33.812500,11.30
13:06:33.828125,13.45
13:06:33.843750,15.21
13:06:33.859375,16.68
13:06:33.875000,17.78
13:06:33.890625,18.40
13:06:33.906250,18.45
13:06:33.921875,17.98
13:06:33.937500,17.18
13:06:33.953125,16.27
13:06:33.968750,15.50
13:06:33.984375,15.04
13:06:34,14.96
13:06:34.015625,15.23
13:06:34.031250,15.74
13:06:34.046875,16.36
13:06:34.062500,16.97
13:06:34.078125,17.43
13:06:34.093750,17.62
13:06:34.109375,17.46
13:06:34.125000,16.92
13:06:34.140625,16.06
13:06:34.156250,15.05
13:06:34.171875,14.08
13:06:34.187500,13.35
13:06:34.203125,12.88
13:06:34.218750,12.57
13:06:34.234375,12.17
13:06:34.250000,11.44
13:06:34.265625,10.22
13:06:34.281250,8.56
13:06:34.296875,6.72
13:06:34.312500,5.07
13:06:34.328125,3.93
13:06:34.343750,3.45
13:06:34.359375,3.51
13:06:34.375000,3.75
13:06:34.390625,3.63
13:06:34.406250,2.57
13:06:34.421875,0.21
13:06:34.437500,-3.46
13:06:34.453125,-8.01
13:06:34.468750,-12.61
13:06:34.484375,-16.30
13:06:34.500000,-18.21
13:06:34.515625,-17.85
13:06:34.531250,-15.32
13:06:34.546875,-11.22
13:06:34.562500,-6.50
13:06:34.578125,-2.20
13:06:34.593750,0.85
13:06:34.609375,2.19
13:06:34.625000,1.69
13:06:34.640625,-0.50
13:06:34.656250,-4.07
13:06:34.671875,-8.66
13:06:34.687500,-13.87
13:06:34.703125,-19.29
13:06:34.718750,-24.53
13:06:34.734375,-29.22
13:06:34.750000,-33.05
13:06:34.765625,-35.70
13:06:34.781250,-36.88
13:06:34.796875,-36.20
13:06:34.812500,-33.31
13:06:34.828125,-28.04
13:06:34.843750,-20.62
13:06:34.859375,-11.71
13:06:34.875000,-2.35
13:06:34.890625,6.30
13:06:34.906250,13.31
13:06:34.921875,18.25
13:06:34.937500,21.18
13:06:34.953125,22.57
13:06:34.968750,22.97
13:06:34.984375,22.83
13:06:35,22.30
13:06:35.015625,21.30
13:06:35.031250,19.61
13:06:35.046875,17.05
13:06:35.062500,13.69
13:06:35.078125,9.84
13:06:35.093750,6.06
13:06:35.109375,3.05
13:06:35.125000,1.43
13:06:35.140625,1.54
13:06:35.156250,3.36
13:06:35.171875,6.51
13:06:35.187500,10.34
13:06:35.203125,14.13
13:06:35.218750,17.29
13:06:35.234375,19.46
13:06:35.250000,20.60
13:06:35.265625,20.88
13:06:35.281250,20.57
13:06:35.296875,19.90
13:06:35.312500,18.94
13:06:35.328125,17.63
13:06:35.343750,15.88
13:06:35.359375,13.70
13:06:35.375000,11.25
13:06:35.390625,8.81
13:06:35.406250,6.66
13:06:35.421875,4.96
13:06:35.437500,3.73
13:06:35.453125,2.86
13:06:35.468750,2.23
13:06:35.484375,1.80
13:06:35.500000,1.58
13:06:35.515625,1.64
13:06:35.531250,1.97
13:06:35.546875,2.48
13:06:35.562500,2.95
13:06:35.578125,3.09
13:06:35.593750,2.64
13:06:35.609375,1.44
13:06:35.625000,-0.50
13:06:35.640625,-3.03
13:06:35.656250,-5.83
13:06:35.671875,-8.55
13:06:35.687500,-10.82
13:06:35.703125,-12.44
13:06:35.718750,-13.41
13:06:35.734375,-13.99
13:06:35.750000,-14.61
13:06:35.765625,-15.70
13:06:35.781250,-17.48
13:06:35.796875,-19.76
13:06:35.812500,-22.05
13:06:35.828125,-23.61
13:06:35.843750,-23.78
13:06:35.859375,-22.21
13:06:35.875000,-19.00
13:06:35.890625,-14.70
13:06:35.906250,-10.02
13:06:35.921875,-5.63
13:06:35.937500,-1.96
13:06:35.953125,0.91
13:06:35.968750,3.09
13:06:35.984375,4.79
13:06:36,6.15
13:06:36.015625,7.21
13:06:36.031250,7.92
13:06:36.046875,8.27
13:06:36.062500,8.30
13:06:36.078125,8.15
13:06:36.093750,7.94
13:06:36.109375,7.77
13:06:36.125000,7.68
13:06:36.140625,7.64
13:06:36.156250,7.69
13:06:36.171875,7.88
13:06:36.187500,8.25
13:06:36.203125,8.81
13:06:36.218750,9.49
13:06:36.234375,10.17
13:06:36.250000,10.69
13:06:36.265625,10.97
13:06:36.281250,10.97
13:06:36.296875,10.72
13:06:36.312500,10.23
13:06:36.328125,9.55
13:06:36.343750,8.76
13:06:36.359375,7.98
13:06:36.375000,7.36
13:06:36.390625,7.03
13:06:36.406250,6.95
13:06:36.421875,6.93
13:06:36.437500,6.70
13:06:36.453125,6.07
13:06:36.468750,5.00
13:06:36.484375,3.71
13:06:36.500000,2.52
13:06:36.515625,1.67
13:06:36.531250,1.23
13:06:36.546875,0.98
13:06:36.562500,0.61
13:06:36.578125,-0.18
13:06:36.593750,-1.49
13:06:36.609375,-3.14
13:06:36.625000,-4.81
13:06:36.640625,-6.16
13:06:36.656250,-6.97
13:06:36.671875,-7.26
13:06:36.687500,-7.26
13:06:36.703125,-7.29
13:06:36.718750,-7.64
13:06:36.734375,-8.44
13:06:36.750000,-9.64
13:06:36.765625,-11.05
13:06:36.781250,-12.37
13:06:36.796875,-13.42
13:06:36.812500,-14.11
13:06:36.828125,-14.54
13:06:36.843750,-14.95
13:06:36.859375,-15.67
13:06:36.875000,-16.98
13:06:36.890625,-19.02
13:06:36.906250,-21.66
13:06:36.921875,-24.46
13:06:36.937500,-26.73
13:06:36.953125,-27.74
13:06:36.968750,-26.95
13:06:36.984375,-24.26
13:06:37,-20.02
13:06:37.015625,-14.97
13:06:37.031250,-9.91
13:06:37.046875,-5.49
13:06:37.062500,-2.03
13:06:37.078125,0.46
13:06:37.093750,2.21
13:06:37.109375,3.47
13:06:37.125000,4.41
13:06:37.140625,5.07
13:06:37.156250,5.43
13:06:37.171875,5.45
13:06:37.187500,5.17
13:06:37.203125,4.73
13:06:37.218750,4.34
13:06:37.234375,4.21
13:06:37.250000,4.47
13:06:37.265625,5.11
13:06:37.281250,6.03
13:06:37.296875,7.00
13:06:37.312500,7.83
13:06:37.328125,8.39
13:06:37.343750,8.68
13:06:37.359375,8.80
13:06:37.375000,8.88
13:06:37.390625,9.06
13:06:37.406250,9.45
13:06:37.421875,10.05
13:06:37.437500,10.78
13:06:37.453125,11.46
13:06:37.468750,11.90
13:06:37.484375,11.94
13:06:37.500000,11.55
13:06:37.515625,10.80
13:06:37.531250,9.83
13:06:37.546875,8.76
13:06:37.562500,7.61
13:06:37.578125,6.36
13:06:37.593750,4.94
13:06:37.609375,3.34
13:06:37.625000,1.61
13:06:37.640625,-0.13
13:06:37.656250,-1.74
13:06:37.671875,-3.12
13:06:37.687500,-4.19
13:06:37.703125,-4.96
13:06:37.718750,-5.46
13:06:37.734375,-5.78
13:06:37.750000,-6.10
13:06:37.765625,-6.59
13:06:37.781250,-7.38
13:06:37.796875,-8.47
13:06:37.812500,-9.74
13:06:37.828125,-11.02
13:06:37.843750,-12.15
13:06:37.859375,-13.10
13:06:37.875000,-14.00
13:06:37.890625,-15.05
13:06:37.906250,-16.44
13:06:37.921875,-18.30
13:06:37.937500,-20.58
13:06:37.953125,-23.06
13:06:37.968750,-25.38
13:06:37.984375,-27.07
13:06:38,-27.66
13:06:38.015625,-26.81
13:06:38.031250,-24.39
13:06:38.046875,-20.60
13:06:38.062500,-15.89
13:06:38.078125,-10.89
13:06:38.093750,-6.20
13:06:38.109375,-2.28
13:06:38.125000,0.67
13:06:38.140625,2.67
13:06:38.156250,3.88
13:06:38.171875,4.48
13:06:38.187500,4.63
13:06:38.203125,4.48
13:06:38.218750,4.13
13:06:38.234375,3.73
13:06:38.250000,3.41
13:06:38.265625,3.31
13:06:38.281250,3.56
13:06:38.296875,4.20
13:06:38.312500,5.25
13:06:38.328125,6.65
13:06:38.343750,8.31
13:06:38.359375,10.08
13:06:38.375000,11.82
13:06:38.390625,13.39
13:06:38.406250,14.66
13:06:38.421875,15.58
13:06:38.437500,16.11
13:06:38.453125,16.28
13:06:38.468750,16.12
13:06:38.484375,15.72
13:06:38.500000,15.18
13:06:38.515625,14.60
13:06:38.531250,14.00
13:06:38.546875,13.37
13:06:38.562500,12.61
13:06:38.578125,11.59
13:06:38.593750,10.24
13:06:38.609375,8.61
13:06:38.625000,6.85
13:06:38.640625,5.20
13:06:38.656250,3.88
13:06:38.671875,3.01
13:06:38.687500,2.57
13:06:38.703125,2.40
13:06:38.718750,2.29
13:06:38.734375,1.96
13:06:38.750000,1.23
13:06:38.765625,0.02
13:06:38.781250,-1.62
13:06:38.796875,-3.58
13:06:38.812500,-5.69
13:06:38.828125,-7.80
13:06:38.843750,-9.86
13:06:38.859375,-11.83
13:06:38.875000,-13.76
13:06:38.890625,-15.70
13:06:38.906250,-17.71
13:06:38.921875,-19.79
13:06:38.937500,-21.79
13:06:38.953125,-23.38
13:06:38.968750,-24.11
13:06:38.984375,-23.59
13:06:39,-21.61
13:06:39.015625,-18.30
13:06:39.031250,-14.08
13:06:39.046875,-9.54
13:06:39.062500,-5.21
13:06:39.078125,-1.39
13:06:39.093750,1.86
13:06:39.109375,4.61
13:06:39.125000,6.95
13:06:39.140625,8.87
13:06:39.156250,10.29
13:06:39.171875,11.15
13:06:39.187500,11.49
13:06:39.203125,11.49
13:06:39.218750,11.44
13:06:39.234375,11.62
13:06:39.250000,12.21
13:06:39.265625,13.22
13:06:39.281250,14.45
13:06:39.296875,15.62
13:06:39.312500,16.46
13:06:39.328125,16.81
13:06:39.343750,16.72
13:06:39.359375,16.38
13:06:39.375000,15.97
13:06:39.390625,15.60
13:06:39.406250,15.19
13:06:39.421875,14.57
13:06:39.437500,13.60
13:06:39.453125,12.28
13:06:39.468750,10.79
13:06:39.484375,9.37
13:06:39.500000,8.20
13:06:39.515625,7.29
13:06:39.531250,6.49
13:06:39.546875,5.58
13:06:39.562500,4.43
13:06:39.578125,3.08
13:06:39.593750,1.76
13:06:39.609375,0.68
13:06:39.625000,0.00
13:06:39.640625,-0.31
13:06:39.656250,-0.44
13:06:39.671875,-0.61
13:06:39.687500,-0.96
13:06:39.703125,-1.58
13:06:39.718750,-2.46
13:06:39.734375,-3.55
13:06:39.750000,-4.83
13:06:39.765625,-6.25
13:06:39.781250,-7.80
13:06:39.796875,-9.42
13:06:39.812500,-11.07
13:06:39.828125,-12.69
13:06:39.843750,-14.31
13:06:39.859375,-15.96
13:06:39.875000,-17.75
13:06:39.890625,-19.80
13:06:39.906250,-22.19
13:06:39.921875,-24.85
13:06:39.937500,-27.53
13:06:39.953125,-29.73
13:06:39.968750,-30.87
13:06:39.984375,-30.42
13:06:40,-28.19
13:06:40.015625,-24.37
13:06:40.031250,-19.53
13:06:40.046875,-14.40
13:06:40.062500,-9.63
13:06:40.078125,-5.53
13:06:40.093750,-2.15
13:06:40.109375,0.69
13:06:40.125000,3.15
13:06:40.140625,5.28
13:06:40.156250,7.04
13:06:40.171875,8.33
13:06:40.187500,9.12
13:06:40.203125,9.49
13:06:40.218750,9.58
13:06:40.234375,9.53
13:06:40.250000,9.43
13:06:40.265625,9.38
13:06:40.281250,9.44
13:06:40.296875,9.70
13:06:40.312500,10.24
13:06:40.328125,11.07
13:06:40.343750,12.14
13:06:40.359375,13.28
13:06:40.375000,14.27
13:06:40.390625,14.91
13:06:40.406250,15.07
13:06:40.421875,14.73
13:06:40.437500,13.97
13:06:40.453125,12.95
13:06:40.468750,11.84
13:06:40.484375,10.78
13:06:40.500000,9.86
13:06:40.515625,9.12
13:06:40.531250,8.54
13:06:40.546875,8.10
13:06:40.562500,7.72
13:06:40.578125,7.32
13:06:40.593750,6.82
13:06:40.609375,6.16
13:06:40.625000,5.31
13:06:40.640625,4.29
13:06:40.656250,3.11
13:06:40.671875,1.76
13:06:40.687500,0.21
13:06:40.703125,-1.55
13:06:40.718750,-3.47
13:06:40.734375,-5.39
13:06:40.750000,-7.13
13:06:40.765625,-8.54
13:06:40.781250,-9.59
13:06:40.796875,-10.42
13:06:40.812500,-11.27
13:06:40.828125,-12.38
13:06:40.843750,-13.88
13:06:40.859375,-15.80
13:06:40.875000,-18.09
13:06:40.890625,-20.65
13:06:40.906250,-23.40
13:06:40.921875,-26.14
13:06:40.937500,-28.59
13:06:40.953125,-30.29
13:06:40.968750,-30.73
13:06:40.984375,-29.54
13:06:41,-26.61
13:06:41.015625,-22.23
13:06:41.031250,-16.99
13:06:41.046875,-11.65
13:06:41.062500,-6.83
13:06:41.078125,-2.88
13:06:41.093750,0.19
13:06:41.109375,2.58
13:06:41.125000,4.53
13:06:41.140625,6.19
13:06:41.156250,7.54
13:06:41.171875,8.55
13:06:41.187500,9.21
13:06:41.203125,9.62
13:06:41.218750,9.97
13:06:41.234375,10.43
13:06:41.250000,11.07
13:06:41.265625,11.79
13:06:41.281250,12.46
13:06:41.296875,12.93
13:06:41.312500,13.16
13:06:41.328125,13.20
13:06:41.343750,13.18
13:06:41.359375,13.22
13:06:41.375000,13.38
13:06:41.390625,13.62
13:06:41.406250,13.84
13:06:41.421875,13.92
13:06:41.437500,13.81
13:06:41.453125,13.49
13:06:41.468750,13.06
13:06:41.484375,12.61
13:06:41.500000,12.20
13:06:41.515625,11.81
13:06:41.531250,11.38
13:06:41.546875,10.79
13:06:41.562500,9.94
13:06:41.578125,8.83
13:06:41.593750,7.50
13:06:41.609375,6.05
13:06:41.625000,4.58
13:06:41.640625,3.19
13:06:41.656250,1.94
13:06:41.671875,0.88
13:06:41.687500,-0.02
13:06:41.703125,-0.77
13:06:41.718750,-1.46
13:06:41.734375,-2.13
13:06:41.750000,-2.87
13:06:41.765625,-3.71
13:06:41.781250,-4.67
13:06:41.796875,-5.78
13:06:41.812500,-7.01
13:06:41.828125,-8.33
13:06:41.843750,-9.67
13:06:41.859375,-10.99
13:06:41.875000,-12.24
13:06:41.890625,-13.39
13:06:41.906250,-14.41
13:06:41.921875,-15.27
13:06:41.937500,-15.92
13:06:41.953125,-16.36
13:06:41.968750,-16.61
13:06:41.984375,-16.79
13:06:42,-17.06
13:06:42.015625,-17.60
13:06:42.031250,-18.47
13:06:42.046875,-19.62
13:06:42.062500,-20.76
13:06:42.078125,-21.48
13:06:42.093750,-21.31
13:06:42.109375,-19.89
13:06:42.125000,-17.09
13:06:42.140625,-13.01
13:06:42.156250,-7.96
13:06:42.171875,-2.31
13:06:42.187500,3.57
13:06:42.203125,9.39
13:06:42.218750,14.88
13:06:42.234375,19.74
13:06:42.250000,23.65
13:06:42.265625,26.31
13:06:42.281250,27.49
13:06:42.296875,27.14
13:06:42.312500,25.36
13:06:42.328125,22.38
13:06:42.343750,18.51
13:06:42.359375,14.13
13:06:42.375000,9.66
13:06:42.390625,5.57
13:06:42.406250,2.31
13:06:42.421875,0.21
13:06:42.437500,-0.64
13:06:42.453125,-0.41
13:06:42.468750,0.53
13:06:42.484375,1.71
13:06:42.500000,2.75
13:06:42.515625,3.43
13:06:42.531250,3.67
13:06:42.546875,3.58
13:06:42.562500,3.35
13:06:42.578125,3.22
13:06:42.593750,3.43
13:06:42.609375,4.16
13:06:42.625000,5.44
13:06:42.640625,7.13
13:06:42.656250,8.94
13:06:42.671875,10.53
13:06:42.687500,11.59
13:06:42.703125,12.00
13:06:42.718750,11.76
13:06:42.734375,10.99
13:06:42.750000,9.87
13:06:42.765625,8.52
13:06:42.781250,7.07
13:06:42.796875,5.60
13:06:42.812500,4.14
13:06:42.828125,2.72
13:06:42.843750,1.32
13:06:42.859375,-0.06
13:06:42.875000,-1.42
13:06:42.890625,-2.73
13:06:42.906250,-3.97
13:06:42.921875,-5.15
13:06:42.937500,-6.33
13:06:42.953125,-7.56
13:06:42.968750,-8.80
13:06:42.984375,-9.90
13:06:43,-10.64
13:06:43.015625,-10.91
13:06:43.031250,-10.75
13:06:43.046875,-10.40
13:06:43.062500,-10.24
13:06:43.078125,-10.56
13:06:43.093750,-11.54
13:06:43.109375,-13.11
13:06:43.125000,-15.04
13:06:43.140625,-17.06
13:06:43.156250,-18.80
13:06:43.171875,-19.86
13:06:43.187500,-19.80
13:06:43.203125,-18.32
13:06:43.218750,-15.32
13:06:43.234375,-11.06
13:06:43.250000,-6.12
13:06:43.265625,-1.24
13:06:43.281250,2.97
13:06:43.296875,6.19
13:06:43.312500,8.44
13:06:43.328125,10.00
13:06:43.343750,11.25
13:06:43.359375,12.46
13:06:43.375000,13.81
13:06:43.390625,15.35
13:06:43.406250,17.10
13:06:43.421875,19.05
13:06:43.437500,21.12
13:06:43.453125,23.16
13:06:43.468750,25.01
13:06:43.484375,26.61
13:06:43.500000,28.07
13:06:43.515625,29.68
13:06:43.531250,31.84
13:06:43.546875,34.89
13:06:43.562500,38.98
13:06:43.578125,43.97
13:06:43.593750,49.42
13:06:43.609375,54.64
13:06:43.625000,58.83
13:06:43.640625,61.27
13:06:43.656250,61.47
13:06:43.671875,59.36
13:06:43.687500,55.28
13:06:43.703125,49.97
13:06:43.718750,44.29
13:06:43.734375,39.04
13:06:43.750000,34.72
13:06:43.765625,31.56
13:06:43.781250,29.55
13:06:43.796875,28.52
13:06:43.812500,28.22
13:06:43.828125,28.29
13:06:43.843750,28.31
13:06:43.859375,27.90
13:06:43.875000,26.77
13:06:43.890625,24.90
13:06:43.906250,22.49
13:06:43.921875,19.84
13:06:43.937500,17.25
13:06:43.953125,14.87
13:06:43.968750,12.68
13:06:43.984375,10.60
13:06:44,8.48
13:06:44.015625,6.24
13:06:44.031250,3.80
13:06:44.046875,1.03
13:06:44.062500,-2.18
13:06:44.078125,-5.94
13:06:44.093750,-10.25
13:06:44.109375,-15.02
13:06:44.125000,-20.14
13:06:44.140625,-25.56
13:06:44.156250,-31.31
13:06:44.171875,-37.31
13:06:44.187500,-43.32
13:06:44.203125,-48.81
13:06:44.218750,-53.11
13:06:44.234375,-55.51
13:06:44.250000,-55.59
13:06:44.265625,-53.28
13:06:44.281250,-48.86
13:06:44.296875,-42.88
13:06:44.312500,-36.00
13:06:44.328125,-28.97
13:06:44.343750,-22.50
13:06:44.359375,-17.20
13:06:44.375000,-13.43
13:06:44.390625,-11.19
13:06:44.406250,-10.09
13:06:44.421875,-9.50
13:06:44.437500,-8.83
13:06:44.453125,-7.89
13:06:44.468750,-7.01
13:06:44.484375,-7.04
13:06:44.500000,-8.92
13:06:44.515625,-13.23
13:06:44.531250,-19.76
13:06:44.546875,-27.45
13:06:44.562500,-34.61
13:06:44.578125,-39.63
13:06:44.593750,-41.65
13:06:44.609375,-40.87
13:06:44.625000,-38.44
13:06:44.640625,-35.88
13:06:44.656250,-34.29
13:06:44.671875,-33.97
13:06:44.687500,-34.40
13:06:44.703125,-34.67
13:06:44.718750,-34.04
13:06:44.734375,-32.42
13:06:44.750000,-30.46
13:06:44.765625,-29.37
13:06:44.781250,-30.31
13:06:44.796875,-33.99
13:06:44.812500,-40.17
13:06:44.828125,-47.70
13:06:44.843750,-54.81
13:06:44.859375,-59.78
13:06:44.875000,-61.54
13:06:44.890625,-59.98
13:06:44.906250,-55.88
13:06:44.921875,-50.41
13:06:44.937500,-44.62
13:06:44.953125,-39.11
13:06:44.968750,-34.13
13:06:44.984375,-30.01
13:06:45,-27.32
13:06:45.015625,-26.98
13:06:45.031250,-29.76
13:06:45.046875,-35.89
13:06:45.062500,-44.69
13:06:45.078125,-54.77
13:06:45.093750,-64.43
13:06:45.109375,-72.20
13:06:45.125000,-77.34
13:06:45.140625,-79.79
13:06:45.156250,-79.87
13:06:45.171875,-77.87
13:06:45.187500,-73.88
13:06:45.203125,-67.84
13:06:45.218750,-59.87
13:06:45.234375,-50.57
13:06:45.250000,-40.99
13:06:45.265625,-32.29
13:06:45.281250,-25.27
13:06:45.296875,-20.00
13:06:45.312500,-15.88
13:06:45.328125,-11.89
13:06:45.343750,-7.16
13:06:45.359375,-1.31
13:06:45.375000,5.41
13:06:45.390625,12.37
13:06:45.406250,18.78
13:06:45.421875,24.08
13:06:45.437500,28.06
13:06:45.453125,30.92
13:06:45.468750,33.10
13:06:45.484375,35.08
13:06:45.500000,37.20
13:06:45.515625,39.43
13:06:45.531250,41.49
13:06:45.546875,43.04
13:06:45.562500,43.91
13:06:45.578125,44.25
13:06:45.593750,44.50
13:06:45.609375,45.13
13:06:45.625000,46.39
13:06:45.640625,48.19
13:06:45.656250,50.19
13:06:45.671875,52.01
13:06:45.687500,53.35
13:06:45.703125,54.15
13:06:45.718750,54.49
13:06:45.734375,54.45
13:06:45.750000,54.08
13:06:45.765625,53.32
13:06:45.781250,52.17
13:06:45.796875,50.75
13:06:45.812500,49.33
13:06:45.828125,48.27
13:06:45.843750,47.86
13:06:45.859375,48.20
13:06:45.875000,49.13
13:06:45.890625,50.36
13:06:45.906250,51.47
13:06:45.921875,52.07
13:06:45.937500,51.86
13:06:45.953125,50.64
13:06:45.968750,48.36
13:06:45.984375,45.16
13:06:46,41.37
13:06:46.015625,37.44
13:06:46.031250,33.85
13:06:46.046875,31.01
13:06:46.062500,29.10
13:06:46.078125,28.11
13:06:46.093750,27.84
13:06:46.109375,28.04
13:06:46.125000,28.42
13:06:46.140625,28.78
13:06:46.156250,29.01
13:06:46.171875,29.05
13:06:46.187500,28.94
13:06:46.203125,28.71
13:06:46.218750,28.41
13:06:46.234375,27.98
13:06:46.250000,27.33
13:06:46.265625,26.40
13:06:46.281250,25.16
13:06:46.296875,23.72
13:06:46.312500,22.17
13:06:46.328125,20.58
13:06:46.343750,18.90
13:06:46.359375,16.99
13:06:46.375000,14.74
13:06:46.390625,12.11
13:06:46.406250,9.23
13:06:46.421875,6.31
13:06:46.437500,3.59
13:06:46.453125,1.21
13:06:46.468750,-0.82
13:06:46.484375,-2.57
13:06:46.500000,-4.19
13:06:46.515625,-5.82
13:06:46.531250,-7.58
13:06:46.546875,-9.54
13:06:46.562500,-11.75
13:06:46.578125,-14.18
13:06:46.593750,-16.79
13:06:46.609375,-19.46
13:06:46.625000,-22.09
13:06:46.640625,-24.56
13:06:46.656250,-26.77
13:06:46.671875,-28.67
13:06:46.687500,-30.22
13:06:46.703125,-31.34
13:06:46.718750,-31.96
13:06:46.734375,-31.98
13:06:46.750000,-31.37
13:06:46.765625,-30.17
13:06:46.781250,-28.51
13:06:46.796875,-26.62
13:06:46.812500,-24.75
13:06:46.828125,-23.05
13:06:46.843750,-21.60
13:06:46.859375,-20.38
13:06:46.875000,-19.27
13:06:46.890625,-18.22
13:06:46.906250,-17.20
13:06:46.921875,-16.26
13:06:46.937500,-15.51
13:06:46.953125,-15.03
13:06:46.968750,-14.82
13:06:46.984375,-14.71
13:06:47,-14.39
13:06:47.015625,-13.54
13:06:47.031250,-11.97
13:06:47.046875,-9.68
13:06:47.062500,-6.92
13:06:47.078125,-4.09
13:06:47.093750,-1.48
13:06:47.109375,0.78
13:06:47.125000,2.69
13:06:47.140625,4.32
13:06:47.156250,5.64
13:06:47.171875,6.47
13:06:47.187500,6.63
13:06:47.203125,6.04
13:06:47.218750,4.80
13:06:47.234375,3.26
13:06:47.250000,1.80
13:06:47.265625,0.74
13:06:47.281250,0.22
13:06:47.296875,0.19
13:06:47.312500,0.49
13:06:47.328125,0.96
13:06:47.343750,1.47
13:06:47.359375,1.97
13:06:47.375000,2.47
13:06:47.390625,2.94
13:06:47.406250,3.38
13:06:47.421875,3.75
13:06:47.437500,4.01
13:06:47.453125,4.09
13:06:47.468750,3.95
13:06:47.484375,3.54
13:06:47.500000,2.85
13:06:47.515625,1.94
13:06:47.531250,0.90
13:06:47.546875,-0.09
13:06:47.562500,-0.85
13:06:47.578125,-1.23
13:06:47.593750,-1.19
13:06:47.609375,-0.83
13:06:47.625000,-0.46
13:06:47.640625,-0.49
13:06:47.656250,-1.26
13:06:47.671875,-2.97
13:06:47.687500,-5.47
13:06:47.703125,-8.35
13:06:47.718750,-11.09
13:06:47.734375,-13.25
13:06:47.750000,-14.63
13:06:47.765625,-15.28
13:06:47.781250,-15.46
13:06:47.796875,-15.46
13:06:47.812500,-15.50
13:06:47.828125,-15.71
13:06:47.843750,-16.08
13:06:47.859375,-16.51
13:06:47.875000,-16.80
13:06:47.890625,-16.68
13:06:47.906250,-15.90
13:06:47.921875,-14.34
13:06:47.937500,-12.09
13:06:47.953125,-9.44
13:06:47.968750,-6.78
13:06:47.984375,-4.42
13:06:48,-2.46
13:06:48.015625,-0.78
13:06:48.031250,0.87
13:06:48.046875,2.65
13:06:48.062500,4.54
13:06:48.078125,6.32
13:06:48.093750,7.64
13:06:48.109375,8.26
13:06:48.125000,8.13
13:06:48.140625,7.46
13:06:48.156250,6.58
13:06:48.171875,5.85
13:06:48.187500,5.50
13:06:48.203125,5.56
13:06:48.218750,5.93
13:06:48.234375,6.49
13:06:48.250000,7.20
13:06:48.265625,8.12
13:06:48.281250,9.33
13:06:48.296875,10.84
13:06:48.312500,12.50
13:06:48.328125,14.04
13:06:48.343750,15.15
13:06:48.359375,15.62
13:06:48.375000,15.46
13:06:48.390625,14.85
13:06:48.406250,14.12
13:06:48.421875,13.54
13:06:48.437500,13.21
13:06:48.453125,13.07
13:06:48.468750,12.91
13:06:48.484375,12.47
13:06:48.500000,11.63
13:06:48.515625,10.37
13:06:48.531250,8.81
13:06:48.546875,7.12
13:06:48.562500,5.43
13:06:48.578125,3.77
13:06:48.593750,2.05
13:06:48.609375,0.14
13:06:48.625000,-2.03
13:06:48.640625,-4.37
13:06:48.656250,-6.62
13:06:48.671875,-8.46
13:06:48.687500,-9.61
13:06:48.703125,-9.97
13:06:48.718750,-9.73
13:06:48.734375,-9.29
13:06:48.750000,-9.13
13:06:48.765625,-9.70
13:06:48.781250,-11.22
13:06:48.796875,-13.60
13:06:48.812500,-16.46
13:06:48.828125,-19.14
13:06:48.843750,-20.92
13:06:48.859375,-21.22
13:06:48.875000,-19.80
13:06:48.890625,-16.84
13:06:48.906250,-12.89
13:06:48.921875,-8.68
13:06:48.937500,-4.78
13:06:48.953125,-1.52
13:06:48.968750,1.06
13:06:48.984375,3.11
13:06:49,4.74
13:06:49.015625,5.98
13:06:49.031250,6.74
13:06:49.046875,6.90
13:06:49.062500,6.47
13:06:49.078125,5.62
13:06:49.093750,4.60
13:06:49.109375,3.75
13:06:49.125000,3.27
13:06:49.140625,3.27
13:06:49.156250,3.69
13:06:49.171875,4.41
13:06:49.187500,5.34
13:06:49.203125,6.48
13:06:49.218750,7.92
13:06:49.234375,9.74
13:06:49.250000,11.92
13:06:49.265625,14.20
13:06:49.281250,16.22
13:06:49.296875,17.52
13:06:49.312500,17.87
13:06:49.328125,17.27
13:06:49.343750,16.01
13:06:49.359375,14.49
13:06:49.375000,13.02
13:06:49.390625,11.70
13:06:49.406250,10.44
13:06:49.421875,9.01
13:06:49.437500,7.26
13:06:49.453125,5.16
13:06:49.468750,2.87
13:06:49.484375,0.64
13:06:49.500000,-1.24
13:06:49.515625,-2.57
13:06:49.531250,-3.22
13:06:49.546875,-3.24
13:06:49.562500,-2.80
13:06:49.578125,-2.21
13:06:49.593750,-1.87
13:06:49.609375,-2.11
13:06:49.625000,-3.13
13:06:49.640625,-4.91
13:06:49.656250,-7.25
13:06:49.671875,-9.85
13:06:49.687500,-12.44
13:06:49.703125,-14.89
13:06:49.718750,-17.16
13:06:49.734375,-19.33
13:06:49.750000,-21.46
13:06:49.765625,-23.49
13:06:49.781250,-25.24
13:06:49.796875,-26.43
13:06:49.812500,-26.73
13:06:49.828125,-25.87
13:06:49.843750,-23.72
13:06:49.859375,-20.39
13:06:49.875000,-16.24
13:06:49.890625,-11.79
13:06:49.906250,-7.58
13:06:49.921875,-4.01
13:06:49.937500,-1.30
13:06:49.953125,0.61
13:06:49.968750,1.92
13:06:49.984375,2.85
13:06:50,3.61
13:06:50.015625,4.29
13:06:50.031250,5.00
13:06:50.046875,5.77
13:06:50.062500,6.58
13:06:50.078125,7.47
13:06:50.093750,8.45
13:06:50.109375,9.55
13:06:50.125000,10.76
13:06:50.140625,12.01
13:06:50.156250,13.25
13:06:50.171875,14.44
13:06:50.187500,15.52
13:06:50.203125,16.47
13:06:50.218750,17.30
13:06:50.234375,18.10
13:06:50.250000,18.95
13:06:50.265625,19.87
13:06:50.281250,20.77
13:06:50.296875,21.54
13:06:50.312500,22.01
13:06:50.328125,21.89
13:06:50.343750,20.92
13:06:50.359375,19.02
13:06:50.375000,16.36
13:06:50.390625,13.37
13:06:50.406250,10.54
13:06:50.421875,8.28
13:06:50.437500,6.99
13:06:50.453125,6.76
13:06:50.468750,7.08
13:06:50.484375,7.01
13:06:50.500000,5.72
13:06:50.515625,2.94
13:06:50.531250,-0.98
13:06:50.546875,-5.25
13:06:50.562500,-9.12
13:06:50.578125,-11.58
13:06:50.593750,-12.15
13:06:50.609375,-11.47
13:06:50.625000,-11.07
13:06:50.640625,-12.39
13:06:50.656250,-15.95
13:06:50.671875,-21.23
13:06:50.687500,-27.11
13:06:50.703125,-32.34
13:06:50.718750,-35.19
13:06:50.734375,-34.48
13:06:50.750000,-30.81
13:06:50.765625,-26.00
13:06:50.781250,-21.85
13:06:50.796875,-19.00
13:06:50.812500,-16.85
13:06:50.828125,-13.99
13:06:50.843750,-8.70
13:06:50.859375,2.07
13:06:50.875000,21.65
13:06:50.890625,51.49
13:06:50.906250,90.78
13:06:50.921875,136.46
13:06:50.937500,183.59
13:06:50.953125,225.78
13:06:50.968750,256.45
13:06:50.984375,263.85
13:06:51,241.89
13:06:51.015625,196.54
13:06:51.031250,143.35
13:06:51.046875,98.09
13:06:51.062500,68.26
13:06:51.078125,53.00
13:06:51.093750,47.15
13:06:51.109375,45.42
13:06:51.125000,44.73
13:06:51.140625,43.85
13:06:51.156250,44.20
13:06:51.171875,45.00
13:06:51.187500,43.95
13:06:51.203125,39.27
13:06:51.218750,31.81
13:06:51.234375,25.23
13:06:51.250000,24.20
13:06:51.265625,31.75
13:06:51.281250,48.03
13:06:51.296875,73.56
13:06:51.312500,102.11
13:06:51.328125,125.43
13:06:51.343750,137.36
13:06:51.359375,136.22
13:06:51.375000,124.35
13:06:51.390625,105.65
13:06:51.406250,83.32
13:06:51.421875,59.52
13:06:51.437500,35.52
13:06:51.453125,11.26
13:06:51.468750,-12.91
13:06:51.484375,-36.29
13:06:51.500000,-58.26
13:06:51.515625,-79.21
13:06:51.531250,-100.54
13:06:51.546875,-124.07
13:06:51.562500,-150.80
13:06:51.578125,-180.01
13:06:51.593750,-210.04
13:06:51.609375,-237.72
13:06:51.625000,-259.21
13:06:51.640625,-271.25
13:06:51.656250,-272.48
13:06:51.671875,-264.21
13:06:51.687500,-250.01
13:06:51.703125,-234.22
13:06:51.718750,-220.23
13:06:51.734375,-209.76
13:06:51.750000,-202.22
13:06:51.765625,-195.63
13:06:51.781250,-187.98
13:06:51.796875,-178.38
13:06:51.812500,-167.41
13:06:51.828125,-156.46
13:06:51.843750,-146.74
13:06:51.859375,-138.46
13:06:51.875000,-130.95
13:06:51.890625,-122.90
13:06:51.906250,-113.37
13:06:51.921875,-102.39
13:06:51.937500,-91.13
13:06:51.953125,-81.40
13:06:51.968750,-74.76
13:06:51.984375,-71.78
13:06:52,-71.74
13:06:52.015625,-72.98
13:06:52.031250,-73.50
13:06:52.046875,-71.66
13:06:52.062500,-66.55
13:06:52.078125,-57.95
13:06:52.093750,-46.15
13:06:52.109375,-31.65
13:06:52.125000,-15.09
13:06:52.140625,2.70
13:06:52.156250,20.74
13:06:52.171875,37.98
13:06:52.187500,53.47
13:06:52.203125,66.65
13:06:52.218750,77.39
13:06:52.234375,85.94
13:06:52.250000,92.71
13:06:52.265625,98.14
13:06:52.281250,102.56
13:06:52.296875,106.21
13:06:52.312500,109.22
13:06:52.328125,111.67
13:06:52.343750,113.49
13:06:52.359375,114.61
13:06:52.375000,114.96
13:06:52.390625,114.66
13:06:52.406250,113.95
13:06:52.421875,113.04
13:06:52.437500,111.76
13:06:52.453125,109.43
13:06:52.468750,104.94
13:06:52.484375,97.18
13:06:52.500000,85.53
13:06:52.515625,70.28
13:06:52.531250,52.59
13:06:52.546875,34.20
13:06:52.562500,16.90
13:06:52.578125,2.21
13:06:52.593750,-8.79
13:06:52.609375,-15.44
13:06:52.625000,-17.50
13:06:52.640625,-15.13
13:06:52.656250,-8.95
13:06:52.671875,0.04
13:06:52.687500,10.66
13:06:52.703125,21.78
13:06:52.718750,32.55
13:06:52.734375,42.42
13:06:52.750000,51.20
13:06:52.765625,58.94
13:06:52.781250,65.96
13:06:52.796875,72.74
13:06:52.812500,79.83
13:06:52.828125,87.70
13:06:52.843750,96.59
13:06:52.859375,106.36
13:06:52.875000,116.58
13:06:52.890625,126.57
13:06:52.906250,135.57
13:06:52.921875,142.85
13:06:52.937500,147.88
13:06:52.953125,150.51
13:06:52.968750,151.13
13:06:52.984375,150.65
13:06:53,150.27
13:06:53.015625,151.02
13:06:53.031250,153.40
13:06:53.046875,157.07
13:06:53.062500,160.98
13:06:53.078125,163.79
13:06:53.093750,164.12
13:06:53.109375,160.99
13:06:53.125000,153.94
13:06:53.140625,143.16
13:06:53.156250,129.51
13:06:53.171875,114.39
13:06:53.187500,99.42
13:06:53.203125,86.06
13:06:53.218750,75.25
13:06:53.234375,67.27
13:06:53.250000,62.01
13:06:53.265625,59.23
13:06:53.281250,58.79
13:06:53.296875,60.59
13:06:53.312500,64.27
13:06:53.328125,68.95
13:06:53.343750,73.07
13:06:53.359375,74.73
13:06:53.375000,71.93
13:06:53.390625,62.93
13:06:53.406250,46.49
13:06:53.421875,22.06
13:06:53.437500,-9.86
13:06:53.453125,-47.40
13:06:53.468750,-87.38
13:06:53.484375,-125.85
13:06:53.500000,-159.18
13:06:53.515625,-185.16
13:06:53.531250,-203.57
13:06:53.546875,-215.93
13:06:53.562500,-224.65
13:06:53.578125,-231.85
13:06:53.593750,-238.67
13:06:53.609375,-245.27
13:06:53.625000,-251.26
13:06:53.640625,-256.38
13:06:53.656250,-260.79
13:06:53.671875,-264.93
13:06:53.687500,-269.12
13:06:53.703125,-273.27
13:06:53.718750,-276.82
13:06:53.734375,-279.07
13:06:53.750000,-279.46
13:06:53.765625,-277.73
13:06:53.781250,-273.76
13:06:53.796875,-267.35
13:06:53.812500,-258.03
13:06:53.828125,-245.12
13:06:53.843750,-228.21
13:06:53.859375,-207.42
13:06:53.875000,-183.75
13:06:53.890625,-158.77
13:06:53.906250,-134.14
13:06:53.921875,-111.09
13:06:53.937500,-90.13
13:06:53.953125,-71.06
13:06:53.968750,-53.27
13:06:53.984375,-35.78
13:06:54,-17.10
13:06:54.015625,4.87
13:06:54.031250,32.79
13:06:54.046875,69.06
13:06:54.062500,114.84
13:06:54.078125,169.31
13:06:54.093750,229.62
13:06:54.109375,291.70
13:06:54.125000,351.43
13:06:54.140625,405.47
13:06:54.156250,451.42
13:06:54.171875,487.41
13:06:54.187500,511.77
13:06:54.203125,523.13
13:06:54.218750,521.16
13:06:54.234375,507.32
13:06:54.250000,484.96
13:06:54.265625,458.66
13:06:54.281250,432.84
13:06:54.296875,410.54
13:06:54.312500,392.87
13:06:54.328125,379.44
13:06:54.343750,369.12
13:06:54.359375,360.87
13:06:54.375000,354.04
13:06:54.390625,348.24
13:06:54.406250,343.09
13:06:54.421875,338.02
13:06:54.437500,332.27
13:06:54.453125,325.03
13:06:54.468750,315.74
13:06:54.484375,304.07
13:06:54.500000,290.00
13:06:54.515625,273.67
13:06:54.531250,255.28
13:06:54.546875,235.04
13:06:54.562500,213.12
13:06:54.578125,189.73
13:06:54.593750,165.15
13:06:54.609375,139.65
13:06:54.625000,113.54
13:06:54.640625,87.10
13:06:54.656250,60.58
13:06:54.671875,34.23
13:06:54.687500,8.35
13:06:54.703125,-16.69
13:06:54.718750,-40.55
13:06:54.734375,-63.00
13:06:54.750000,-84.11
13:06:54.765625,-104.24
13:06:54.781250,-124.01
13:06:54.796875,-144.01
13:06:54.812500,-164.66
13:06:54.828125,-185.94
13:06:54.843750,-207.50
13:06:54.859375,-228.83
13:06:54.875000,-249.53
13:06:54.890625,-269.67
13:06:54.906250,-289.68
13:06:54.921875,-310.22
13:06:54.937500,-331.83
13:06:54.953125,-354.47
13:06:54.968750,-377.52
13:06:54.984375,-399.87
13:06:55,-420.53
13:06:55.015625,-438.86
13:06:55.031250,-455.71
13:06:55.046875,-471.96
13:06:55.062500,-487.75
13:06:55.078125,-502.45
13:06:55.093750,-515.60
13:06:55.109375,-527.79
13:06:55.125000,-540.51
13:06:55.140625,-555.02
13:06:55.156250,-570.40
13:06:55.171875,-583.31
13:06:55.187500,-586.88
13:06:55.203125,-572.53
13:06:55.218750,-533.39
13:06:55.234375,-467.46
13:06:55.250000,-378.33
13:06:55.265625,-273.15
13:06:55.281250,-159.55
13:06:55.296875,-43.72
13:06:55.312500,67.32
13:06:55.328125,167.02
13:06:55.343750,249.19
13:06:55.359375,308.31
13:06:55.375000,340.59
13:06:55.390625,345.80
13:06:55.406250,328.56
13:06:55.421875,297.32
13:06:55.437500,261.38
13:06:55.453125,222.00
13:06:55.468750,178.82
13:06:55.484375,133.27
13:06:55.500000,89.24
13:06:55.515625,50.29
13:06:55.531250,17.62
13:06:55.546875,-10.06
13:06:55.562500,-35.47
13:06:55.578125,-61.58
13:06:55.593750,-102.46
13:06:55.609375,-166.16
13:06:55.625000,-248.64
13:06:55.640625,-336.32
13:06:55.656250,-415.91
13:06:55.671875,-480.84
13:06:55.687500,-531.51
13:06:55.703125,-572.22
13:06:55.718750,-608.70
13:06:55.734375,-664.86
13:06:55.750000,-754.88
13:06:55.765625,-872.25
13:06:55.781250,-992.38
13:06:55.796875,-1087.88
13:06:55.812500,-1139.77
13:06:55.828125,-1141.12
13:06:55.843750,-1095.48
13:06:55.859375,-1015.36
13:06:55.875000,-944.12
13:06:55.890625,-918.10
13:06:55.906250,-949.06
13:06:55.921875,-1024.09
13:06:55.937500,-1122.46
13:06:55.953125,-1227.78
13:06:55.968750,-1331.33
13:06:55.984375,-1429.12
13:06:56,-1363.93
13:06:56.015625,-1063.71
13:06:56.031250,-581.05
13:06:56.046875,-54.92
13:06:56.062500,399.81
13:06:56.078125,741.75
13:06:56.093750,980.55
13:06:56.109375,1140.97
13:06:56.125000,1246.66
13:06:56.140625,1315.83
13:06:56.156250,1337.34
13:06:56.171875,1305.40
13:06:56.187500,1233.49
13:06:56.203125,1150.45
13:06:56.218750,1076.81
13:06:56.234375,1026.26
13:06:56.250000,998.87
13:06:56.265625,988.65
13:06:56.281250,989.19
13:06:56.296875,977.12
13:06:56.312500,937.67
13:06:56.328125,874.24
13:06:56.343750,804.11
13:06:56.359375,743.31
13:06:56.375000,698.44
13:06:56.390625,666.34
13:06:56.406250,640.23
13:06:56.421875,613.21
13:06:56.437500,573.80
13:06:56.453125,514.36
13:06:56.468750,438.38
13:06:56.484375,357.77
13:06:56.500000,283.29
13:06:56.515625,219.66
13:06:56.531250,165.44
13:06:56.546875,117.42
13:06:56.562500,73.25
13:06:56.578125,26.41
13:06:56.593750,-26.93
13:06:56.609375,-84.96
13:06:56.625000,-142.10
13:06:56.640625,-193.85
13:06:56.656250,-239.20
13:06:56.671875,-280.95
13:06:56.687500,-323.38
13:06:56.703125,-370.41
13:06:56.718750,-425.79
13:06:56.734375,-489.42
13:06:56.750000,-554.92
13:06:56.765625,-611.15
13:06:56.781250,-646.64
13:06:56.796875,-653.76
13:06:56.812500,-631.50
13:06:56.828125,-585.13
13:06:56.843750,-524.09
13:06:56.859375,-458.79
13:06:56.875000,-398.30
13:06:56.890625,-348.12
13:06:56.906250,-310.15
13:06:56.921875,-283.35
13:06:56.937500,-264.67
13:06:56.953125,-250.17
13:06:56.968750,-235.75
13:06:56.984375,-218.10
13:06:57,-195.36
13:06:57.015625,-167.74
13:06:57.031250,-136.92
13:06:57.046875,-105.27
13:06:57.062500,-74.95
13:06:57.078125,-47.60
13:06:57.093750,-24.00
13:06:57.109375,-4.13
13:06:57.125000,12.77
13:06:57.140625,28.14
13:06:57.156250,43.56
13:06:57.171875,60.31
13:06:57.187500,78.61
13:06:57.203125,97.55
13:06:57.218750,115.45
13:06:57.234375,130.88
13:06:57.250000,143.47
13:06:57.265625,154.29
13:06:57.281250,165.32
13:06:57.296875,178.49
13:06:57.312500,194.70
13:06:57.328125,213.25
13:06:57.343750,232.39
13:06:57.359375,250.16
13:06:57.375000,265.48
13:06:57.390625,278.65
13:06:57.406250,291.35
13:06:57.421875,305.61
13:06:57.437500,323.31
13:06:57.453125,345.74
13:06:57.468750,373.08
13:06:57.484375,404.18
13:06:57.500000,436.13
13:06:57.515625,464.34
13:06:57.531250,483.39
13:06:57.546875,488.71
13:06:57.562500,478.39
13:06:57.578125,454.43
13:06:57.593750,422.46
13:06:57.609375,389.53
13:06:57.625000,361.64
13:06:57.640625,341.13
13:06:57.656250,326.37
13:06:57.671875,312.86
13:06:57.687500,295.60
13:06:57.703125,271.25
13:06:57.718750,239.00
13:06:57.734375,200.07
13:06:57.750000,156.45
13:06:57.765625,110.10
13:06:57.781250,62.82
13:06:57.796875,16.94
13:06:57.812500,-24.18
13:06:57.828125,-56.22
13:06:57.843750,-74.72
13:06:57.859375,-76.58
13:06:57.875000,-61.82
13:06:57.890625,-34.68
13:06:57.906250,-2.94
13:06:57.921875,23.81
13:06:57.937500,37.46
13:06:57.953125,34.62
13:06:57.968750,17.86
13:06:57.984375,-5.56
13:06:58,-27.12
13:06:58.015625,-41.23
13:06:58.031250,-47.43
13:06:58.046875,-49.68
13:06:58.062500,-53.35
13:06:58.078125,-61.47
13:06:58.093750,-72.45
13:06:58.109375,-81.10
13:06:58.125000,-81.55
13:06:58.140625,-70.85
13:06:58.156250,-50.62
13:06:58.171875,-26.36
13:06:58.187500,-4.89
13:06:58.203125,8.59
13:06:58.218750,12.05
13:06:58.234375,6.90
13:06:58.250000,-2.98
13:06:58.265625,-12.56
13:06:58.281250,-17.03
13:06:58.296875,-12.75
13:06:58.312500,1.77
13:06:58.328125,25.43
13:06:58.343750,54.53
13:06:58.359375,83.51
13:06:58.375000,106.75
13:06:58.390625,120.11
13:06:58.406250,121.99
13:06:58.421875,113.08
13:06:58.437500,94.96
13:06:58.453125,68.64
13:06:58.468750,34.36
13:06:58.484375,-7.21
13:06:58.500000,-52.94
13:06:58.515625,-96.31
13:06:58.531250,-128.44
13:06:58.546875,-141.18
13:06:58.562500,-130.74
13:06:58.578125,-99.54
13:06:58.593750,-55.34
13:06:58.609375,-7.96
13:06:58.625000,34.42
13:06:58.640625,67.36
13:06:58.656250,89.90
13:06:58.671875,102.47
13:06:58.687500,104.84
13:06:58.703125,95.63
13:06:58.718750,73.21
13:06:58.734375,37.71
13:06:58.750000,-7.80
13:06:58.765625,-57.40
13:06:58.781250,-104.12
13:06:58.796875,-141.82
13:06:58.812500,-166.80
13:06:58.828125,-178.02
13:06:58.843750,-176.27
13:06:58.859375,-163.03
13:06:58.875000,-139.61
13:06:58.890625,-107.27
13:06:58.906250,-68.06
13:06:58.921875,-25.53
13:06:58.937500,15.13
13:06:58.953125,48.04
13:06:58.968750,68.57
13:06:58.984375,75.17
13:06:59,69.94
13:06:59.015625,57.63
13:06:59.031250,43.14
13:06:59.046875,29.22
13:06:59.062500,15.76
13:06:59.078125,0.73
13:06:59.093750,-17.47
13:06:59.109375,-38.13
13:06:59.125000,-58.12
13:06:59.140625,-73.49
13:06:59.156250,-81.63
13:06:59.171875,-82.69
13:06:59.187500,-78.99
13:06:59.203125,-73.23
13:06:59.218750,-66.85
13:06:59.234375,-59.37
13:06:59.250000,-49.43
13:06:59.265625,-36.15
13:06:59.281250,-20.15
13:06:59.296875,-3.64
13:06:59.312500,10.37
13:06:59.328125,18.95
13:06:59.343750,19.74
13:06:59.359375,11.52
13:06:59.375000,-5.15
13:06:59.390625,-27.16
13:06:59.406250,-48.80
13:06:59.421875,-62.83
13:06:59.437500,-63.01
13:06:59.453125,-46.78
13:06:59.468750,-16.96
13:06:59.484375,18.71
13:06:59.500000,50.25
13:06:59.515625,69.06
13:06:59.531250,70.79
13:06:59.546875,56.29
13:06:59.562500,30.60
13:06:59.578125,0.49
13:06:59.593750,-27.93
13:06:59.609375,-50.55
13:06:59.625000,-65.68
13:06:59.640625,-73.19
13:06:59.656250,-73.81
13:06:59.671875,-68.68
13:06:59.687500,-59.43
13:06:59.703125,-48.33
13:06:59.718750,-38.11
13:06:59.734375,-31.04
13:06:59.750000,-27.74
13:06:59.765625,-26.60
13:06:59.781250,-23.98
13:06:59.796875,-16.01
13:06:59.812500,-0.65
13:06:59.828125,20.81
13:06:59.843750,43.92
13:06:59.859375,62.75
13:06:59.875000,72.38
13:06:59.890625,70.87
13:06:59.906250,59.76
13:06:59.921875,43.19
13:06:59.937500,25.99
13:06:59.953125,12.11
13:06:59.968750,3.56
13:06:59.984375,0.32
13:07:00,0.98
13:07:00.015625,3.64
13:07:00.031250,6.83
13:07:00.046875,10.13
13:07:00.062500,14.24
13:07:00.078125,20.33
13:07:00.093750,29.25
13:07:00.109375,40.60
13:07:00.125000,52.51
13:07:00.140625,62.23
13:07:00.156250,67.04
13:07:00.171875,65.19
13:07:00.187500,56.21
13:07:00.203125,40.71
13:07:00.218750,20.05
13:07:00.234375,-3.85
13:07:00.250000,-28.33
13:07:00.265625,-49.87
13:07:00.281250,-64.44
13:07:00.296875,-68.61
13:07:00.312500,-61.08
13:07:00.328125,-43.65
13:07:00.343750,-21.21
13:07:00.359375,-0.11
13:07:00.375000,14.23
13:07:00.390625,19.64
13:07:00.406250,17.77
13:07:00.421875,13.01
13:07:00.437500,9.78
13:07:00.453125,9.97
13:07:00.468750,11.86
13:07:00.484375,11.22
13:07:00.500000,3.98
13:07:00.515625,-11.05
13:07:00.531250,-31.00
13:07:00.546875,-49.94
13:07:00.562500,-61.76
13:07:00.578125,-62.92
13:07:00.593750,-53.80
13:07:00.609375,-37.99
13:07:00.625000,-20.18
13:07:00.640625,-3.95
13:07:00.656250,9.41
13:07:00.671875,20.71
13:07:00.687500,31.64
13:07:00.703125,43.49
13:07:00.718750,56.30
13:07:00.734375,68.82
13:07:00.750000,79.00
13:07:00.765625,84.88
13:07:00.781250,85.51
13:07:00.796875,81.33
13:07:00.812500,73.99
13:07:00.828125,65.71
13:07:00.843750,58.22
13:07:00.859375,52.19
13:07:00.875000,47.07
13:07:00.890625,41.50
13:07:00.906250,34.04
13:07:00.921875,23.99
13:07:00.937500,11.93
13:07:00.953125,-0.38
13:07:00.968750,-10.50
13:07:00.984375,-15.99
13:07:01,-15.01
13:07:01.015625,-6.72
13:07:01.031250,8.81
13:07:01.046875,30.40
13:07:01.062500,55.68
13:07:01.078125,80.87
13:07:01.093750,101.13
13:07:01.109375,111.65
13:07:01.125000,109.01
13:07:01.140625,92.64
13:07:01.156250,65.36
13:07:01.171875,32.83
13:07:01.187500,1.64
13:07:01.203125,-22.80
13:07:01.218750,-38.11
13:07:01.234375,-45.41
13:07:01.250000,-48.39
13:07:01.265625,-51.48
13:07:01.281250,-57.67
13:07:01.296875,-67.31
13:07:01.312500,-77.99
13:07:01.328125,-85.76
13:07:01.343750,-86.98
13:07:01.359375,-80.27
13:07:01.375000,-67.53
13:07:01.390625,-53.45
13:07:01.406250,-43.79
13:07:01.421875,-42.97
13:07:01.437500,-52.51
13:07:01.453125,-70.65
13:07:01.468750,-93.52
13:07:01.484375,-116.79
13:07:01.500000,-136.85
13:07:01.515625,-151.36
13:07:01.531250,-158.66
13:07:01.546875,-157.08
13:07:01.562500,-144.39
13:07:01.578125,-118.40
13:07:01.593750,-78.43
13:07:01.609375,-26.97
13:07:01.625000,29.25
13:07:01.640625,80.22
13:07:01.656250,115.51
13:07:01.671875,128.06
13:07:01.687500,116.85
13:07:01.703125,87.37
13:07:01.718750,49.15
13:07:01.734375,11.86
13:07:01.750000,-18.07
13:07:01.765625,-38.89
13:07:01.781250,-52.17
13:07:01.796875,-60.47
13:07:01.812500,-65.06
13:07:01.828125,-65.28
13:07:01.843750,-59.56
13:07:01.859375,-46.86
13:07:01.875000,-28.08
13:07:01.890625,-5.94
13:07:01.906250,15.82
13:07:01.921875,33.61
13:07:01.937500,44.90
13:07:01.953125,48.50
13:07:01.968750,44.35
13:07:01.984375,33.05
13:07:02,15.66
13:07:02.015625,-6.35
13:07:02.031250,-31.01
13:07:02.046875,-55.80
13:07:02.062500,-77.76
13:07:02.078125,-93.93
13:07:02.093750,-101.87
13:07:02.109375,-100.22
13:07:02.125000,-89.07
13:07:02.140625,-69.79
13:07:02.156250,-44.52
13:07:02.171875,-15.58
13:07:02.187500,14.86
13:07:02.203125,44.81
13:07:02.218750,72.18
13:07:02.234375,94.50
13:07:02.250000,108.98
13:07:02.265625,112.93
13:07:02.281250,104.72
13:07:02.296875,84.66
13:07:02.312500,55.63
13:07:02.328125,22.81
13:07:02.343750,-7.60
13:07:02.359375,-30.25
13:07:02.375000,-42.28
13:07:02.390625,-43.80
13:07:02.406250,-37.21
13:07:02.421875,-25.64
13:07:02.437500,-11.47
13:07:02.453125,4.24
13:07:02.468750,21.28
13:07:02.484375,39.58
13:07:02.500000,58.46
13:07:02.515625,76.55
13:07:02.531250,92.01
13:07:02.546875,102.67
13:07:02.562500,106.06
13:07:02.578125,99.55
13:07:02.593750,80.96
13:07:02.609375,49.61
13:07:02.625000,7.91
13:07:02.640625,-37.99
13:07:02.656250,-78.96
13:07:02.671875,-105.50
13:07:02.687500,-111.24
13:07:02.703125,-95.52
13:07:02.718750,-63.84
13:07:02.734375,-25.71
13:07:02.750000,9.00
13:07:02.765625,33.32
13:07:02.781250,44.80
13:07:02.796875,44.96
13:07:02.812500,37.47
13:07:02.828125,26.26
13:07:02.843750,14.30
13:07:02.859375,3.19
13:07:02.875000,-6.73
13:07:02.890625,-16.01
13:07:02.906250,-25.56
13:07:02.921875,-36.07
13:07:02.937500,-47.21
13:07:02.953125,-57.42
13:07:02.968750,-64.12
13:07:02.984375,-64.71
13:07:03,-57.86
13:07:03.015625,-44.04
13:07:03.031250,-25.33
13:07:03.046875,-4.29
13:07:03.062500,16.83
13:07:03.078125,36.71
13:07:03.093750,54.70
13:07:03.109375,70.30
13:07:03.125000,83.01
13:07:03.140625,92.11
13:07:03.156250,96.94
13:07:03.171875,96.79
13:07:03.187500,90.91
13:07:03.203125,78.65
13:07:03.218750,60.08
13:07:03.234375,36.70
13:07:03.250000,11.66
13:07:03.265625,-10.81
13:07:03.281250,-26.87
13:07:03.296875,-34.37
13:07:03.312500,-33.60
13:07:03.328125,-26.72
13:07:03.343750,-16.43
13:07:03.359375,-4.44
13:07:03.375000,9.19
13:07:03.390625,25.43
13:07:03.406250,44.71
13:07:03.421875,65.51
13:07:03.437500,84.13
13:07:03.453125,95.72
13:07:03.468750,96.35
13:07:03.484375,84.83
13:07:03.500000,63.23
13:07:03.515625,35.94
13:07:03.531250,7.88
13:07:03.546875,-17.08
13:07:03.562500,-36.84
13:07:03.578125,-50.75
13:07:03.593750,-58.90
13:07:03.609375,-61.37
13:07:03.625000,-58.03
13:07:03.640625,-48.91
13:07:03.656250,-34.50
13:07:03.671875,-16.26
13:07:03.687500,3.54
13:07:03.703125,22.00
13:07:03.718750,36.15
13:07:03.734375,43.56
13:07:03.750000,42.93
13:07:03.765625,34.37
13:07:03.781250,19.24
13:07:03.796875,-0.32
13:07:03.812500,-21.94
13:07:03.828125,-43.42
13:07:03.843750,-62.90
13:07:03.859375,-78.70
13:07:03.875000,-89.36
13:07:03.890625,-93.73
13:07:03.906250,-91.50
13:07:03.921875,-83.58
13:07:03.937500,-71.99
13:07:03.953125,-59.15
13:07:03.968750,-46.94
13:07:03.984375,-35.85
13:07:04,-24.83
13:07:04.015625,-12.09
13:07:04.031250,3.69
13:07:04.046875,22.17
13:07:04.062500,41.00
13:07:04.078125,56.66
13:07:04.093750,65.88
13:07:04.109375,67.05
13:07:04.125000,60.86
13:07:04.140625,49.86
13:07:04.156250,37.25
13:07:04.171875,25.70
13:07:04.187500,16.71
13:07:04.203125,10.86
13:07:04.218750,8.22
13:07:04.234375,8.78
13:07:04.250000,12.47
13:07:04.265625,18.77
13:07:04.281250,26.49
13:07:04.296875,33.88
13:07:04.312500,39.25
13:07:04.328125,41.66
13:07:04.343750,41.25
13:07:04.359375,38.96
13:07:04.375000,35.80
13:07:04.390625,32.27
13:07:04.406250,27.93
13:07:04.421875,21.60
13:07:04.437500,11.81
13:07:04.453125,-2.51
13:07:04.468750,-21.34
13:07:04.484375,-43.22
13:07:04.500000,-65.23
13:07:04.515625,-83.58
13:07:04.531250,-94.53
13:07:04.546875,-95.52
13:07:04.562500,-86.17
13:07:04.578125,-68.27
13:07:04.593750,-45.28
13:07:04.609375,-21.10
13:07:04.625000,1.00
13:07:04.640625,18.97
13:07:04.656250,31.95
13:07:04.671875,39.86
13:07:04.687500,42.89
13:07:04.703125,41.32
13:07:04.718750,35.49
13:07:04.734375,25.54
13:07:04.750000,11.50
13:07:04.765625,-6.34
13:07:04.781250,-26.68
13:07:04.796875,-46.74
13:07:04.812500,-62.32
13:07:04.828125,-69.09
13:07:04.843750,-64.61
13:07:04.859375,-49.68
13:07:04.875000,-28.55
13:07:04.890625,-7.21
13:07:04.906250,9.09
13:07:04.921875,17.99
13:07:04.937500,20.72
13:07:04.953125,20.97
13:07:04.968750,22.89
13:07:04.984375,28.83
13:07:05,38.14
13:07:05.015625,47.13
13:07:05.031250,50.39
13:07:05.046875,42.85
13:07:05.062500,21.90
13:07:05.078125,-10.85
13:07:05.093750,-49.55
13:07:05.109375,-85.44
13:07:05.125000,-109.78
13:07:05.140625,-116.84
13:07:05.156250,-105.62
13:07:05.171875,-79.66
13:07:05.187500,-45.25
13:07:05.203125,-9.02
13:07:05.218750,23.84
13:07:05.234375,50.05
13:07:05.250000,68.06
13:07:05.265625,77.46
13:07:05.281250,78.83
13:07:05.296875,73.76
13:07:05.312500,64.83
13:07:05.328125,54.93
13:07:05.343750,46.21
13:07:05.359375,39.15
13:07:05.375000,32.36
13:07:05.390625,23.52
13:07:05.406250,10.85
13:07:05.421875,-5.52
13:07:05.437500,-23.02
13:07:05.453125,-37.43
13:07:05.468750,-44.44
13:07:05.484375,-41.44
13:07:05.500000,-28.51
13:07:05.515625,-8.47
13:07:05.531250,14.36
13:07:05.546875,35.41
13:07:05.562500,51.16
13:07:05.578125,59.69
13:07:05.593750,60.56
13:07:05.609375,54.36
13:07:05.625000,42.18
13:07:05.640625,25.30
13:07:05.656250,5.08
13:07:05.671875,-17.03
13:07:05.687500,-39.38
13:07:05.703125,-60.07
13:07:05.718750,-77.11
13:07:05.734375,-88.75
13:07:05.750000,-93.81
13:07:05.765625,-91.89
13:07:05.781250,-83.55
13:07:05.796875,-70.21
13:07:05.812500,-54.06
13:07:05.828125,-37.78
13:07:05.843750,-24.01
13:07:05.859375,-14.79
13:07:05.875000,-10.83
13:07:05.890625,-11.28
13:07:05.906250,-13.92
13:07:05.921875,-16.00
13:07:05.937500,-15.33
13:07:05.953125,-11.03
13:07:05.968750,-3.93
13:07:05.984375,3.86
13:07:06,9.76
13:07:06.015625,11.67
13:07:06.031250,8.63
13:07:06.046875,0.85
13:07:06.062500,-10.49
13:07:06.078125,-23.55
13:07:06.093750,-35.99
13:07:06.109375,-45.02
13:07:06.125000,-47.66
13:07:06.140625,-41.52
13:07:06.156250,-25.72
13:07:06.171875,-1.83
13:07:06.187500,26.24
13:07:06.203125,53.05
13:07:06.218750,73.37
13:07:06.234375,83.62
13:07:06.250000,82.60
13:07:06.265625,71.19
13:07:06.281250,51.24
13:07:06.296875,24.68
13:07:06.312500,-6.53
13:07:06.328125,-39.65
13:07:06.343750,-70.37
13:07:06.359375,-93.06
13:07:06.375000,-102.35
13:07:06.390625,-95.42
13:07:06.406250,-73.63
13:07:06.421875,-42.23
13:07:06.437500,-8.46
13:07:06.453125,21.32
13:07:06.468750,43.76
13:07:06.484375,58.75
13:07:06.500000,68.13
13:07:06.515625,73.67
13:07:06.531250,75.69
13:07:06.546875,73.19
13:07:06.562500,64.98
13:07:06.578125,50.97
13:07:06.593750,32.50
13:07:06.609375,11.79
13:07:06.625000,-8.92
13:07:06.640625,-27.71
13:07:06.656250,-42.71
13:07:06.671875,-51.77
13:07:06.687500,-52.66
13:07:06.703125,-44.04
13:07:06.718750,-26.65
13:07:06.734375,-3.69
13:07:06.750000,19.98
13:07:06.765625,39.52
13:07:06.781250,51.86
13:07:06.796875,56.33
13:07:06.812500,54.34
13:07:06.828125,48.23
13:07:06.843750,40.12
13:07:06.859375,31.27
13:07:06.875000,22.04
13:07:06.890625,12.24
13:07:06.906250,1.78
13:07:06.921875,-8.91
13:07:06.937500,-18.65
13:07:06.953125,-25.68
13:07:06.968750,-28.35
13:07:06.984375,-25.76
13:07:07,-18.32
13:07:07.015625,-7.49
13:07:07.031250,4.94
13:07:07.046875,17.71
13:07:07.062500,30.50
13:07:07.078125,43.62
13:07:07.093750,57.34
13:07:07.109375,70.97
13:07:07.125000,82.93
13:07:07.140625,91.26
13:07:07.156250,94.40
13:07:07.171875,91.90
13:07:07.187500,84.22
13:07:07.203125,72.66
13:07:07.218750,58.65
13:07:07.234375,43.75
13:07:07.250000,29.90
13:07:07.265625,19.58
13:07:07.281250,15.59
13:07:07.296875,20.05
13:07:07.312500,33.10
13:07:07.328125,51.74
13:07:07.343750,70.21
13:07:07.359375,81.85
13:07:07.375000,81.81
13:07:07.390625,69.05
13:07:07.406250,46.51
13:07:07.421875,19.35
13:07:07.437500,-7.80
13:07:07.453125,-32.54
13:07:07.468750,-54.84
13:07:07.484375,-75.40
13:07:07.500000,-94.01
13:07:07.515625,-108.90
13:07:07.531250,-117.44
13:07:07.546875,-117.47
13:07:07.562500,-108.34
13:07:07.578125,-91.00
13:07:07.593750,-67.32
13:07:07.609375,-39.41
13:07:07.625000,-9.20
13:07:07.640625,21.58
13:07:07.656250,51.41
13:07:07.671875,79.48
13:07:07.687500,105.87
13:07:07.703125,131.66
13:07:07.718750,158.10
13:07:07.734375,185.53
13:07:07.750000,212.81
13:07:07.765625,237.29
13:07:07.781250,255.50
13:07:07.796875,264.18
13:07:07.812500,261.36
13:07:07.828125,247.16
13:07:07.843750,224.06
13:07:07.859375,196.55
13:07:07.875000,170.17
13:07:07.890625,150.07
13:07:07.906250,139.68
13:07:07.921875,139.86
13:07:07.937500,148.88
13:07:07.953125,163.08
13:07:07.968750,177.85
13:07:07.984375,188.69
13:07:08,192.10
13:07:08.015625,186.03
13:07:08.031250,170.16
13:07:08.046875,145.67
13:07:08.062500,114.82
13:07:08.078125,80.02
13:07:08.093750,43.08
13:07:08.109375,5.11
13:07:08.125000,-33.10
13:07:08.140625,-70.15
13:07:08.156250,-103.57
13:07:08.171875,-130.49
13:07:08.187500,-149.01
13:07:08.203125,-159.36
13:07:08.218750,-164.06
13:07:08.234375,-166.90
13:07:08.250000,-171.19
13:07:08.265625,-178.39
13:07:08.281250,-187.86
13:07:08.296875,-197.78
13:07:08.312500,-206.79
13:07:08.328125,-215.09
13:07:08.343750,-224.56
13:07:08.359375,-237.97
13:07:08.375000,-257.89
13:07:08.390625,-285.97
13:07:08.406250,-322.72
13:07:08.421875,-367.69
13:07:08.437500,-419.24
13:07:08.453125,-474.06
13:07:08.468750,-526.71
13:07:08.484375,-570.11
13:07:08.500000,-597.02
13:07:08.515625,-602.13
13:07:08.531250,-583.88
13:07:08.546875,-545.03
13:07:08.562500,-491.44
13:07:08.578125,-429.84
13:07:08.593750,-365.69
13:07:08.609375,-301.63
13:07:08.625000,-237.83
13:07:08.640625,-173.24
13:07:08.656250,-107.39
13:07:08.671875,-41.79
13:07:08.687500,19.95
13:07:08.703125,73.11
13:07:08.718750,113.70
13:07:08.734375,140.28
13:07:08.750000,154.87
13:07:08.765625,162.57
13:07:08.781250,169.64
13:07:08.796875,181.42
13:07:08.812500,200.52
13:07:08.828125,226.59
13:07:08.843750,257.24
13:07:08.859375,289.68
13:07:08.875000,322.18
13:07:08.890625,354.38
13:07:08.906250,386.63
13:07:08.921875,418.65
13:07:08.937500,448.93
13:07:08.953125,474.78
13:07:08.968750,493.22
13:07:08.984375,502.19
13:07:09,501.04
13:07:09.015625,490.52
13:07:09.031250,472.03
13:07:09.046875,447.05
13:07:09.062500,417.10
13:07:09.078125,384.09
13:07:09.093750,350.51
13:07:09.109375,319.03
13:07:09.125000,291.73
13:07:09.140625,269.24
13:07:09.156250,250.53
13:07:09.171875,233.44
13:07:09.187500,215.86
13:07:09.203125,196.47
13:07:09.218750,174.97
13:07:09.234375,151.39
13:07:09.250000,125.49
13:07:09.265625,96.82
13:07:09.281250,65.05
13:07:09.296875,30.75
13:07:09.312500,-4.47
13:07:09.328125,-38.49
13:07:09.343750,-69.74
13:07:09.359375,-98.10
13:07:09.375000,-124.79
13:07:09.390625,-151.78
13:07:09.406250,-180.68
13:07:09.421875,-212.03
13:07:09.437500,-245.15
13:07:09.453125,-278.84
13:07:09.468750,-312.00
13:07:09.484375,-344.32
13:07:09.500000,-376.30
13:07:09.515625,-408.74
13:07:09.531250,-441.95
13:07:09.546875,-475.61
13:07:09.562500,-509.18
13:07:09.578125,-542.48
13:07:09.593750,-575.84
13:07:09.609375,-609.54
13:07:09.625000,-642.81
13:07:09.640625,-673.07
13:07:09.656250,-696.13
13:07:09.671875,-707.43
13:07:09.687500,-703.73
13:07:09.703125,-684.17
13:07:09.718750,-650.37
13:07:09.734375,-605.32
13:07:09.750000,-552.27
13:07:09.765625,-494.22
13:07:09.781250,-434.26
13:07:09.796875,-376.30
13:07:09.812500,-325.12
13:07:09.828125,-285.17
13:07:09.843750,-258.86
13:07:09.859375,-245.13
13:07:09.875000,-239.44
13:07:09.890625,-235.40
13:07:09.906250,-227.40
13:07:09.921875,-212.68
13:07:09.937500,-192.16
13:07:09.953125,-169.82
13:07:09.968750,-150.66
13:07:09.984375,-138.56
13:07:10,-134.81
13:07:10.015625,-137.92
13:07:10.031250,-144.39
13:07:10.046875,-150.14
13:07:10.062500,-151.91
13:07:10.078125,-148.02
13:07:10.093750,-138.58
13:07:10.109375,-124.91
13:07:10.125000,-108.71
13:07:10.140625,-91.41
13:07:10.156250,-73.87
13:07:10.171875,-56.54
13:07:10.187500,-39.80
13:07:10.203125,-24.26
13:07:10.218750,-10.59
13:07:10.234375,0.77
13:07:10.250000,10.00
13:07:10.265625,17.88
13:07:10.281250,25.48
13:07:10.296875,33.62
13:07:10.312500,42.48
13:07:10.328125,51.57
13:07:10.343750,60.02
13:07:10.359375,67.02
13:07:10.375000,72.21
13:07:10.390625,75.87
13:07:10.406250,78.66
13:07:10.421875,81.37
13:07:10.437500,84.50
13:07:10.453125,88.19
13:07:10.468750,92.27
13:07:10.484375,96.47
13:07:10.500000,100.65
13:07:10.515625,104.94
13:07:10.531250,109.57
13:07:10.546875,114.76
13:07:10.562500,120.57
13:07:10.578125,126.79
13:07:10.593750,133.17
13:07:10.609375,139.54
13:07:10.625000,145.98
13:07:10.640625,152.84
13:07:10.656250,160.50
13:07:10.671875,169.21
13:07:10.687500,178.91
13:07:10.703125,189.23
13:07:10.718750,199.77
13:07:10.734375,210.30
13:07:10.750000,220.97
13:07:10.765625,232.19
13:07:10.781250,244.41
13:07:10.796875,257.95
13:07:10.812500,273.07
13:07:10.828125,290.14
13:07:10.843750,309.61
13:07:10.859375,331.71
13:07:10.875000,355.65
13:07:10.890625,379.16
13:07:10.906250,398.79
13:07:10.921875,411.13
13:07:10.937500,414.43
13:07:10.953125,409.64
13:07:10.968750,400.20
13:07:10.984375,390.55
13:07:11,384.25
13:07:11.015625,382.77
13:07:11.031250,385.30
13:07:11.046875,389.60
13:07:11.062500,392.85
13:07:11.078125,392.33
13:07:11.093750,385.56
13:07:11.109375,370.50
13:07:11.125000,345.77
13:07:11.140625,311.30
13:07:11.156250,268.90
13:07:11.171875,222.45
13:07:11.187500,177.44
13:07:11.203125,139.65
13:07:11.218750,113.57
13:07:11.234375,100.95
13:07:11.250000,99.95
13:07:11.265625,105.72
13:07:11.281250,112.08
13:07:11.296875,114.04
13:07:11.312500,109.93
13:07:11.328125,102.10
13:07:11.343750,95.48
13:07:11.359375,94.89
13:07:11.375000,102.59
13:07:11.390625,117.02
13:07:11.406250,133.58
13:07:11.421875,146.62
13:07:11.437500,151.62
13:07:11.453125,146.55
13:07:11.468750,132.09
13:07:11.484375,110.91
13:07:11.500000,86.79
13:07:11.515625,63.51
13:07:11.531250,44.00
13:07:11.546875,29.95
13:07:11.562500,21.62
13:07:11.578125,17.96
13:07:11.593750,17.05
13:07:11.609375,16.79
13:07:11.625000,15.36
13:07:11.640625,11.65
13:07:11.656250,5.04
13:07:11.671875,-4.68
13:07:11.687500,-17.58
13:07:11.703125,-33.68
13:07:11.718750,-52.98
13:07:11.734375,-75.49
13:07:11.750000,-100.83
13:07:11.765625,-128.06
13:07:11.781250,-155.35
13:07:11.796875,-180.24
13:07:11.812500,-200.05
13:07:11.828125,-212.57
13:07:11.843750,-216.70
13:07:11.859375,-212.89
13:07:11.875000,-202.97
13:07:11.890625,-189.50
13:07:11.906250,-174.95
13:07:11.921875,-160.90
13:07:11.937500,-147.74
13:07:11.953125,-134.66
13:07:11.968750,-120.39
13:07:11.984375,-103.90
13:07:12,-85.19
13:07:12.015625,-65.75
13:07:12.031250,-48.30
13:07:12.046875,-35.94
13:07:12.062500,-30.76
13:07:12.078125,-32.84
13:07:12.093750,-40.09
13:07:12.109375,-49.15
13:07:12.125000,-57.04
13:07:12.140625,-62.17
13:07:12.156250,-64.69
13:07:12.171875,-65.49
13:07:12.187500,-64.96
13:07:12.203125,-62.26
13:07:12.218750,-55.67
13:07:12.234375,-43.67
13:07:12.250000,-26.06
13:07:12.265625,-4.32
13:07:12.281250,18.78
13:07:12.296875,39.89
13:07:12.312500,55.94
13:07:12.328125,64.50
13:07:12.343750,64.17
13:07:12.359375,54.75
13:07:12.375000,37.65
13:07:12.390625,15.82
13:07:12.406250,-6.74
13:07:12.421875,-26.16
13:07:12.437500,-39.59
13:07:12.453125,-45.76
13:07:12.468750,-44.89
13:07:12.484375,-38.26
13:07:12.500000,-27.63
13:07:12.515625,-15.12
13:07:12.531250,-2.93
13:07:12.546875,6.88
13:07:12.562500,12.97
13:07:12.578125,15.08
13:07:12.593750,13.96
13:07:12.609375,10.69
13:07:12.625000,5.91
13:07:12.640625,-0.59
13:07:12.656250,-9.58
13:07:12.671875,-21.63
13:07:12.687500,-36.46
13:07:12.703125,-52.57
13:07:12.718750,-67.79
13:07:12.734375,-80.14
13:07:12.750000,-88.65
13:07:12.765625,-93.63
13:07:12.781250,-96.21
13:07:12.796875,-97.63
13:07:12.812500,-98.36
13:07:12.828125,-97.61
13:07:12.843750,-93.51
13:07:12.859375,-84.13
13:07:12.875000,-68.75
13:07:12.890625,-48.90
13:07:12.906250,-28.23
13:07:12.921875,-11.34
13:07:12.937500,-1.77
13:07:12.953125,-0.60
13:07:12.968750,-6.10
13:07:12.984375,-15.07
13:07:13,-24.57
13:07:13.015625,-33.22
13:07:13.031250,-41.10
13:07:13.046875,-48.52
13:07:13.062500,-54.60
13:07:13.078125,-56.84
13:07:13.093750,-52.11
13:07:13.109375,-38.42
13:07:13.125000,-16.39
13:07:13.140625,10.59
13:07:13.156250,37.59
13:07:13.171875,60.14
13:07:13.187500,75.76
13:07:13.203125,84.39
13:07:13.218750,87.60
13:07:13.234375,87.28
13:07:13.250000,84.45
13:07:13.265625,78.81
13:07:13.281250,69.20
13:07:13.296875,54.79
13:07:13.312500,36.12
13:07:13.328125,15.46
13:07:13.343750,-3.81
13:07:13.359375,-18.57
13:07:13.375000,-27.05
13:07:13.390625,-29.42
13:07:13.406250,-27.21
13:07:13.421875,-22.31
13:07:13.437500,-15.74
13:07:13.453125,-7.37
13:07:13.468750,3.68
13:07:13.484375,17.85
13:07:13.500000,34.07
13:07:13.515625,49.22
13:07:13.531250,58.74
13:07:13.546875,58.01
13:07:13.562500,44.03
13:07:13.578125,17.04
13:07:13.593750,-19.01
13:07:13.609375,-56.79
13:07:13.625000,-87.01
13:07:13.640625,-100.44
13:07:13.656250,-90.20
13:07:13.671875,-53.97
13:07:13.687500,4.26
13:07:13.703125,73.79
13:07:13.718750,139.34
13:07:13.734375,185.13
13:07:13.750000,200.55
13:07:13.765625,184.65
13:07:13.781250,147.20
13:07:13.796875,105.63
13:07:13.812500,78.74
13:07:13.828125,80.26
13:07:13.843750,114.50
13:07:13.859375,176.04
13:07:13.875000,252.52
13:07:13.890625,329.00
13:07:13.906250,391.89
13:07:13.921875,431.46
13:07:13.937500,443.08
13:07:13.953125,427.46
13:07:13.968750,390.17
13:07:13.984375,340.21
13:07:14,287.51
13:07:14.015625,240.06
13:07:14.031250,201.89
13:07:14.046875,172.73
13:07:14.062500,149.29
13:07:14.078125,127.50
13:07:14.093750,104.03
13:07:14.109375,76.96
13:07:14.125000,45.31
13:07:14.140625,8.53
13:07:14.156250,-33.71
13:07:14.171875,-81.22
13:07:14.187500,-133.03
13:07:14.203125,-187.59
13:07:14.218750,-242.86
13:07:14.234375,-296.51
13:07:14.250000,-345.61
13:07:14.265625,-386.48
13:07:14.281250,-415.23
13:07:14.296875,-429.27
13:07:14.312500,-429.15
13:07:14.328125,-419.20
13:07:14.343750,-406.46
13:07:14.359375,-397.69
13:07:14.375000,-396.19
13:07:14.390625,-400.11
13:07:14.406250,-403.65
13:07:14.421875,-400.18
13:07:14.437500,-385.43
13:07:14.453125,-359.08
13:07:14.468750,-323.54
13:07:14.484375,-281.38
13:07:14.500000,-233.19
13:07:14.515625,-177.65
13:07:14.531250,-113.73
13:07:14.546875,-43.40
13:07:14.562500,27.05
13:07:14.578125,88.21
13:07:14.593750,130.81
13:07:14.609375,149.61
13:07:14.625000,145.97
13:07:14.640625,127.84
13:07:14.656250,107.13
13:07:14.671875,95.51
13:07:14.687500,100.36
13:07:14.703125,122.05
13:07:14.718750,153.83
13:07:14.734375,184.15
13:07:14.750000,200.88
13:07:14.765625,195.81
13:07:14.781250,167.57
13:07:14.796875,122.07
13:07:14.812500,70.08
13:07:14.828125,23.41
13:07:14.843750,-8.66
13:07:14.859375,-21.48
13:07:14.875000,-15.00
13:07:14.890625,7.67
13:07:14.906250,41.74
13:07:14.921875,81.90
13:07:14.937500,122.93
13:07:14.953125,160.23
13:07:14.968750,190.32
13:07:14.984375,211.44
13:07:15,223.86
13:07:15.015625,229.30
13:07:15.031250,229.86
13:07:15.046875,227.29
13:07:15.062500,222.57
13:07:15.078125,216.37
13:07:15.093750,209.68
13:07:15.109375,204.03
13:07:15.125000,201.22
13:07:15.140625,202.35
13:07:15.156250,206.99
13:07:15.171875,213.13
13:07:15.187500,217.88
13:07:15.203125,218.63
13:07:15.218750,214.11
13:07:15.234375,204.59
13:07:15.250000,191.03
13:07:15.265625,173.89
13:07:15.281250,151.99
13:07:15.296875,122.38
13:07:15.312500,81.62
13:07:15.328125,27.91
13:07:15.343750,-36.62
13:07:15.359375,-104.45
13:07:15.375000,-163.42
13:07:15.390625,-199.91
13:07:15.406250,-203.65
13:07:15.421875,-172.51
13:07:15.437500,-114.71
13:07:15.453125,-46.97
13:07:15.468750,11.14
13:07:15.484375,43.88
13:07:15.500000,44.72
13:07:15.515625,17.22
13:07:15.531250,-28.04
13:07:15.546875,-78.52
13:07:15.562500,-124.23
13:07:15.578125,-159.66
13:07:15.593750,-183.25
13:07:15.609375,-195.78
13:07:15.625000,-199.11
13:07:15.640625,-195.58
13:07:15.656250,-187.80
13:07:15.671875,-178.02
13:07:15.687500,-167.03
13:07:15.703125,-153.74
13:07:15.718750,-135.81
13:07:15.734375,-111.35
13:07:15.750000,-80.88
13:07:15.765625,-48.16
13:07:15.781250,-19.21
13:07:15.796875,-0.20
13:07:15.812500,5.26
13:07:15.828125,-2.15
13:07:15.843750,-17.62
13:07:15.859375,-33.90
13:07:15.875000,-44.19
13:07:15.890625,-44.98
13:07:15.906250,-37.46
13:07:15.921875,-26.78
13:07:15.937500,-19.41
13:07:15.953125,-20.10
13:07:15.968750,-29.36
13:07:15.984375,-43.51
13:07:16,-56.67
13:07:16.015625,-63.61
13:07:16.031250,-61.80
13:07:16.046875,-51.51
13:07:16.062500,-34.21
13:07:16.078125,-10.80
13:07:16.093750,19.02
13:07:16.109375,55.66
13:07:16.125000,97.43
13:07:16.140625,139.17
13:07:16.156250,172.74
13:07:16.171875,189.70
13:07:16.187500,185.08
13:07:16.203125,160.26
13:07:16.218750,123.08
13:07:16.234375,84.99
13:07:16.250000,56.35
13:07:16.265625,42.09
13:07:16.281250,39.95
13:07:16.296875,42.21
13:07:16.312500,39.94
13:07:16.328125,27.73
13:07:16.343750,5.98
13:07:16.359375,-19.90
13:07:16.375000,-43.12
13:07:16.390625,-59.70
13:07:16.406250,-70.88
13:07:16.421875,-82.55
13:07:16.437500,-101.83
13:07:16.453125,-133.15
13:07:16.468750,-175.39
13:07:16.484375,-222.29
13:07:16.500000,-265.59
13:07:16.515625,-298.95
13:07:16.531250,-320.50
13:07:16.546875,-332.37
13:07:16.562500,-337.88
13:07:16.578125,-338.19
13:07:16.593750,-330.75
13:07:16.609375,-310.60
13:07:16.625000,-273.76
13:07:16.640625,-220.94
13:07:16.656250,-158.84
13:07:16.671875,-98.68
13:07:16.687500,-52.49
13:07:16.703125,-29.02
13:07:16.718750,-30.96
13:07:16.734375,-54.60
13:07:16.750000,-91.88
13:07:16.765625,-133.47
13:07:16.781250,-171.38
13:07:16.796875,-200.39
13:07:16.812500,-218.24
13:07:16.828125,-224.70
13:07:16.843750,-220.44
13:07:16.859375,-206.28
13:07:16.875000,-183.12
13:07:16.890625,-152.66
13:07:16.906250,-117.96
13:07:16.921875,-83.65
13:07:16.937500,-55.30
13:07:16.953125,-38.14
13:07:16.968750,-35.23
13:07:16.984375,-46.09
13:07:17,-66.34
13:07:17.015625,-88.66
13:07:17.031250,-104.86
13:07:17.046875,-108.40
13:07:17.062500,-96.22
13:07:17.078125,-68.99
13:07:17.093750,-29.99
13:07:17.109375,16.55
13:07:17.125000,66.95
13:07:17.140625,117.69
13:07:17.156250,164.63
13:07:17.171875,202.53
13:07:17.187500,226.07
13:07:17.203125,231.88
13:07:17.218750,220.62
13:07:17.234375,197.68
13:07:17.250000,171.47
13:07:17.265625,150.16
13:07:17.281250,138.48
13:07:17.296875,136.07
13:07:17.312500,138.25
13:07:17.328125,138.51
13:07:17.343750,131.49
13:07:17.359375,115.15
13:07:17.375000,91.27
13:07:17.390625,64.39
13:07:17.406250,39.87
13:07:17.421875,21.95
13:07:17.437500,12.75
13:07:17.453125,12.31
13:07:17.468750,19.32
13:07:17.484375,31.71
13:07:17.500000,46.83
13:07:17.515625,61.36
13:07:17.531250,71.59
13:07:17.546875,74.54
13:07:17.562500,69.28
13:07:17.578125,57.91
13:07:17.593750,44.92
13:07:17.609375,35.13
13:07:17.625000,31.44
13:07:17.640625,33.76
13:07:17.656250,39.74
13:07:17.671875,46.93
13:07:17.687500,54.62
13:07:17.703125,64.23
13:07:17.718750,78.05
13:07:17.734375,97.00
13:07:17.750000,119.41
13:07:17.765625,141.36
13:07:17.781250,158.34
13:07:17.796875,167.04
13:07:17.812500,166.38
13:07:17.828125,157.02
13:07:17.843750,140.41
13:07:17.859375,117.94
13:07:17.875000,90.80
13:07:17.890625,60.44
13:07:17.906250,29.22
13:07:17.921875,0.56
13:07:17.937500,-21.54
13:07:17.953125,-33.51
13:07:17.968750,-33.16
13:07:17.984375,-20.55
13:07:18,1.92
13:07:18.015625,30.11
13:07:18.031250,58.88
13:07:18.046875,83.60
13:07:18.062500,100.94
13:07:18.078125,109.47
13:07:18.093750,109.76
13:07:18.109375,103.85
13:07:18.125000,94.49
13:07:18.140625,84.46
13:07:18.156250,76.18
13:07:18.171875,71.36
13:07:18.187500,70.79
13:07:18.203125,74.05
13:07:18.218750,79.31
13:07:18.234375,83.30
13:07:18.250000,82.21
13:07:18.265625,72.54
13:07:18.281250,52.27
13:07:18.296875,21.33
13:07:18.312500,-18.96
13:07:18.328125,-66.90
13:07:18.343750,-121.45
13:07:18.359375,-182.11
13:07:18.375000,-247.79
13:07:18.390625,-315.23
13:07:18.406250,-378.41
13:07:18.421875,-429.42
13:07:18.437500,-460.82
13:07:18.453125,-468.48
13:07:18.468750,-452.99
13:07:18.484375,-419.37
13:07:18.500000,-374.77
13:07:18.515625,-325.62
13:07:18.531250,-275.60
13:07:18.546875,-225.09
13:07:18.562500,-172.46
13:07:18.578125,-116.18
13:07:18.593750,-56.73
13:07:18.609375,2.76
13:07:18.625000,56.96
13:07:18.640625,100.00
13:07:18.656250,127.25
13:07:18.671875,136.98
13:07:18.687500,130.95
13:07:18.703125,114.18
13:07:18.718750,93.70
13:07:18.734375,76.64
13:07:18.750000,68.79
13:07:18.765625,73.04
13:07:18.781250,88.99
13:07:18.796875,113.13
13:07:18.812500,139.82
13:07:18.828125,162.89
13:07:18.843750,177.14
13:07:18.859375,179.86
13:07:18.875000,171.33
13:07:18.890625,154.77
13:07:18.906250,135.47
13:07:18.921875,119.45
13:07:18.937500,111.92
13:07:18.953125,115.84
13:07:18.968750,131.05
13:07:18.984375,154.18
13:07:19,179.45
13:07:19.015625,200.29
13:07:19.031250,211.18
13:07:19.046875,209.45
13:07:19.062500,196.25
13:07:19.078125,176.15
13:07:19.093750,155.55
13:07:19.109375,140.39
13:07:19.125000,134.13
13:07:19.140625,136.77
13:07:19.156250,145.22
13:07:19.171875,155.03
13:07:19.187500,162.12
13:07:19.203125,163.90
13:07:19.218750,159.56
13:07:19.234375,149.40
13:07:19.250000,134.24
13:07:19.265625,115.11
13:07:19.281250,93.41
13:07:19.296875,71.00
13:07:19.312500,49.70
13:07:19.328125,30.41
13:07:19.343750,12.27
13:07:19.359375,-7.10
13:07:19.375000,-30.70
13:07:19.390625,-60.40
13:07:19.406250,-95.60
13:07:19.421875,-132.87
13:07:19.437500,-166.74
13:07:19.453125,-191.42
13:07:19.468750,-202.50
13:07:19.484375,-198.16
13:07:19.500000,-179.71
13:07:19.515625,-151.40
13:07:19.531250,-119.73
13:07:19.546875,-92.30
13:07:19.562500,-76.12
13:07:19.578125,-75.50
13:07:19.593750,-90.31
13:07:19.609375,-115.38
13:07:19.625000,-141.81
13:07:19.640625,-159.82
13:07:19.656250,-162.38
13:07:19.671875,-147.80
13:07:19.687500,-120.23
13:07:19.703125,-87.85
13:07:19.718750,-59.34
13:07:19.734375,-40.57
13:07:19.750000,-32.51
13:07:19.765625,-31.41
13:07:19.781250,-30.90
13:07:19.796875,-24.79
13:07:19.812500,-9.82
13:07:19.828125,13.28
13:07:19.843750,39.78
13:07:19.859375,62.78
13:07:19.875000,75.35
13:07:19.890625,73.19
13:07:19.906250,56.25
13:07:19.921875,28.95
13:07:19.937500,-1.26
13:07:19.953125,-26.61
13:07:19.968750,-41.51
13:07:19.984375,-44.12
13:07:20,-36.06
13:07:20.015625,-20.83
13:07:20.031250,-1.89
13:07:20.046875,18.67
13:07:20.062500,39.88
13:07:20.078125,60.92
13:07:20.093750,80.10
13:07:20.109375,94.81
13:07:20.125000,102.71
13:07:20.140625,103.22
13:07:20.156250,98.40
13:07:20.171875,92.43
13:07:20.187500,89.78
13:07:20.203125,93.20
13:07:20.218750,102.52
13:07:20.234375,114.64
13:07:20.250000,124.78
13:07:20.265625,127.96
13:07:20.281250,120.24
13:07:20.296875,99.46
13:07:20.312500,65.38
13:07:20.328125,19.92
13:07:20.343750,-32.74
13:07:20.359375,-86.56
13:07:20.375000,-134.70
13:07:20.390625,-171.28
13:07:20.406250,-193.15
13:07:20.421875,-200.68
13:07:20.437500,-197.38
13:07:20.453125,-188.26
13:07:20.468750,-177.65
13:07:20.484375,-167.38
13:07:20.500000,-156.18
13:07:20.515625,-140.38
13:07:20.531250,-115.36
13:07:20.546875,-77.55
13:07:20.562500,-26.06
13:07:20.578125,36.41
13:07:20.593750,103.88
13:07:20.609375,168.60
13:07:20.625000,223.27
13:07:20.640625,263.11
13:07:20.656250,286.88
13:07:20.671875,296.62
13:07:20.687500,296.16
13:07:20.703125,289.55
13:07:20.718750,279.95
13:07:20.734375,269.28
13:07:20.750000,258.27
13:07:20.765625,246.67
13:07:20.781250,233.29
13:07:20.796875,216.50
13:07:20.812500,194.98
13:07:20.828125,168.63
13:07:20.843750,139.28
13:07:20.859375,110.22
13:07:20.875000,84.77
13:07:20.890625,64.57
13:07:20.906250,48.59
13:07:20.921875,33.68
13:07:20.937500,15.99
13:07:20.953125,-7.35
13:07:20.968750,-37.47
13:07:20.984375,-73.74
13:07:21,-114.27
13:07:21.015625,-156.63
13:07:21.031250,-197.80
13:07:21.046875,-234.32
13:07:21.062500,-262.47
13:07:21.078125,-279.12
13:07:21.093750,-282.72
13:07:21.109375,-273.94
13:07:21.125000,-255.34
13:07:21.140625,-230.01
13:07:21.156250,-200.21
13:07:21.171875,-166.55
13:07:21.187500,-128.32
13:07:21.203125,-85.07
13:07:21.218750,-38.12
13:07:21.234375,8.87
13:07:21.250000,50.36
13:07:21.265625,80.73
13:07:21.281250,96.32
13:07:21.296875,96.40
13:07:21.312500,82.94
13:07:21.328125,59.01
13:07:21.343750,27.42
13:07:21.359375,-9.95
13:07:21.375000,-51.79
13:07:21.390625,-97.21
13:07:21.406250,-145.40
13:07:21.421875,-195.66
13:07:21.437500,-247.68
13:07:21.453125,-301.53
13:07:21.468750,-357.43
13:07:21.484375,-414.98
13:07:21.500000,-472.20
13:07:21.515625,-524.78
13:07:21.531250,-567.29
13:07:21.546875,-594.76
13:07:21.562500,-604.34
13:07:21.578125,-596.41
13:07:21.593750,-574.67
13:07:21.609375,-545.01
13:07:21.625000,-513.67
13:07:21.640625,-484.83
13:07:21.656250,-458.26
13:07:21.671875,-431.73
13:07:21.687500,-402.63
13:07:21.703125,-369.21
13:07:21.718750,-330.98
13:07:21.734375,-288.88
13:07:21.750000,-245.19
13:07:21.765625,-202.79
13:07:21.781250,-164.01
13:07:21.796875,-127.13
13:07:21.812500,-89.96
13:07:21.828125,-50.90
13:07:21.843750,-8.91
13:07:21.859375,36.77
13:07:21.875000,86.15
13:07:21.890625,137.91
13:07:21.906250,189.85
13:07:21.921875,240.67
13:07:21.937500,295.28
13:07:21.953125,358.15
13:07:21.968750,431.51
13:07:21.984375,515.55
13:07:22,609.48
13:07:22.015625,710.97
13:07:22.031250,814.66
13:07:22.046875,911.37
13:07:22.062500,990.03
13:07:22.078125,1045.92
13:07:22.093750,1074.97
13:07:22.109375,1074.42
13:07:22.125000,1044.35
13:07:22.140625,988.60
13:07:22.156250,912.51
13:07:22.171875,820.06
13:07:22.187500,712.31
13:07:22.203125,557.20
13:07:22.218750,354.78
13:07:22.234375,134.65
13:07:22.250000,-63.35
13:07:22.265625,-214.81
13:07:22.281250,-315.87
13:07:22.296875,-373.89
13:07:22.312500,-397.80
13:07:22.328125,-395.77
13:07:22.343750,-375.61
13:07:22.359375,-341.45
13:07:22.375000,-302.49
13:07:22.390625,-270.97
13:07:22.406250,-255.22
13:07:22.421875,-252.54
13:07:22.437500,-253.55
13:07:22.453125,-243.69
13:07:22.468750,-215.25
13:07:22.484375,-170.91
13:07:22.500000,-117.99
13:07:22.515625,-68.86
13:07:22.531250,-34.70
13:07:22.546875,-20.15
13:07:22.562500,-20.93
13:07:22.578125,-28.12
13:07:22.593750,-33.96
13:07:22.609375,-36.22
13:07:22.625000,-36.85
13:07:22.640625,-36.29
13:07:22.656250,-34.83
13:07:22.671875,-29.50
13:07:22.687500,-19.31
13:07:22.703125,-4.48
13:07:22.718750,12.95
13:07:22.734375,29.50
13:07:22.750000,41.26
13:07:22.765625,46.13
13:07:22.781250,46.21
13:07:22.796875,45.06
13:07:22.812500,45.71
13:07:22.828125,48.56
13:07:22.843750,51.80
13:07:22.859375,51.97
13:07:22.875000,45.32
13:07:22.890625,29.11
13:07:22.906250,2.80
13:07:22.921875,-31.09
13:07:22.937500,-68.87
13:07:22.953125,-107.19
13:07:22.968750,-144.58
13:07:22.984375,-181.25
13:07:23,-219.16
13:07:23.015625,-261.32
13:07:23.031250,-310.71
13:07:23.046875,-368.35
13:07:23.062500,-431.64
13:07:23.078125,-493.80
13:07:23.093750,-545.04
13:07:23.109375,-575.77
13:07:23.125000,-579.85
13:07:23.140625,-557.12
13:07:23.156250,-513.40
13:07:23.171875,-458.16
13:07:23.187500,-400.63
13:07:23.203125,-347.03
13:07:23.218750,-299.85
13:07:23.234375,-258.93
13:07:23.250000,-223.70
13:07:23.265625,-194.29
13:07:23.281250,-171.69
13:07:23.296875,-156.69
13:07:23.312500,-148.59
13:07:23.328125,-144.82
13:07:23.343750,-141.89
13:07:23.359375,-136.95
13:07:23.375000,-128.73
13:07:23.390625,-117.63
13:07:23.406250,-105.02
13:07:23.421875,-92.01
13:07:23.437500,-78.60
13:07:23.453125,-63.43
13:07:23.468750,-43.99
13:07:23.484375,-18.15
13:07:23.500000,14.45
13:07:23.515625,52.11
13:07:23.531250,91.59
13:07:23.546875,129.43
13:07:23.562500,163.25
13:07:23.578125,192.21
13:07:23.593750,216.89
13:07:23.609375,239.87
13:07:23.625000,263.01
13:07:23.640625,286.62
13:07:23.656250,310.25
13:07:23.671875,334.19
13:07:23.687500,360.20
13:07:23.703125,390.07
13:07:23.718750,423.03
13:07:23.734375,454.19
13:07:23.750000,478.35
13:07:23.765625,490.20
13:07:23.781250,487.28
13:07:23.796875,471.67
13:07:23.812500,449.38
13:07:23.828125,427.22
13:07:23.843750,409.17
13:07:23.859375,395.27
13:07:23.875000,383.94
13:07:23.890625,378.92
13:07:23.906250,384.60
13:07:23.921875,401.83
13:07:23.937500,424.72
13:07:23.953125,441.79
13:07:23.968750,440.64
13:07:23.984375,413.75
13:07:24,362.76
13:07:24.015625,298.73
13:07:24.031250,243.03
13:07:24.046875,213.09
13:07:24.062500,214.61
13:07:24.078125,240.48
13:07:24.093750,277.07
13:07:24.109375,311.72
13:07:24.125000,337.06
13:07:24.140625,351.12
13:07:24.156250,321.65
13:07:24.171875,235.40
13:07:24.187500,103.53
13:07:24.203125,-44.26
13:07:24.218750,-180.21
13:07:24.234375,-290.64
13:07:24.250000,-373.58
13:07:24.265625,-431.95
13:07:24.281250,-469.89
13:07:24.296875,-491.78
13:07:24.312500,-496.88
13:07:24.328125,-486.46
13:07:24.343750,-465.51
13:07:24.359375,-441.82
13:07:24.375000,-421.71
13:07:24.390625,-407.65
13:07:24.406250,-398.58
13:07:24.421875,-392.08
13:07:24.437500,-386.11
13:07:24.453125,-375.61
13:07:24.468750,-358.07
13:07:24.484375,-334.71
13:07:24.500000,-309.42
13:07:24.515625,-285.48
13:07:24.531250,-265.25
13:07:24.546875,-248.49
13:07:24.562500,-233.95
13:07:24.578125,-220.59
13:07:24.593750,-205.42
13:07:24.609375,-186.98
13:07:24.625000,-166.16
13:07:24.640625,-145.59
13:07:24.656250,-127.76
13:07:24.671875,-113.81
13:07:24.687500,-103.32
13:07:24.703125,-95.39
13:07:24.718750,-89.18
13:07:24.734375,-82.94
13:07:24.750000,-75.71
13:07:24.765625,-67.71
13:07:24.781250,-60.04
13:07:24.796875,-53.89
13:07:24.812500,-49.80
13:07:24.828125,-47.61
13:07:24.843750,-46.84
13:07:24.859375,-47.01
13:07:24.875000,-47.25
13:07:24.890625,-46.99
13:07:24.906250,-46.15
13:07:24.921875,-45.04
13:07:24.937500,-44.13
13:07:24.953125,-43.75
13:07:24.968750,-44.00
13:07:24.984375,-44.87
13:07:25,-46.33
13:07:25.015625,-48.36
13:07:25.031250,-50.94
13:07:25.046875,-54.00
13:07:25.062500,-57.48
13:07:25.078125,-61.30
13:07:25.093750,-65.36
13:07:25.109375,-69.53
13:07:25.125000,-73.69
13:07:25.140625,-77.73
13:07:25.156250,-81.57
13:07:25.171875,-85.17
13:07:25.187500,-88.52
13:07:25.203125,-91.65
13:07:25.218750,-94.59
13:07:25.234375,-97.39
13:07:25.250000,-100.05
13:07:25.265625,-102.54
13:07:25.281250,-104.79
13:07:25.296875,-106.67
13:07:25.312500,-108.01
13:07:25.328125,-108.63
13:07:25.343750,-108.32
13:07:25.359375,-106.89
13:07:25.375000,-104.19
13:07:25.390625,-100.13
13:07:25.406250,-94.68
13:07:25.421875,-87.90
13:07:25.437500,-79.94
13:07:25.453125,-71.03
13:07:25.468750,-61.51
13:07:25.484375,-51.71
13:07:25.500000,-42.03
13:07:25.515625,-32.77
13:07:25.531250,-24.20
13:07:25.546875,-16.45
13:07:25.562500,-9.59
13:07:25.578125,-3.58
13:07:25.593750,1.65
13:07:25.609375,6.18
13:07:25.625000,10.08
13:07:25.640625,13.36
13:07:25.656250,16.06
13:07:25.671875,18.23
13:07:25.687500,19.97
13:07:25.703125,21.39
13:07:25.718750,22.64
13:07:25.734375,23.79
13:07:25.750000,24.88
13:07:25.765625,25.86
13:07:25.781250,26.63
13:07:25.796875,27.17
13:07:25.812500,27.53
13:07:25.828125,27.96
13:07:25.843750,28.78
13:07:25.859375,30.32
13:07:25.875000,32.80
13:07:25.890625,36.22
13:07:25.906250,40.32
13:07:25.921875,44.70
13:07:25.937500,49.01
13:07:25.953125,53.10
13:07:25.968750,57.14
13:07:25.984375,61.55
13:07:26,66.81
13:07:26.015625,73.24
13:07:26.031250,80.76
13:07:26.046875,88.89
13:07:26.062500,96.92
13:07:26.078125,104.24
13:07:26.093750,110.68
13:07:26.109375,116.64
13:07:26.125000,123.04
13:07:26.140625,130.88
13:07:26.156250,140.87
13:07:26.171875,153.02
13:07:26.187500,166.66
13:07:26.203125,180.69
13:07:26.218750,194.07
13:07:26.234375,206.26
13:07:26.250000,217.49
13:07:26.265625,228.67
13:07:26.281250,241.19
13:07:26.296875,256.55
13:07:26.312500,275.95
13:07:26.328125,299.64
13:07:26.343750,326.44
13:07:26.359375,353.45
13:07:26.375000,376.39
13:07:26.390625,390.74
13:07:26.406250,393.06
13:07:26.421875,382.22
13:07:26.437500,359.82
13:07:26.453125,329.57
13:07:26.468750,295.99
13:07:26.484375,262.97
13:07:26.500000,232.88
13:07:26.515625,206.25
13:07:26.531250,182.32
13:07:26.546875,159.75
13:07:26.562500,137.55
13:07:26.578125,115.69
13:07:26.593750,95.25
13:07:26.609375,78.14
13:07:26.625000,66.31
13:07:26.640625,60.88
13:07:26.656250,61.50
13:07:26.671875,66.44
13:07:26.687500,73.47
13:07:26.703125,80.79
13:07:26.718750,87.49
13:07:26.734375,93.38
13:07:26.750000,98.18
13:07:26.765625,100.94
13:07:26.781250,100.15
13:07:26.796875,94.51
13:07:26.812500,84.03
13:07:26.828125,70.35
13:07:26.843750,56.35
13:07:26.859375,44.89
13:07:26.875000,37.57
13:07:26.890625,34.20
13:07:26.906250,33.11
13:07:26.921875,32.17
13:07:26.937500,29.83
13:07:26.953125,25.78
13:07:26.968750,20.80
13:07:26.984375,16.18
13:07:27,13.00
13:07:27.015625,11.53
13:07:27.031250,11.23
13:07:27.046875,10.96
13:07:27.062500,9.61
13:07:27.078125,6.64
13:07:27.093750,2.29
13:07:27.109375,-2.61
13:07:27.125000,-7.11
13:07:27.140625,-10.69
13:07:27.156250,-13.46
13:07:27.171875,-16.10
13:07:27.187500,-19.36
13:07:27.203125,-23.65
13:07:27.218750,-28.83
13:07:27.234375,-34.31
13:07:27.250000,-39.39
13:07:27.265625,-43.57
13:07:27.281250,-46.75
13:07:27.296875,-49.14
13:07:27.312500,-51.05
13:07:27.328125,-52.65
13:07:27.343750,-53.91
13:07:27.359375,-54.64
13:07:27.375000,-54.67
13:07:27.390625,-53.99
13:07:27.406250,-52.88
13:07:27.421875,-51.77
13:07:27.437500,-51.14
13:07:27.453125,-51.29
13:07:27.468750,-52.29
13:07:27.484375,-53.97
13:07:27.500000,-55.96
13:07:27.515625,-57.95
13:07:27.531250,-59.63
13:07:27.546875,-60.77
13:07:27.562500,-61.11
13:07:27.578125,-60.43
13:07:27.593750,-58.67
13:07:27.609375,-56.12
13:07:27.625000,-53.49
13:07:27.640625,-51.81
13:07:27.656250,-51.97
13:07:27.671875,-54.25
13:07:27.687500,-57.99
13:07:27.703125,-61.62
13:07:27.718750,-63.22
13:07:27.734375,-61.10
13:07:27.750000,-54.51
13:07:27.765625,-43.81
13:07:27.781250,-30.26
13:07:27.796875,-15.62
13:07:27.812500,-1.58
13:07:27.828125,10.54
13:07:27.843750,19.95
13:07:27.859375,26.43
13:07:27.875000,30.38
13:07:27.890625,32.64
13:07:27.906250,34.32
13:07:27.921875,36.44
13:07:27.937500,39.57
13:07:27.953125,43.67
13:07:27.968750,48.09
13:07:27.984375,51.88
13:07:28,54.21
13:07:28.015625,54.66
13:07:28.031250,53.35
13:07:28.046875,50.79
13:07:28.062500,47.65
13:07:28.078125,44.51
13:07:28.093750,41.68
13:07:28.109375,39.22
13:07:28.125000,37.06
13:07:28.140625,35.07
13:07:28.156250,33.18
13:07:28.171875,31.32
13:07:28.187500,29.46
13:07:28.203125,27.51
13:07:28.218750,25.35
13:07:28.234375,22.91
13:07:28.250000,20.22
13:07:28.265625,17.41
13:07:28.281250,14.66
13:07:28.296875,12.07
13:07:28.312500,9.59
13:07:28.328125,7.04
13:07:28.343750,4.21
13:07:28.359375,1.01
13:07:28.375000,-2.50
13:07:28.390625,-6.12
13:07:28.406250,-9.56
13:07:28.421875,-12.59
13:07:28.437500,-15.04
13:07:28.453125,-16.88
13:07:28.468750,-18.10
13:07:28.484375,-18.73
13:07:28.500000,-18.79
13:07:28.515625,-18.30
13:07:28.531250,-17.29
13:07:28.546875,-15.85
13:07:28.562500,-14.11
13:07:28.578125,-12.19
13:07:28.593750,-10.19
13:07:28.609375,-8.19
13:07:28.625000,-6.32
13:07:28.640625,-4.77
13:07:28.656250,-3.79
13:07:28.671875,-3.59
13:07:28.687500,-4.28
13:07:28.703125,-5.79
13:07:28.718750,-7.87
13:07:28.734375,-10.19
13:07:28.750000,-12.37
13:07:28.765625,-14.10
13:07:28.781250,-15.19
13:07:28.796875,-15.60
13:07:28.812500,-15.47
13:07:28.828125,-15.04
13:07:28.843750,-14.68
13:07:28.859375,-14.74
13:07:28.875000,-15.44
13:07:28.890625,-16.86
13:07:28.906250,-18.85
13:07:28.921875,-21.10
13:07:28.937500,-23.25
13:07:28.953125,-24.93
13:07:28.968750,-25.95
13:07:28.984375,-26.34
13:07:29,-26.40
13:07:29.015625,-26.64
13:07:29.031250,-27.53
13:07:29.046875,-29.28
13:07:29.062500,-31.77
13:07:29.078125,-34.56
13:07:29.093750,-37.15
13:07:29.109375,-39.16
13:07:29.125000,-40.42
13:07:29.140625,-40.85
13:07:29.156250,-40.34
13:07:29.171875,-38.68
13:07:29.187500,-35.74
13:07:29.203125,-31.69
13:07:29.218750,-27.13
13:07:29.234375,-22.92
13:07:29.250000,-19.76
13:07:29.265625,-17.82
13:07:29.281250,-16.62
13:07:29.296875,-15.22
13:07:29.312500,-12.76
13:07:29.328125,-8.82
13:07:29.343750,-3.61
13:07:29.359375,2.20
13:07:29.375000,7.84
13:07:29.390625,12.69
13:07:29.406250,16.48
13:07:29.421875,19.19
13:07:29.437500,20.95
13:07:29.453125,21.89
13:07:29.468750,22.06
13:07:29.484375,21.51
13:07:29.500000,20.33
13:07:29.515625,18.73
13:07:29.531250,17.00
13:07:29.546875,15.46
13:07:29.562500,14.31
13:07:29.578125,13.58
13:07:29.593750,13.13
13:07:29.609375,12.84
13:07:29.625000,12.71
13:07:29.640625,13.02
13:07:29.656250,14.16
13:07:29.671875,16.38
13:07:29.687500,19.59
13:07:29.703125,23.24
13:07:29.718750,26.46
13:07:29.734375,28.41
13:07:29.750000,28.61
13:07:29.765625,27.02
13:07:29.781250,24.07
13:07:29.796875,20.34
13:07:29.812500,16.37
13:07:29.828125,12.54
13:07:29.843750,9.05
13:07:29.859375,5.97
13:07:29.875000,3.31
13:07:29.890625,0.98
13:07:29.906250,-1.26
13:07:29.921875,-3.61
13:07:29.937500,-6.10
13:07:29.953125,-8.38
13:07:29.968750,-9.80
13:07:29.984375,-9.54
13:07:30,-6.91
13:07:30.015625,-1.66
13:07:30.031250,5.97
13:07:30.046875,15.29
13:07:30.062500,25.31
13:07:30.078125,34.95
13:07:30.093750,43.24
13:07:30.109375,49.42
13:07:30.125000,53.12
13:07:30.140625,54.27
13:07:30.156250,53.02
13:07:30.171875,49.62
13:07:30.187500,44.32
13:07:30.203125,37.43
13:07:30.218750,29.44
13:07:30.234375,21.00
13:07:30.250000,12.81
13:07:30.265625,5.23
13:07:30.281250,-1.75
13:07:30.296875,-8.40
13:07:30.312500,-14.65
13:07:30.328125,-19.77
13:07:30.343750,-22.36
13:07:30.359375,-21.04
13:07:30.375000,-15.31
13:07:30.390625,-6.11
13:07:30.406250,4.41
13:07:30.421875,13.88
13:07:30.437500,20.81
13:07:30.453125,25.28
13:07:30.468750,28.84
13:07:30.484375,33.68
13:07:30.500000,41.76
13:07:30.515625,54.19
13:07:30.531250,71.08
13:07:30.546875,91.69
13:07:30.562500,114.69
13:07:30.578125,138.30
13:07:30.593750,160.61
13:07:30.609375,179.95
13:07:30.625000,195.42
13:07:30.640625,207.17
13:07:30.656250,216.23
13:07:30.671875,223.99
13:07:30.687500,231.44
13:07:30.703125,238.65
13:07:30.718750,244.60
13:07:30.734375,247.59
13:07:30.750000,245.84
13:07:30.765625,238.33
13:07:30.781250,225.36
13:07:30.796875,208.71
13:07:30.812500,191.22
13:07:30.828125,175.79
13:07:30.843750,164.18
13:07:30.859375,156.25
13:07:30.875000,150.02
13:07:30.890625,142.56
13:07:30.906250,131.47
13:07:30.921875,115.91
13:07:30.937500,96.88
13:07:30.953125,76.49
13:07:30.968750,56.90
13:07:30.984375,39.42
13:07:31,24.38
13:07:31.015625,11.67
13:07:31.031250,1.37
13:07:31.046875,-5.96
13:07:31.062500,-9.55
13:07:31.078125,-8.97
13:07:31.093750,-4.51
13:07:31.109375,2.74
13:07:31.125000,11.34
13:07:31.140625,20.02
13:07:31.156250,28.15
13:07:31.171875,35.80
13:07:31.187500,43.49
13:07:31.203125,51.73
13:07:31.218750,60.64
13:07:31.234375,69.79
13:07:31.250000,78.32
13:07:31.265625,85.26
13:07:31.281250,89.91
13:07:31.296875,92.05
13:07:31.312500,91.99
13:07:31.328125,90.36
13:07:31.343750,87.80
13:07:31.359375,84.74
13:07:31.375000,81.31
13:07:31.390625,77.37
13:07:31.406250,72.69
13:07:31.421875,67.18
13:07:31.437500,60.90
13:07:31.453125,54.16
13:07:31.468750,47.31
13:07:31.484375,40.65
13:07:31.500000,34.39
13:07:31.515625,28.55
13:07:31.531250,23.06
13:07:31.546875,17.84
13:07:31.562500,12.86
13:07:31.578125,8.13
13:07:31.593750,3.75
13:07:31.609375,-0.24
13:07:31.625000,-3.87
13:07:31.640625,-7.24
13:07:31.656250,-10.49
13:07:31.671875,-13.75
13:07:31.687500,-17.09
13:07:31.703125,-20.45
13:07:31.718750,-23.74
13:07:31.734375,-26.90
13:07:31.750000,-29.95
13:07:31.765625,-33.07
13:07:31.781250,-36.48
13:07:31.796875,-40.39
13:07:31.812500,-44.84
13:07:31.828125,-49.69
13:07:31.843750,-54.62
13:07:31.859375,-59.30
13:07:31.875000,-63.58
13:07:31.890625,-67.61
13:07:31.906250,-71.80
13:07:31.921875,-76.74
13:07:31.937500,-82.88
13:07:31.953125,-90.34
13:07:31.968750,-98.81
13:07:31.984375,-107.69
13:07:32,-116.32
13:07:32.015625,-124.36
13:07:32.031250,-131.96
13:07:32.046875,-139.80
13:07:32.062500,-148.78
13:07:32.078125,-159.63
13:07:32.093750,-172.58
13:07:32.109375,-187.19
13:07:32.125000,-202.57
13:07:32.140625,-217.81
13:07:32.156250,-232.28
13:07:32.171875,-245.96
